,loss,recall,val_loss,val_recall
0,0.7813106775283813,0.7301357372785944,0.5286969542503357,0.8053898482469911
1,0.4028971493244171,0.784438775510204,0.4824933707714081,0.7568594104308389
2,0.44274449348449707,0.7369838494838495,0.4644694924354553,0.8401360544217688
3,0.2673797905445099,0.8597069597069595,0.6051796674728394,0.7647392290249433
4,0.20107662677764893,0.9070596070596071,0.5014002323150635,0.8289107717679146
5,0.2169945240020752,0.8992673992673994,0.470133513212204,0.8743351886209029
6,0.13804450631141663,0.9349816849816851,0.44341200590133667,0.8511904761904762
7,0.13723759353160858,0.9111721611721613,0.39396730065345764,0.8633941455370027
8,0.13084951043128967,0.9404761904761906,0.4611837565898895,0.8953078667364383
9,0.12079674750566483,0.9523809523809524,0.41424626111984253,0.8266681730967445
10,0.06276778876781464,0.9952380952380953,0.4133182466030121,0.8645469609755324
11,0.06395131349563599,0.9880952380952381,0.3640846610069275,0.8514017728303441
12,0.042778678238391876,1.0,0.3914988338947296,0.8849404563690279
13,0.04097994789481163,0.9761904761904762,0.3737611174583435,0.8586881372595657
14,0.03909016400575638,0.9952380952380953,0.4155265688896179,0.8796485260770975
15,0.03430913761258125,0.9880952380952381,0.4881129562854767,0.8508606472892187
16,0.020626341924071312,1.0,0.526317298412323,0.8225056689342403
17,0.02113349176943302,1.0,0.5285087823867798,0.8606009070294783
18,0.022254155948758125,1.0,0.49414920806884766,0.858219954648526
19,0.017477938905358315,1.0,0.5094501376152039,0.869175665604237
20,0.020208759233355522,0.9761904761904762,0.489701509475708,0.8466751502465788
21,0.017491508275270462,0.9952380952380953,0.5185882449150085,0.8730717695003409
22,0.03329148143529892,0.9880952380952381,0.5410633683204651,0.8836778301064016
23,0.027896525338292122,0.9952380952380953,0.5094098448753357,0.8815759637188209
24,0.03049127385020256,0.9880952380952381,0.6397777199745178,0.8551587301587301
25,0.05865350365638733,0.9761904761904762,0.6957049369812012,0.8305642769928483
26,0.07731570303440094,0.9557823129251701,0.7072263956069946,0.8120181405895691
27,0.02248898707330227,1.0,1.064690351486206,0.8148716363002076
28,0.11741608381271362,0.9523809523809524,1.108319878578186,0.8334157905586477
29,0.05036574602127075,0.9880952380952381,0.9861825704574585,0.8467377860235004
30,0.02800893411040306,0.9672619047619048,0.8521828055381775,0.8268140589569161
31,0.007825078442692757,1.0,0.8179082274436951,0.8365166579452293
32,0.011868203990161419,1.0,0.8305788636207581,0.835326181754753
33,0.005136123392730951,1.0,0.790198028087616,0.8339089481946624
34,0.0030889450572431087,1.0,0.7780648469924927,0.8412785627071341
35,0.001694955863058567,1.0,0.7766479849815369,0.835326181754753
36,0.003782374318689108,1.0,0.8112612366676331,0.835326181754753
37,0.001967321615666151,1.0,0.8084211945533752,0.835326181754753
38,0.0031189904548227787,1.0,0.8205932974815369,0.8412785627071341
39,0.001816784730181098,1.0,0.8408966064453125,0.852267573696145
40,0.0018679826753214002,1.0,0.8522545695304871,0.8412785627071341
41,0.0022816031705588102,1.0,0.8567427396774292,0.8412785627071341
42,0.001356426626443863,1.0,0.8579249382019043,0.835326181754753
43,0.0006886718911118805,1.0,0.8619016408920288,0.835326181754753
44,0.0015980693278834224,1.0,0.867254376411438,0.835326181754753
45,0.0017251747194677591,1.0,0.8723956346511841,0.835326181754753
46,0.0023639947175979614,1.0,0.8440432548522949,0.8412785627071341
47,0.000959344208240509,1.0,0.8404251337051392,0.835326181754753
48,0.00082864222349599,1.0,0.8638309240341187,0.835326181754753
49,0.0009213844896294177,1.0,0.8855096697807312,0.835326181754753
50,0.0007367613143287599,1.0,0.906669557094574,0.835326181754753
51,0.00035249089705757797,1.0,0.921660840511322,0.835326181754753
52,0.00041048304410651326,1.0,0.9198397994041443,0.835326181754753
53,0.001122509827837348,1.0,0.9207488894462585,0.835326181754753
54,0.0005373259773477912,1.0,0.9204056859016418,0.835326181754753
55,0.0012542029144242406,1.0,0.9192417860031128,0.835326181754753
56,0.000443340657511726,1.0,0.9127866625785828,0.835326181754753
57,0.0012157068122178316,1.0,0.8935549855232239,0.835326181754753
58,0.0005849447334185243,1.0,0.8938842415809631,0.835326181754753
59,0.000536478532012552,1.0,0.9056617021560669,0.835326181754753
60,0.0008635733975097537,1.0,0.9450631737709045,0.835326181754753
61,0.0012813955545425415,1.0,0.9411265254020691,0.835326181754753
62,0.0007844284409657121,1.0,0.8527664542198181,0.835326181754753
63,0.00033704712404869497,1.0,0.8301889300346375,0.835326181754753
64,0.0006550049292854965,1.0,0.83417809009552,0.835326181754753
65,0.00032305135391652584,1.0,0.8443103432655334,0.835326181754753
66,0.000959381926804781,1.0,0.8992834091186523,0.835326181754753
67,0.00044947018614038825,1.0,0.9456437230110168,0.835326181754753
68,0.000788845878560096,1.0,0.9606069922447205,0.835326181754753
69,0.0006770776817575097,1.0,0.9497796893119812,0.835326181754753
70,0.000573213619645685,1.0,0.9720441699028015,0.835326181754753
71,0.00028069905238226056,1.0,0.9744843244552612,0.835326181754753
72,0.0004491630825214088,1.0,0.9753312468528748,0.8305642769928483
73,0.00030013281502760947,1.0,0.9779961705207825,0.835326181754753
74,0.0004833069979213178,1.0,0.9938945174217224,0.8305642769928483
75,0.0006579859182238579,1.0,0.9980553984642029,0.8305642769928483
76,0.0004989785957150161,1.0,0.9930038452148438,0.8463151927437641
77,0.0003357077366672456,1.0,0.9887976050376892,0.8463151927437641
78,0.0006538159213960171,1.0,0.9819502234458923,0.835326181754753
79,0.000247929070610553,1.0,0.9843999743461609,0.8305642769928483
80,0.0005306070670485497,1.0,1.0006786584854126,0.8305642769928483
81,0.00019339424034114927,1.0,1.0065432786941528,0.835326181754753
82,0.000495899876113981,1.0,1.0244219303131104,0.835326181754753
83,0.00026046353741548955,1.0,1.0405967235565186,0.8305642769928483
84,0.0003487967769615352,1.0,1.0578645467758179,0.8305642769928483
85,0.0001883472577901557,1.0,1.049301028251648,0.8305642769928483
86,0.00020750706607941538,1.0,1.0392483472824097,0.8305642769928483
87,0.0002370859292568639,1.0,1.034288763999939,0.8305642769928483
88,0.0003133900463581085,1.0,1.0214389562606812,0.8305642769928483
89,0.00037517279270105064,1.0,1.023262619972229,0.8305642769928483
90,0.0003614219313021749,1.0,1.0296987295150757,0.8305642769928483
91,0.00025974339223466814,1.0,1.0347883701324463,0.8305642769928483
92,0.0002679738972801715,1.0,1.0452579259872437,0.8305642769928483
93,0.00010096603364218026,1.0,1.0540947914123535,0.8305642769928483
94,0.00020967962336726487,1.0,1.0624372959136963,0.8305642769928483
95,0.00014754917356185615,1.0,1.0876727104187012,0.8305642769928483
96,0.00032862945226952434,1.0,1.0693577527999878,0.8305642769928483
97,0.0003522453480400145,1.0,1.065137505531311,0.8305642769928483
98,0.00015178939793258905,1.0,1.0511627197265625,0.8305642769928483
99,0.00029579951660707593,1.0,1.057284951210022,0.8305642769928483
100,0.00016318289272021502,1.0,1.065277099609375,0.8305642769928483
101,0.0002740829950198531,1.0,1.0649402141571045,0.8305642769928483
102,0.00021046704205218703,1.0,1.0717271566390991,0.8305642769928483
103,0.00029812008142471313,1.0,1.0709656476974487,0.8305642769928483
104,0.00022367690689861774,1.0,1.0707000494003296,0.8305642769928483
105,0.0002515701053198427,1.0,1.0707294940948486,0.8229679051107622
106,0.00016222633712459356,1.0,1.062269926071167,0.8229679051107622
107,0.0001696563995210454,1.0,1.0715371370315552,0.8305642769928483
108,0.0001298443676205352,1.0,1.0719479322433472,0.8305642769928483
109,0.0001509190333308652,1.0,1.0783891677856445,0.8305642769928483
110,0.00032414155430160463,1.0,1.1080906391143799,0.8305642769928483
111,0.000222675473196432,1.0,1.1305007934570312,0.8305642769928483
112,0.0001399569446220994,1.0,1.1400398015975952,0.8305642769928483
113,0.000619354541413486,1.0,1.2565971612930298,0.8415532879818594
114,0.0003435629478190094,1.0,1.2507909536361694,0.8415532879818594
115,0.0001506453554611653,1.0,1.2253824472427368,0.8339569160997732
116,0.0002796064072754234,1.0,1.2069467306137085,0.8339569160997732
117,0.00023429407156072557,1.0,1.1727606058120728,0.8229679051107622
118,0.00011448549048509449,1.0,1.1657674312591553,0.8229679051107622
119,0.00016468367539346218,1.0,1.1734907627105713,0.8305642769928483
120,0.0002667739463504404,1.0,1.168331265449524,0.8305642769928483
121,0.00044550845632329583,1.0,1.1712121963500977,0.8305642769928483
122,9.061774471774697e-05,1.0,1.1803921461105347,0.8305642769928483
123,0.0002421496610622853,1.0,1.1795847415924072,0.8305642769928483
124,0.00011136037210235372,1.0,1.1787697076797485,0.8305642769928483
125,0.00018577292212285101,1.0,1.1760655641555786,0.8305642769928483
126,0.00026311774854548275,1.0,1.1730728149414062,0.8305642769928483
127,0.00010950721480185166,1.0,1.15961492061615,0.8305642769928483
128,0.0001624292490305379,1.0,1.1498769521713257,0.8305642769928483
129,0.00017310635303147137,1.0,1.1516281366348267,0.8305642769928483
130,0.00012844798038713634,1.0,1.1415761709213257,0.8305642769928483
131,8.356729085789993e-05,1.0,1.1346700191497803,0.8305642769928483
132,0.00010780762386275455,1.0,1.12375009059906,0.8305642769928483
133,0.00015853608783800155,1.0,1.1245713233947754,0.8305642769928483
134,0.00017737368762027472,1.0,1.1093840599060059,0.8305642769928483
135,0.00015567766968160868,1.0,1.1134028434753418,0.8305642769928483
136,0.00020835615578107536,1.0,1.1209899187088013,0.8305642769928483
137,0.00014463768457062542,1.0,1.1323610544204712,0.8305642769928483
138,0.00010436122101964429,1.0,1.1434577703475952,0.8305642769928483
139,0.00014543133147526532,1.0,1.1593416929244995,0.8305642769928483
140,0.00010296787513652816,1.0,1.1702210903167725,0.8305642769928483
141,7.157003710744902e-05,1.0,1.1645456552505493,0.8305642769928483
142,0.0001000836055027321,1.0,1.157759428024292,0.8305642769928483
143,0.0001960214867722243,1.0,1.1562925577163696,0.8305642769928483
144,0.0003155006852466613,1.0,1.150711178779602,0.8415532879818594
145,0.00020079522801097482,1.0,1.1302517652511597,0.8415532879818594
146,0.00011856060882564634,1.0,1.1085128784179688,0.8415532879818594
147,0.00026575211086310446,1.0,1.1147412061691284,0.8415532879818594
148,0.00010632297926349565,1.0,1.1514880657196045,0.8415532879818594
149,0.00010229090548818931,1.0,1.1612322330474854,0.8305642769928483
150,7.933070446597412e-05,1.0,1.152288794517517,0.8305642769928483
151,8.03468719823286e-05,1.0,1.1505849361419678,0.8305642769928483
152,0.000166081270435825,1.0,1.1549880504608154,0.8305642769928483
153,6.817600660724565e-05,1.0,1.160650372505188,0.8305642769928483
154,0.00038810897967778146,1.0,1.1377538442611694,0.8305642769928483
155,8.784738747635856e-05,1.0,1.086358904838562,0.8339569160997732
156,0.0002852670440915972,1.0,1.1108134984970093,0.8229679051107622
157,0.00026282700127922,1.0,1.1765164136886597,0.8229679051107622
158,5.2426763431867585e-05,1.0,1.232953429222107,0.8339569160997732
159,4.8821617383509874e-05,1.0,1.2404544353485107,0.8339569160997732
160,5.615848567686044e-05,1.0,1.2281992435455322,0.8339569160997732
161,9.462611342314631e-05,1.0,1.206297755241394,0.8339569160997732
162,7.255392119986936e-05,1.0,1.1888514757156372,0.8339569160997732
163,0.00010280749847879633,1.0,1.1774946451187134,0.8415532879818594
164,8.347623952431604e-05,1.0,1.1712217330932617,0.8415532879818594
165,4.222115603624843e-05,1.0,1.1843503713607788,0.8305642769928483
166,7.476345490431413e-05,1.0,1.1988860368728638,0.8305642769928483
167,6.6388412960805e-05,1.0,1.2040079832077026,0.8305642769928483
168,3.619631752371788e-05,1.0,1.201255440711975,0.8305642769928483
169,6.825117452535778e-05,1.0,1.1951544284820557,0.8305642769928483
170,7.783674664096907e-05,1.0,1.1944301128387451,0.8305642769928483
171,8.84430410224013e-05,1.0,1.1905852556228638,0.8305642769928483
172,4.3155036109965295e-05,1.0,1.1929699182510376,0.8305642769928483
173,5.1729271945077926e-05,1.0,1.1919536590576172,0.8305642769928483
174,6.154069706099108e-05,1.0,1.1903101205825806,0.8305642769928483
175,6.988605309743434e-05,1.0,1.1967016458511353,0.8305642769928483
176,5.031062391935848e-05,1.0,1.2207822799682617,0.8305642769928483
177,0.00012763545964844525,1.0,1.2367318868637085,0.8305642769928483
178,5.143819726072252e-05,1.0,1.233901858329773,0.8305642769928483
179,4.76395471196156e-05,1.0,1.2224576473236084,0.8305642769928483
180,9.08662477741018e-05,1.0,1.199979543685913,0.8305642769928483
181,0.0001477587502449751,1.0,1.190948724746704,0.8305642769928483
182,6.31331349723041e-05,1.0,1.1679198741912842,0.8305642769928483
183,4.126136627746746e-05,1.0,1.1662641763687134,0.8305642769928483
184,7.161027315305546e-05,1.0,1.1683189868927002,0.8305642769928483
185,0.00011501916742417961,1.0,1.1757208108901978,0.8305642769928483
186,3.6838922824244946e-05,1.0,1.181190848350525,0.8305642769928483
187,0.00011651819659164175,1.0,1.1808832883834839,0.8305642769928483
188,4.827190423384309e-05,1.0,1.1711746454238892,0.8305642769928483
189,6.188899715198204e-05,1.0,1.1739956140518188,0.8415532879818594
190,7.786040805513039e-05,1.0,1.1766372919082642,0.8305642769928483
191,4.668304609367624e-05,1.0,1.173477053642273,0.8305642769928483
192,3.8672067603329197e-05,1.0,1.1825014352798462,0.8305642769928483
193,5.1186358177801594e-05,1.0,1.1912134885787964,0.8305642769928483
194,0.00015442694711964577,1.0,1.1926475763320923,0.8415532879818594
195,6.408900662790984e-05,1.0,1.196300745010376,0.8415532879818594
196,8.937743405112997e-05,1.0,1.2000337839126587,0.8415532879818594
197,5.4082582209957764e-05,1.0,1.1944798231124878,0.8415532879818594
198,6.589583063032478e-05,1.0,1.189678430557251,0.8305642769928483
199,0.00015650798741262406,1.0,1.1347187757492065,0.8305642769928483
200,5.218604565015994e-05,1.0,1.1348496675491333,0.8305642769928483
201,5.920076000620611e-05,1.0,1.1527235507965088,0.8305642769928483
202,9.998436871683225e-05,1.0,1.195504903793335,0.8305642769928483
203,0.00012164615327492356,1.0,1.222472906112671,0.8305642769928483
204,0.00015323331172112375,1.0,1.260026216506958,0.8305642769928483
205,6.97495779604651e-05,1.0,1.2536380290985107,0.8305642769928483
206,6.605275848414749e-05,1.0,1.2235692739486694,0.8305642769928483
207,5.492491982295178e-05,1.0,1.2106542587280273,0.8305642769928483
208,3.1060386390890926e-05,1.0,1.2178536653518677,0.8305642769928483
209,5.560727004194632e-05,1.0,1.2066091299057007,0.8305642769928483
210,4.562254252959974e-05,1.0,1.2163219451904297,0.8305642769928483
211,2.6828256523003802e-05,1.0,1.2282487154006958,0.8305642769928483
212,2.9853896194254048e-05,1.0,1.240204095840454,0.8305642769928483
213,6.440880679292604e-05,1.0,1.2240506410598755,0.8305642769928483
214,6.494169792858884e-05,1.0,1.2094142436981201,0.8305642769928483
215,7.20994285074994e-05,1.0,1.203680396080017,0.8305642769928483
216,5.520605918718502e-05,1.0,1.212702989578247,0.8305642769928483
217,0.00010398141603218392,1.0,1.232877492904663,0.8305642769928483
218,4.259643537807278e-05,1.0,1.2331839799880981,0.8305642769928483
219,5.304851947585121e-05,1.0,1.2427772283554077,0.8305642769928483
220,5.3587624279316515e-05,1.0,1.2510074377059937,0.8305642769928483
221,5.8547833759803325e-05,1.0,1.247024655342102,0.8305642769928483
222,4.900273052044213e-05,1.0,1.24111807346344,0.8305642769928483
223,3.810709313256666e-05,1.0,1.2436554431915283,0.8305642769928483
224,3.766857480513863e-05,1.0,1.2357027530670166,0.8305642769928483
225,2.4404436771874316e-05,1.0,1.2333859205245972,0.8305642769928483
226,3.359868424013257e-05,1.0,1.2300742864608765,0.8305642769928483
227,5.136051549925469e-05,1.0,1.2269114255905151,0.8305642769928483
228,6.443387974286452e-05,1.0,1.2278724908828735,0.8305642769928483
229,4.46996018581558e-05,1.0,1.237636685371399,0.8305642769928483
230,5.449816308100708e-05,1.0,1.2250224351882935,0.8305642769928483
231,4.7975707275327295e-05,1.0,1.2102830410003662,0.8305642769928483
232,5.050949039286934e-05,1.0,1.2290494441986084,0.8305642769928483
233,5.2283110562711954e-05,1.0,1.2467364072799683,0.8305642769928483
234,3.332398409838788e-05,1.0,1.2645474672317505,0.8305642769928483
235,0.00011028919834643602,1.0,1.317368745803833,0.8305642769928483
236,2.0001230950583704e-05,1.0,1.3200509548187256,0.8305642769928483
237,4.863214053330012e-05,1.0,1.3092302083969116,0.8305642769928483
238,3.5044380638282746e-05,1.0,1.2902058362960815,0.8305642769928483
239,2.3761302145430818e-05,1.0,1.2787494659423828,0.8305642769928483
240,5.49870019312948e-05,1.0,1.2605364322662354,0.8305642769928483
241,3.807656321441755e-05,1.0,1.2533272504806519,0.8305642769928483
242,5.646761928801425e-05,1.0,1.2483514547348022,0.8305642769928483
243,3.4368393244221807e-05,1.0,1.2540024518966675,0.8305642769928483
244,3.613420994952321e-05,1.0,1.2587099075317383,0.8305642769928483
245,2.9110751711414196e-05,1.0,1.2702484130859375,0.8305642769928483
246,3.0042345315450802e-05,1.0,1.2735949754714966,0.8305642769928483
247,4.7554927732562646e-05,1.0,1.2731701135635376,0.8305642769928483
248,4.557314241537824e-05,1.0,1.2647621631622314,0.8305642769928483
249,6.0838006902486086e-05,1.0,1.2576056718826294,0.8305642769928483
250,1.8100716260960326e-05,1.0,1.2612355947494507,0.8305642769928483
251,5.9024237998528406e-05,1.0,1.2597253322601318,0.8305642769928483
252,2.9721804821747355e-05,1.0,1.2709896564483643,0.8305642769928483
253,3.0474993764073588e-05,1.0,1.2701343297958374,0.8305642769928483
254,6.882195157231763e-05,1.0,1.2922524213790894,0.8305642769928483
255,2.731982931436505e-05,1.0,1.3023890256881714,0.8305642769928483
256,3.0485245588351972e-05,1.0,1.3056936264038086,0.8305642769928483
257,2.5523642761982046e-05,1.0,1.3011474609375,0.8305642769928483
258,2.3111109840101562e-05,1.0,1.2825525999069214,0.8305642769928483
259,3.2332052796846256e-05,1.0,1.2757294178009033,0.8305642769928483
260,3.030434345419053e-05,1.0,1.2701568603515625,0.8305642769928483
261,4.650330447475426e-05,1.0,1.2757279872894287,0.8305642769928483
262,3.029470462934114e-05,1.0,1.2793340682983398,0.8305642769928483
263,2.9742212063865736e-05,1.0,1.281365156173706,0.8305642769928483
264,4.19160642195493e-05,1.0,1.265107274055481,0.8305642769928483
265,2.7761429009842686e-05,1.0,1.2735170125961304,0.8305642769928483
266,3.0441180570051074e-05,1.0,1.2873811721801758,0.8305642769928483
267,5.776641773991287e-05,1.0,1.2412511110305786,0.8305642769928483
268,3.219570862711407e-05,1.0,1.229312539100647,0.8305642769928483
269,8.110091584967449e-05,1.0,1.2724300622940063,0.8305642769928483
270,4.859621185460128e-05,1.0,1.3078420162200928,0.8305642769928483
271,7.543990795966238e-05,1.0,1.3451138734817505,0.8305642769928483
272,8.1585232692305e-05,1.0,1.355183482170105,0.8415532879818594
273,2.3045027774060145e-05,1.0,1.3444534540176392,0.8415532879818594
274,2.262566522404086e-05,1.0,1.3308979272842407,0.8415532879818594
275,4.63140313513577e-05,1.0,1.328445315361023,0.8305642769928483
276,1.564454214530997e-05,1.0,1.322514533996582,0.8305642769928483
277,2.65100479737157e-05,1.0,1.3098351955413818,0.8305642769928483
278,2.3487298676627688e-05,1.0,1.305431604385376,0.8305642769928483
279,2.1515337721211836e-05,1.0,1.3253200054168701,0.8305642769928483
280,4.639303733711131e-05,1.0,1.3203192949295044,0.8305642769928483
281,4.808429002878256e-05,1.0,1.3165134191513062,0.8415532879818594
282,1.9309984054416418e-05,1.0,1.32038414478302,0.8415532879818594
283,4.1192473872797564e-05,1.0,1.326382040977478,0.8415532879818594
284,3.74675182683859e-05,1.0,1.3073080778121948,0.8415532879818594
285,2.4674582164152525e-05,1.0,1.3034507036209106,0.8415532879818594
286,2.20665788219776e-05,1.0,1.3050034046173096,0.8305642769928483
287,4.903109947917983e-05,1.0,1.3074067831039429,0.8305642769928483
288,6.000069697620347e-05,1.0,1.314365029335022,0.8305642769928483
289,3.141159686492756e-05,1.0,1.3348711729049683,0.8305642769928483
290,2.6289253582945094e-05,1.0,1.3425439596176147,0.8305642769928483
291,2.342375046282541e-05,1.0,1.340362310409546,0.8305642769928483
292,6.825438322266564e-05,1.0,1.3336460590362549,0.8305642769928483
293,3.485462730168365e-05,1.0,1.3154886960983276,0.8305642769928483
294,1.8797551092575304e-05,1.0,1.3124185800552368,0.8305642769928483
295,2.5293938961112872e-05,1.0,1.3167810440063477,0.8305642769928483
296,5.470765972859226e-05,1.0,1.3233152627944946,0.8305642769928483
297,2.0973753635189496e-05,1.0,1.3313391208648682,0.8305642769928483
298,1.7036267308867536e-05,1.0,1.3300338983535767,0.8305642769928483
299,2.388854045420885e-05,1.0,1.325480580329895,0.8305642769928483
300,1.705423346720636e-05,1.0,1.31662917137146,0.8305642769928483
301,1.613121639820747e-05,1.0,1.3041774034500122,0.8305642769928483
302,3.961869879276492e-05,1.0,1.30052649974823,0.8305642769928483
303,1.9251081539550796e-05,1.0,1.3089278936386108,0.8305642769928483
304,2.409475746389944e-05,1.0,1.308409571647644,0.8305642769928483
305,1.756675737851765e-05,1.0,1.2922651767730713,0.8305642769928483
306,3.0426928788074292e-05,1.0,1.291900396347046,0.8305642769928483
307,2.732615939748939e-05,1.0,1.2975693941116333,0.8305642769928483
308,2.6864978281082585e-05,1.0,1.3084839582443237,0.8305642769928483
309,1.9486886230879463e-05,1.0,1.3107794523239136,0.8305642769928483
310,1.4288178135757335e-05,1.0,1.3168294429779053,0.8305642769928483
311,1.8108954463968985e-05,1.0,1.315016508102417,0.8305642769928483
312,1.5978650480974466e-05,1.0,1.3162572383880615,0.8305642769928483
313,2.0487295842031017e-05,1.0,1.3131681680679321,0.8305642769928483
314,2.8636277420446277e-05,1.0,1.3244305849075317,0.8305642769928483
315,2.0316849258961156e-05,1.0,1.3403981924057007,0.8305642769928483
316,1.651391175983008e-05,1.0,1.3428535461425781,0.8305642769928483
317,3.2812273275339976e-05,1.0,1.3304951190948486,0.8305642769928483
318,2.2681406335323118e-05,1.0,1.3124445676803589,0.8305642769928483
319,1.711095501377713e-05,1.0,1.3177412748336792,0.8305642769928483
320,2.4882321667973883e-05,1.0,1.324345588684082,0.8305642769928483
321,1.9072600480285473e-05,1.0,1.3292549848556519,0.8305642769928483
322,1.9934686861233786e-05,1.0,1.3239147663116455,0.8305642769928483
323,1.6502306607435457e-05,1.0,1.3306299448013306,0.8305642769928483
324,2.6926320060738362e-05,1.0,1.3392679691314697,0.8305642769928483
325,1.7360804122290574e-05,1.0,1.3339670896530151,0.8305642769928483
326,1.5975721908034757e-05,1.0,1.327256441116333,0.8305642769928483
327,2.2100457499618642e-05,1.0,1.3238162994384766,0.8305642769928483
328,6.973990093683824e-05,1.0,1.3207310438156128,0.8415532879818594
329,4.863212598138489e-05,1.0,1.3295868635177612,0.8415532879818594
330,2.0310080799390562e-05,1.0,1.332625150680542,0.8415532879818594
331,1.5313840776798315e-05,1.0,1.3426662683486938,0.8415532879818594
332,3.836061659967527e-05,1.0,1.3447197675704956,0.8415532879818594
333,2.5546716642566025e-05,1.0,1.3398082256317139,0.8415532879818594
334,3.520515019772574e-05,1.0,1.3089500665664673,0.8415532879818594
335,5.570046414504759e-05,1.0,1.257560133934021,0.8305642769928483
336,6.289034354267642e-05,1.0,1.2569197416305542,0.8305642769928483
337,5.504267755895853e-05,1.0,1.2959473133087158,0.8305642769928483
338,1.7919426682055928e-05,1.0,1.3348580598831177,0.8305642769928483
339,5.313101064530201e-05,1.0,1.3774890899658203,0.8305642769928483
340,1.4765109881409444e-05,1.0,1.3855246305465698,0.8305642769928483
341,2.321852844033856e-05,1.0,1.377761721611023,0.8415532879818594
342,1.2472609341784846e-05,1.0,1.3586623668670654,0.8415532879818594
343,3.673238097690046e-05,1.0,1.3451932668685913,0.8415532879818594
344,4.8593941755825654e-05,1.0,1.3474607467651367,0.8415532879818594
345,2.2307625840767287e-05,1.0,1.3615692853927612,0.8415532879818594
346,2.6266847271472216e-05,1.0,1.3528451919555664,0.8415532879818594
347,1.1642016943369526e-05,1.0,1.3628000020980835,0.8415532879818594
348,2.6648338462109677e-05,1.0,1.3625954389572144,0.8415532879818594
349,1.1421288945712149e-05,1.0,1.3529447317123413,0.8415532879818594
350,5.2533578127622604e-05,1.0,1.3232003450393677,0.8415532879818594
351,1.2173456525488291e-05,1.0,1.3270589113235474,0.8305642769928483
352,1.4247328181227203e-05,1.0,1.3337746858596802,0.8305642769928483
353,8.654279372422025e-05,1.0,1.4019155502319336,0.8305642769928483
354,1.2578938367369119e-05,1.0,1.4413081407546997,0.8415532879818594
355,1.4514176655211486e-05,1.0,1.4418367147445679,0.8415532879818594
356,1.592353146406822e-05,1.0,1.419057846069336,0.8341836734693878
357,3.8084446714492515e-05,1.0,1.364730715751648,0.8415532879818594
358,2.0252467948012054e-05,1.0,1.3389559984207153,0.8415532879818594
359,2.976226642203983e-05,1.0,1.3341385126113892,0.8415532879818594
360,1.3385017155087553e-05,1.0,1.3309487104415894,0.8415532879818594
361,1.503011844761204e-05,1.0,1.3443067073822021,0.8305642769928483
362,1.2597279237525072e-05,1.0,1.3496017456054688,0.8305642769928483
363,8.219704795919824e-06,1.0,1.3513967990875244,0.8305642769928483
364,2.4366701836697757e-05,1.0,1.3567569255828857,0.8305642769928483
365,1.746184534567874e-05,1.0,1.3608728647232056,0.8305642769928483
366,1.3899063560529612e-05,1.0,1.3608224391937256,0.8305642769928483
367,1.1046603503928054e-05,1.0,1.3548247814178467,0.8305642769928483
368,3.3049243938876316e-05,1.0,1.3703128099441528,0.8305642769928483
369,1.7467833458795212e-05,1.0,1.3682767152786255,0.8305642769928483
370,9.499021871306468e-06,1.0,1.372074007987976,0.8305642769928483
371,1.896217327157501e-05,1.0,1.377333641052246,0.8415532879818594
372,1.9949544366681948e-05,1.0,1.3664073944091797,0.8305642769928483
373,1.4018893125467002e-05,1.0,1.3640295267105103,0.8305642769928483
374,2.0497343939496204e-05,1.0,1.3537302017211914,0.8305642769928483
375,1.0658234714355785e-05,1.0,1.3510650396347046,0.8305642769928483
376,1.4798127267567907e-05,1.0,1.3484830856323242,0.8305642769928483
377,1.2191298992547672e-05,1.0,1.3347653150558472,0.8305642769928483
378,8.845397132972721e-06,1.0,1.334837794303894,0.8305642769928483
379,1.8245580577058718e-05,1.0,1.3266726732254028,0.8305642769928483
380,2.0744349967571907e-05,1.0,1.3293780088424683,0.8305642769928483
381,1.4660418855783064e-05,1.0,1.3337996006011963,0.8305642769928483
382,1.578736919327639e-05,1.0,1.350266456604004,0.8305642769928483
383,1.450500167266e-05,1.0,1.3524333238601685,0.8305642769928483
384,1.1708063539117575e-05,1.0,1.3572757244110107,0.8305642769928483
385,3.1471510737901554e-05,1.0,1.359271764755249,0.8305642769928483
386,1.070489361154614e-05,1.0,1.346821904182434,0.8305642769928483
387,1.9112219888484105e-05,1.0,1.3425737619400024,0.8305642769928483
388,1.2060821973136626e-05,1.0,1.3364137411117554,0.8305642769928483
389,8.714535397302825e-06,1.0,1.3419950008392334,0.8305642769928483
390,1.7140373529400676e-05,1.0,1.3472630977630615,0.8305642769928483
391,2.2813268515164964e-05,1.0,1.3655654191970825,0.8305642769928483
392,1.559419251861982e-05,1.0,1.3819347620010376,0.8305642769928483
393,1.4560093404725194e-05,1.0,1.3816983699798584,0.8305642769928483
394,1.629607504582964e-05,1.0,1.3742083311080933,0.8305642769928483
395,1.04789523902582e-05,1.0,1.3691943883895874,0.8415532879818594
396,7.067274964356329e-06,1.0,1.3648707866668701,0.8305642769928483
397,1.795880416466389e-05,1.0,1.3691213130950928,0.8305642769928483
398,7.707853910687845e-06,1.0,1.364903450012207,0.8305642769928483
399,1.4296618246589787e-05,1.0,1.3674757480621338,0.8305642769928483
400,1.935823638632428e-05,1.0,1.365239143371582,0.8305642769928483
401,1.3640958059113473e-05,1.0,1.3604546785354614,0.8305642769928483
402,1.6260852135019377e-05,1.0,1.360974907875061,0.8305642769928483
403,1.0320653018425219e-05,1.0,1.3647466897964478,0.8305642769928483
404,1.4214254406397231e-05,1.0,1.367637276649475,0.8305642769928483
405,9.190522177959792e-06,1.0,1.3668310642242432,0.8305642769928483
406,9.131982551480178e-06,1.0,1.3648995161056519,0.8305642769928483
407,8.993345545604825e-06,1.0,1.3690823316574097,0.8305642769928483
408,1.3342644706426654e-05,1.0,1.3769004344940186,0.8305642769928483
409,2.6224315661238506e-05,1.0,1.38404381275177,0.8415532879818594
410,6.689410838589538e-06,1.0,1.3804255723953247,0.8415532879818594
411,1.7178579582832754e-05,1.0,1.3729040622711182,0.8415532879818594
412,1.2136237273807637e-05,1.0,1.3744927644729614,0.8415532879818594
413,1.0438793651701417e-05,1.0,1.3721864223480225,0.8415532879818594
414,2.112378933816217e-05,1.0,1.3726978302001953,0.8415532879818594
415,6.399903213605285e-06,1.0,1.375888466835022,0.8415532879818594
416,6.7160394792153966e-06,1.0,1.3863699436187744,0.8415532879818594
417,1.0823418961081188e-05,1.0,1.3907194137573242,0.8415532879818594
418,1.8372758859186433e-05,1.0,1.381032943725586,0.8415532879818594
419,1.2983652595721651e-05,1.0,1.3687658309936523,0.8415532879818594
420,9.083043551072478e-06,1.0,1.3692290782928467,0.8415532879818594
421,1.5580784747726284e-05,1.0,1.3682518005371094,0.8415532879818594
422,1.1858806828968227e-05,1.0,1.3553467988967896,0.8415532879818594
423,9.772384146344848e-06,1.0,1.3494055271148682,0.8305642769928483
424,1.3195826795708854e-05,1.0,1.3526731729507446,0.8305642769928483
425,9.544529348204378e-06,1.0,1.3760167360305786,0.8305642769928483
426,1.309574054175755e-05,1.0,1.3962793350219727,0.8305642769928483
427,1.1407266356400214e-05,1.0,1.410768747329712,0.8415532879818594
428,1.7221851521753706e-05,1.0,1.4081647396087646,0.8415532879818594
429,1.2826493730244692e-05,1.0,1.400779366493225,0.8415532879818594
430,8.796497240837198e-06,1.0,1.3648080825805664,0.8305642769928483
431,9.362476703245193e-06,1.0,1.3593093156814575,0.8305642769928483
432,1.4308663594420068e-05,1.0,1.3550256490707397,0.8305642769928483
433,9.028684871736914e-06,1.0,1.3518941402435303,0.8305642769928483
434,5.9912131291639525e-06,1.0,1.3471906185150146,0.8305642769928483
435,1.3630074136017356e-05,1.0,1.3605365753173828,0.8305642769928483
436,9.492592653259635e-06,1.0,1.3579542636871338,0.8305642769928483
437,1.4078858839638997e-05,1.0,1.3723543882369995,0.8305642769928483
438,8.879687811713666e-06,1.0,1.3682039976119995,0.8305642769928483
439,2.0892081010970287e-05,1.0,1.3662853240966797,0.8305642769928483
440,5.889990461582784e-06,1.0,1.3689550161361694,0.8305642769928483
441,1.8176453522755764e-05,1.0,1.3615410327911377,0.8305642769928483
442,1.2883545423392206e-05,1.0,1.367095947265625,0.8305642769928483
443,1.1001661732734647e-05,1.0,1.363394021987915,0.8305642769928483
444,1.0848547390196472e-05,1.0,1.370697021484375,0.8305642769928483
445,5.250436515780166e-06,1.0,1.3811960220336914,0.8305642769928483
446,9.407258403371088e-06,1.0,1.3750416040420532,0.8305642769928483
447,5.180053449294064e-06,1.0,1.3766785860061646,0.8305642769928483
448,8.947638889367227e-06,1.0,1.3747092485427856,0.8305642769928483
449,1.4007695426698774e-05,1.0,1.378708004951477,0.8415532879818594
450,6.779769137210678e-06,1.0,1.3854893445968628,0.8415532879818594
451,1.0475075214344542e-05,1.0,1.3719810247421265,0.8415532879818594
452,5.756944119639229e-06,1.0,1.3642432689666748,0.8415532879818594
453,1.298734605370555e-05,1.0,1.3781181573867798,0.8305642769928483
454,9.150700861937366e-06,1.0,1.3978224992752075,0.8305642769928483
455,1.4350650417327415e-05,1.0,1.431396484375,0.8305642769928483
456,1.6243091522483155e-05,1.0,1.4398027658462524,0.8305642769928483
457,6.276450676523382e-06,1.0,1.4243077039718628,0.8415532879818594
458,6.531844519486185e-06,1.0,1.409940481185913,0.8415532879818594
459,1.0483423466212116e-05,1.0,1.402680516242981,0.8415532879818594
460,8.525194971298333e-06,1.0,1.3965874910354614,0.8415532879818594
461,1.0021690286521334e-05,1.0,1.385372281074524,0.8415532879818594
462,9.854491509031504e-06,1.0,1.3849796056747437,0.8415532879818594
463,2.0947740267729387e-05,1.0,1.3882747888565063,0.8415532879818594
464,8.70384701556759e-06,1.0,1.3817806243896484,0.8415532879818594
465,7.165142505982658e-06,1.0,1.3899930715560913,0.8415532879818594
466,2.0365490854601376e-05,1.0,1.377794861793518,0.8415532879818594
467,7.303504844458075e-06,1.0,1.3691699504852295,0.8415532879818594
468,1.3652225788973738e-05,1.0,1.3579108715057373,0.8305642769928483
469,1.0908420335908886e-05,1.0,1.3644912242889404,0.8305642769928483
470,7.744030881440267e-06,1.0,1.3591052293777466,0.8305642769928483
471,7.802635991538409e-06,1.0,1.3639755249023438,0.8305642769928483
472,7.148074928409187e-06,1.0,1.3713206052780151,0.8305642769928483
473,1.5473840903723612e-05,1.0,1.3828575611114502,0.8305642769928483
474,4.90340607939288e-06,1.0,1.3883570432662964,0.8305642769928483
475,6.107947228883859e-06,1.0,1.3986279964447021,0.8305642769928483
476,2.3028143914416432e-05,1.0,1.4115874767303467,0.8305642769928483
477,6.133800980023807e-06,1.0,1.4142177104949951,0.8415532879818594
478,1.047811110765906e-05,1.0,1.4244282245635986,0.8415532879818594
479,8.829548278299626e-06,1.0,1.4251636266708374,0.8415532879818594
480,1.2705436347459909e-05,1.0,1.4255074262619019,0.8415532879818594
481,7.509930583182722e-06,1.0,1.4301512241363525,0.8415532879818594
482,4.829883891943609e-06,1.0,1.4221258163452148,0.8415532879818594
483,5.91130356042413e-06,1.0,1.420082688331604,0.8415532879818594
484,3.4229792618134525e-06,1.0,1.4217320680618286,0.8415532879818594
485,8.02172417024849e-06,1.0,1.4271571636199951,0.8415532879818594
486,1.0894147635553963e-05,1.0,1.4235413074493408,0.8415532879818594
487,6.266886430239538e-06,1.0,1.4069632291793823,0.8305642769928483
488,8.016309038794134e-06,1.0,1.4076825380325317,0.8305642769928483
489,5.737857918575173e-06,1.0,1.4133363962173462,0.8305642769928483
490,8.111239367281087e-06,1.0,1.4211909770965576,0.8305642769928483
491,2.907381349359639e-05,1.0,1.4147861003875732,0.8305642769928483
492,6.58614681015024e-06,1.0,1.402405023574829,0.8305642769928483
493,8.882522706699092e-06,1.0,1.3934286832809448,0.8305642769928483
494,1.0442743587191217e-05,1.0,1.3836168050765991,0.8305642769928483
495,1.0932472832791973e-05,1.0,1.3850833177566528,0.8305642769928483
496,7.765425834804773e-06,1.0,1.3879584074020386,0.8305642769928483
497,4.367017481854418e-06,1.0,1.390446424484253,0.8305642769928483
498,4.315947990107816e-06,1.0,1.390364646911621,0.8305642769928483
499,5.212113592278911e-06,1.0,1.3929232358932495,0.8305642769928483
500,7.91299589764094e-06,1.0,1.3813053369522095,0.8305642769928483
501,9.14243810257176e-06,1.0,1.3802602291107178,0.8305642769928483
502,7.318301413761219e-06,1.0,1.3718135356903076,0.8305642769928483
503,8.701832484803163e-06,1.0,1.3736077547073364,0.8305642769928483
504,6.080496859794948e-06,1.0,1.3660155534744263,0.8305642769928483
505,9.61193200055277e-06,1.0,1.3798032999038696,0.8305642769928483
506,9.097814654523972e-06,1.0,1.3755749464035034,0.8305642769928483
507,1.0191592082264833e-05,1.0,1.4003944396972656,0.8305642769928483
508,1.0829925486177672e-05,1.0,1.402704119682312,0.8305642769928483
509,1.2151077498856466e-05,1.0,1.374706506729126,0.8305642769928483
510,8.480568794766441e-06,1.0,1.3584672212600708,0.8305642769928483
511,1.0339533218939323e-05,1.0,1.3760273456573486,0.8305642769928483
512,1.2454377610993106e-05,1.0,1.3890324831008911,0.8305642769928483
513,1.0962599844788201e-05,1.0,1.401538610458374,0.8305642769928483
514,6.006035164318746e-06,1.0,1.4214537143707275,0.8305642769928483
515,9.305263120040763e-06,1.0,1.4044123888015747,0.8305642769928483
516,3.766753707168391e-06,1.0,1.3947902917861938,0.8305642769928483
517,6.221076091605937e-06,1.0,1.3959884643554688,0.8305642769928483
518,8.687968147569336e-06,1.0,1.3936251401901245,0.8305642769928483
519,6.498838047264144e-06,1.0,1.399667501449585,0.8305642769928483
520,1.3807569303025957e-05,1.0,1.3947162628173828,0.8305642769928483
521,1.2916241757920943e-05,1.0,1.4014263153076172,0.8305642769928483
522,6.767993454559473e-06,1.0,1.3946266174316406,0.8305642769928483
523,6.470961579907453e-06,1.0,1.4001123905181885,0.8305642769928483
524,8.4858829723089e-06,1.0,1.4084604978561401,0.8305642769928483
525,4.8438378144055605e-06,1.0,1.4020497798919678,0.8305642769928483
526,1.370648624288151e-05,1.0,1.4006973505020142,0.8305642769928483
527,6.463691534008831e-06,1.0,1.4068104028701782,0.8305642769928483
528,6.367638434312539e-06,1.0,1.413430094718933,0.8305642769928483
529,7.876097697590012e-06,1.0,1.4244624376296997,0.8305642769928483
530,4.914104010822484e-06,1.0,1.4191066026687622,0.8305642769928483
531,5.405790489021456e-06,1.0,1.4184093475341797,0.8305642769928483
532,1.1348523003107402e-05,1.0,1.4208656549453735,0.8305642769928483
533,3.869985448545776e-06,1.0,1.4332456588745117,0.8305642769928483
534,9.839025551627856e-06,1.0,1.4254668951034546,0.8305642769928483
535,9.42474707699148e-06,1.0,1.4301527738571167,0.8305642769928483
536,3.876365553878713e-06,1.0,1.4367038011550903,0.8305642769928483
537,9.423371011507697e-06,1.0,1.4143259525299072,0.8305642769928483
538,5.1024412641709205e-06,1.0,1.4290202856063843,0.8305642769928483
539,6.001796009513782e-06,1.0,1.4182261228561401,0.8305642769928483
540,1.846689156081993e-05,1.0,1.4065030813217163,0.8305642769928483
541,6.96031702318578e-06,1.0,1.3987977504730225,0.8305642769928483
542,6.305544957285747e-06,1.0,1.392285943031311,0.8305642769928483
543,7.672459105378948e-06,1.0,1.3926750421524048,0.8305642769928483
544,3.656034095911309e-06,1.0,1.399789810180664,0.8305642769928483
545,7.955628461786546e-06,1.0,1.3933016061782837,0.8305642769928483
546,5.9133499235031195e-06,1.0,1.3873058557510376,0.8305642769928483
547,5.122720722283702e-06,1.0,1.3891489505767822,0.8305642769928483
548,8.203674042306375e-06,1.0,1.3875362873077393,0.8305642769928483
549,6.195416062837467e-06,1.0,1.3754678964614868,0.8305642769928483
550,4.970439476892352e-06,1.0,1.3776435852050781,0.8305642769928483
551,6.807218596804887e-06,1.0,1.3964735269546509,0.8305642769928483
552,7.443170488841133e-06,1.0,1.4026745557785034,0.8305642769928483
553,5.837943263031775e-06,1.0,1.403427004814148,0.8305642769928483
554,3.4899510410468793e-06,1.0,1.4104785919189453,0.8305642769928483
555,5.150214292370947e-06,1.0,1.409078598022461,0.8305642769928483
556,4.618196726369206e-06,1.0,1.414511799812317,0.8305642769928483
557,4.111598627787316e-06,1.0,1.4178848266601562,0.8305642769928483
558,1.4634532817581203e-05,1.0,1.4206416606903076,0.8415532879818594
559,1.001757937046932e-05,1.0,1.4335979223251343,0.8415532879818594
560,6.49111552775139e-06,1.0,1.4410754442214966,0.8415532879818594
561,7.638550414412748e-06,1.0,1.429537057876587,0.8415532879818594
562,9.551636139804032e-06,1.0,1.4081212282180786,0.8415532879818594
563,8.014301783987321e-06,1.0,1.410781979560852,0.8415532879818594
564,4.678855930251302e-06,1.0,1.4167568683624268,0.8415532879818594
565,8.813286513031926e-06,1.0,1.428063988685608,0.8415532879818594
566,7.1532481342728715e-06,1.0,1.4468920230865479,0.8415532879818594
567,6.814826519985218e-06,1.0,1.4311580657958984,0.8305642769928483
568,6.55584972264478e-06,1.0,1.4293673038482666,0.8305642769928483
569,5.949691967543913e-06,1.0,1.427064061164856,0.8305642769928483
570,8.177075869753025e-06,1.0,1.4316132068634033,0.8305642769928483
571,4.088108653377276e-06,1.0,1.4357000589370728,0.8415532879818594
572,8.913632882467937e-06,1.0,1.4395443201065063,0.8415532879818594
573,5.523730123968562e-06,1.0,1.419230580329895,0.8415532879818594
574,1.1843128049804363e-05,1.0,1.4058542251586914,0.8415532879818594
575,3.129200422335998e-06,1.0,1.3875608444213867,0.8415532879818594
576,1.5711546438978985e-05,1.0,1.3883429765701294,0.8415532879818594
577,6.638125341851264e-06,1.0,1.4102975130081177,0.8305642769928483
578,3.343117668919149e-06,1.0,1.4217637777328491,0.8305642769928483
579,7.701301910856273e-06,1.0,1.4303556680679321,0.8305642769928483
580,1.0665567060641479e-05,1.0,1.422438383102417,0.8415532879818594
581,7.273393748619128e-06,1.0,1.427623987197876,0.8415532879818594
582,4.491452273214236e-06,1.0,1.435170292854309,0.8415532879818594
583,5.087447789264843e-06,1.0,1.4435371160507202,0.8305642769928483
584,5.419643912318861e-06,1.0,1.449520230293274,0.8305642769928483
585,8.568528755859006e-06,1.0,1.4489744901657104,0.8415532879818594
586,6.251902050280478e-06,1.0,1.4526134729385376,0.8415532879818594
587,1.475176486565033e-05,1.0,1.4415870904922485,0.8415532879818594
588,6.474341262219241e-06,1.0,1.4411284923553467,0.8305642769928483
589,5.426052666734904e-06,1.0,1.4528920650482178,0.8415532879818594
590,1.0801159078255296e-05,1.0,1.4610940217971802,0.8415532879818594
591,5.253503331914544e-06,1.0,1.4496448040008545,0.8415532879818594
592,5.205696197663201e-06,1.0,1.4509859085083008,0.8415532879818594
593,4.587356215779437e-06,1.0,1.4518018960952759,0.8415532879818594
594,4.544522653304739e-06,1.0,1.4352147579193115,0.8415532879818594
595,4.595841346599627e-06,1.0,1.4343997240066528,0.8415532879818594
596,5.534131105378037e-06,1.0,1.435869812965393,0.8415532879818594
597,8.220776180678513e-06,1.0,1.4394291639328003,0.8305642769928483
598,5.52924893781892e-06,1.0,1.4386968612670898,0.8305642769928483
599,6.084836968511809e-06,1.0,1.453913688659668,0.8305642769928483
600,9.386925739818253e-06,1.0,1.458683967590332,0.8415532879818594
601,4.604360583471134e-06,1.0,1.4477527141571045,0.8415532879818594
602,5.4951065067143645e-06,1.0,1.4534329175949097,0.8415532879818594
603,2.748179895206704e-06,1.0,1.4479683637619019,0.8415532879818594
604,4.12327108278987e-06,1.0,1.45465886592865,0.8415532879818594
605,4.402285412652418e-05,1.0,1.307632565498352,0.8305642769928483
606,1.778722435119562e-05,1.0,1.304915428161621,0.8305642769928483
607,2.104765189869795e-05,1.0,1.4056936502456665,0.8305642769928483
608,8.55978396430146e-06,1.0,1.454893946647644,0.8305642769928483
609,1.706934199319221e-05,1.0,1.4863313436508179,0.8305642769928483
610,9.207918083120603e-06,1.0,1.5390911102294922,0.8305642769928483
611,5.664137461280916e-06,1.0,1.573980689048767,0.8305642769928483
612,1.4299356735136826e-05,1.0,1.5894906520843506,0.8305642769928483
613,3.898721388395643e-06,1.0,1.5640811920166016,0.8305642769928483
614,4.554266979539534e-06,1.0,1.5410521030426025,0.8305642769928483
615,6.7584760472527705e-06,1.0,1.518056869506836,0.8305642769928483
616,5.997487733111484e-06,1.0,1.4914723634719849,0.8305642769928483
617,5.5973023336264305e-06,1.0,1.4933675527572632,0.8305642769928483
618,5.356764631869737e-06,1.0,1.4910446405410767,0.8415532879818594
619,3.485629576971405e-06,1.0,1.4893999099731445,0.8415532879818594
620,9.041970770340413e-06,1.0,1.4749183654785156,0.8415532879818594
621,4.105165317014325e-06,1.0,1.4656622409820557,0.8415532879818594
622,4.605392405210296e-06,1.0,1.4678834676742554,0.8415532879818594
623,4.616053956851829e-06,1.0,1.4554786682128906,0.8415532879818594
624,4.948107289237669e-06,1.0,1.4472311735153198,0.8415532879818594
625,2.2553711005457444e-06,1.0,1.453165054321289,0.8415532879818594
626,3.252659098507138e-06,1.0,1.4700719118118286,0.8415532879818594
627,5.602676537819207e-06,1.0,1.4742246866226196,0.8415532879818594
628,5.242861334409099e-06,1.0,1.4694702625274658,0.8305642769928483
629,3.080187752857455e-06,1.0,1.4772169589996338,0.8305642769928483
630,5.335551122698234e-06,1.0,1.46845281124115,0.8305642769928483
631,3.3771514154068427e-06,1.0,1.4722511768341064,0.8305642769928483
632,2.918460495493491e-06,1.0,1.465190052986145,0.8305642769928483
633,3.260120138293132e-06,1.0,1.468622088432312,0.8305642769928483
634,6.309091986622661e-06,1.0,1.4690077304840088,0.8305642769928483
635,3.3430826533731306e-06,1.0,1.4915859699249268,0.8305642769928483
636,4.574535523715895e-06,1.0,1.4982645511627197,0.8305642769928483
637,8.123949555738363e-06,1.0,1.4899400472640991,0.8305642769928483
638,3.6613764677895233e-06,1.0,1.4773112535476685,0.8305642769928483
639,4.8917054300545715e-06,1.0,1.4763518571853638,0.8305642769928483
640,3.0632090783910826e-06,1.0,1.4727917909622192,0.8305642769928483
641,6.273773124121362e-06,1.0,1.4850949048995972,0.8305642769928483
642,3.1792262689123163e-06,1.0,1.4910341501235962,0.8305642769928483
643,3.7007096125307726e-06,1.0,1.5039559602737427,0.8305642769928483
644,6.240184575290186e-06,1.0,1.488342046737671,0.8305642769928483
645,5.18960314366268e-06,1.0,1.484657645225525,0.8305642769928483
646,3.980617293564137e-06,1.0,1.4889535903930664,0.8305642769928483
647,4.089224148629e-06,1.0,1.4996665716171265,0.8305642769928483
648,3.136641680612229e-06,1.0,1.4973924160003662,0.8305642769928483
649,2.6853660983761074e-06,1.0,1.4917362928390503,0.8305642769928483
650,4.336119218351087e-06,1.0,1.4846270084381104,0.8305642769928483
651,3.5166297038813354e-06,1.0,1.4958698749542236,0.8305642769928483
652,4.196620011498453e-06,1.0,1.483162760734558,0.8305642769928483
653,6.211491836438654e-06,1.0,1.4800084829330444,0.8305642769928483
654,3.741184855243773e-06,1.0,1.4825782775878906,0.8305642769928483
655,4.833081220567692e-06,1.0,1.513917088508606,0.8305642769928483
656,5.375842192734126e-06,1.0,1.514247179031372,0.8305642769928483
657,3.0014614367246395e-06,1.0,1.5079975128173828,0.8305642769928483
658,4.653305495594395e-06,1.0,1.49048912525177,0.8305642769928483
659,3.9913020373205654e-06,1.0,1.4821722507476807,0.8305642769928483
660,2.074423946396564e-06,1.0,1.4926170110702515,0.8305642769928483
661,3.5038235637330217e-06,1.0,1.4973948001861572,0.8305642769928483
662,1.720000796012755e-06,1.0,1.4928858280181885,0.8415532879818594
663,4.017806077172281e-06,1.0,1.4974602460861206,0.8415532879818594
664,9.546476576360874e-06,1.0,1.4829654693603516,0.8305642769928483
665,2.7832759315060684e-06,1.0,1.4858380556106567,0.8305642769928483
666,4.172185526840622e-06,1.0,1.4862043857574463,0.8305642769928483
667,6.8111339714960195e-06,1.0,1.4826627969741821,0.8305642769928483
668,3.744327386812074e-06,1.0,1.4743194580078125,0.8305642769928483
669,4.6309432946145535e-06,1.0,1.4794330596923828,0.8305642769928483
670,2.095722720696358e-06,1.0,1.4912031888961792,0.8305642769928483
671,1.8647648403202766e-06,1.0,1.492300271987915,0.8305642769928483
672,1.9935512227675645e-06,1.0,1.4918426275253296,0.8305642769928483
673,3.3207813885383075e-06,1.0,1.4899225234985352,0.8305642769928483
674,5.19174727742211e-06,1.0,1.4870412349700928,0.8305642769928483
675,2.851407998605282e-06,1.0,1.487574577331543,0.8305642769928483
676,4.577710114972433e-06,1.0,1.498788595199585,0.8305642769928483
677,2.9546183668571757e-06,1.0,1.4972835779190063,0.8305642769928483
678,3.0185158266249346e-06,1.0,1.499151349067688,0.8305642769928483
679,4.479831204662332e-06,1.0,1.5047913789749146,0.8305642769928483
680,2.3224322376336204e-06,1.0,1.514422059059143,0.8305642769928483
681,7.162534984672675e-06,1.0,1.5069465637207031,0.8305642769928483
682,4.577668732963502e-06,1.0,1.5187722444534302,0.8305642769928483
683,2.1180769635975594e-06,1.0,1.5389699935913086,0.8415532879818594
684,2.024416062340606e-06,1.0,1.5357388257980347,0.8415532879818594
685,1.2931989658682141e-05,1.0,1.5402425527572632,0.8305642769928483
686,2.402254949629423e-06,1.0,1.5406314134597778,0.8305642769928483
687,3.954030944441911e-06,1.0,1.539682149887085,0.8305642769928483
688,3.7995939692336833e-06,1.0,1.5255547761917114,0.8305642769928483
689,3.4313748074055184e-06,1.0,1.515295147895813,0.8305642769928483
690,1.0915996426774655e-05,1.0,1.5068340301513672,0.8305642769928483
691,5.822752882522764e-06,1.0,1.507538080215454,0.8305642769928483
692,3.918878519471036e-06,1.0,1.5064135789871216,0.8305642769928483
693,2.9280079161253525e-06,1.0,1.5084495544433594,0.8305642769928483
694,8.36429899209179e-06,1.0,1.5265015363693237,0.8305642769928483
695,2.6470504508324666e-06,1.0,1.5278295278549194,0.8305642769928483
696,3.5527868931239937e-06,1.0,1.5307105779647827,0.8305642769928483
697,3.1397541988553712e-06,1.0,1.53461754322052,0.8305642769928483
698,7.660863047931343e-06,1.0,1.5256460905075073,0.8305642769928483
699,3.26541044159967e-06,1.0,1.5013129711151123,0.8305642769928483
700,3.2504883620276814e-06,1.0,1.5090621709823608,0.8305642769928483
701,2.925884473370388e-06,1.0,1.5157530307769775,0.8305642769928483
702,2.4096848392218817e-06,1.0,1.5169217586517334,0.8305642769928483
703,2.6044660899060545e-06,1.0,1.5249053239822388,0.8305642769928483
704,9.067248356586788e-06,1.0,1.5341806411743164,0.8305642769928483
705,8.0941636042553e-06,1.0,1.545999526977539,0.8305642769928483
706,4.830796115129488e-06,1.0,1.5496820211410522,0.8305642769928483
707,3.0503611014864873e-06,1.0,1.5392004251480103,0.8305642769928483
708,3.2898024073801935e-06,1.0,1.5276483297348022,0.8305642769928483
709,2.575721509856521e-06,1.0,1.531119465827942,0.8305642769928483
710,3.91250387110631e-06,1.0,1.5271354913711548,0.8305642769928483
711,4.494630502449581e-06,1.0,1.4983850717544556,0.8305642769928483
712,7.310586170206079e-06,1.0,1.4993603229522705,0.8305642769928483
713,1.1899589935637778e-06,1.0,1.4959741830825806,0.8305642769928483
714,2.675761152204359e-06,1.0,1.4928548336029053,0.8305642769928483
715,1.725329752844118e-06,1.0,1.4975277185440063,0.8305642769928483
716,4.3445788833196275e-06,1.0,1.4973621368408203,0.8305642769928483
717,3.838952579826582e-06,1.0,1.4960556030273438,0.8305642769928483
718,1.527357881059288e-06,1.0,1.5123287439346313,0.8305642769928483
719,3.0578867153963074e-06,1.0,1.5221459865570068,0.8305642769928483
720,4.365885160950711e-06,1.0,1.5204118490219116,0.8305642769928483
721,3.0738633540750016e-06,1.0,1.5173135995864868,0.8305642769928483
722,3.4483891795389354e-06,1.0,1.5049622058868408,0.8305642769928483
723,1.8030286810244434e-06,1.0,1.5105632543563843,0.8305642769928483
724,3.6475182696449338e-06,1.0,1.5172654390335083,0.8305642769928483
725,5.973156476102304e-06,1.0,1.513742446899414,0.8305642769928483
726,2.9365639875322813e-06,1.0,1.5244232416152954,0.8305642769928483
727,1.0302564078301657e-05,1.0,1.4940935373306274,0.8305642769928483
728,2.566157263572677e-06,1.0,1.4907656908035278,0.8305642769928483
729,3.46122919836489e-06,1.0,1.488885760307312,0.8305642769928483
730,2.433117288092035e-06,1.0,1.4937206506729126,0.8305642769928483
731,3.558412936399691e-05,1.0,1.4759865999221802,0.8305642769928483
732,1.3832626791554503e-05,1.0,1.4367942810058594,0.8305642769928483
733,3.3676276416372275e-06,1.0,1.4902088642120361,0.835326181754753
734,4.814027306565549e-06,1.0,1.506308913230896,0.8463151927437641
735,9.364441211801022e-06,1.0,1.5169503688812256,0.8463151927437641
736,4.048732535011368e-06,1.0,1.529607892036438,0.8463151927437641
737,5.817676083097467e-06,1.0,1.519580602645874,0.8415532879818594
738,6.042236691428116e-06,1.0,1.5113221406936646,0.8415532879818594
739,2.664083922354621e-06,1.0,1.491226077079773,0.8415532879818594
740,3.1249539915734204e-06,1.0,1.4795042276382446,0.8415532879818594
741,1.6806233134047943e-06,1.0,1.469728708267212,0.8415532879818594
742,4.012420049548382e-06,1.0,1.4561504125595093,0.8463151927437641
743,2.0520897123788018e-06,1.0,1.4376556873321533,0.8463151927437641
744,9.509841220278759e-06,1.0,1.4353904724121094,0.8415532879818594
745,2.9684581477340544e-06,1.0,1.4283454418182373,0.8415532879818594
746,2.913118123615277e-06,1.0,1.438942551612854,0.8305642769928483
747,4.926733708998654e-06,1.0,1.4439953565597534,0.8305642769928483
748,1.8668758912099293e-06,1.0,1.4465951919555664,0.8305642769928483
749,8.045635695452802e-06,1.0,1.462562918663025,0.8415532879818594
750,2.865248916350538e-06,1.0,1.4851586818695068,0.8415532879818594
751,3.1302574825531337e-06,1.0,1.4977943897247314,0.8415532879818594
752,2.79923324342235e-06,1.0,1.4959179162979126,0.8415532879818594
753,4.797977453563362e-06,1.0,1.4911139011383057,0.8415532879818594
754,4.072179763170425e-06,1.0,1.493999719619751,0.8415532879818594
755,4.760418505611597e-06,1.0,1.49449622631073,0.8415532879818594
756,2.081884758808883e-06,1.0,1.500779390335083,0.8415532879818594
757,1.6444309949292801e-06,1.0,1.4969069957733154,0.8415532879818594
758,3.5708774248632835e-06,1.0,1.4901615381240845,0.8415532879818594
759,2.9641851142514497e-06,1.0,1.491219401359558,0.8415532879818594
760,1.1513826393638737e-05,1.0,1.5275592803955078,0.8415532879818594
761,5.971108748781262e-06,1.0,1.5579090118408203,0.8415532879818594
762,3.2015764190873597e-06,1.0,1.5446832180023193,0.8415532879818594
763,2.5640215426392388e-06,1.0,1.5294932126998901,0.8415532879818594
764,4.4083676584705245e-06,1.0,1.5084439516067505,0.8415532879818594
765,1.7029772152454825e-06,1.0,1.4887886047363281,0.8415532879818594
766,2.417149516986683e-06,1.0,1.4766786098480225,0.8415532879818594
767,6.201411906658905e-06,1.0,1.4638937711715698,0.8415532879818594
768,2.2510923827212537e-06,1.0,1.4521931409835815,0.8305642769928483
769,3.848621872748481e-06,1.0,1.453751564025879,0.8305642769928483
770,2.4692676561244298e-06,1.0,1.4639002084732056,0.8305642769928483
771,4.442571025720099e-06,1.0,1.4706205129623413,0.8305642769928483
772,2.5629640276747523e-06,1.0,1.490634560585022,0.8305642769928483
773,3.865675807901425e-06,1.0,1.489613652229309,0.8305642769928483
774,7.9929504863685e-06,1.0,1.4809306859970093,0.8415532879818594
775,5.002262241760036e-06,1.0,1.4913454055786133,0.8415532879818594
776,2.1755540728918277e-06,1.0,1.5207157135009766,0.8415532879818594
777,6.410681180568645e-06,1.0,1.4838697910308838,0.8415532879818594
778,3.2270472729578614e-06,1.0,1.4820842742919922,0.8415532879818594
779,6.699367077089846e-06,1.0,1.5202494859695435,0.8305642769928483
780,3.335543851790135e-06,1.0,1.5267764329910278,0.8305642769928483
781,1.1920866427317378e-06,1.0,1.5285471677780151,0.8305642769928483
782,2.906718464146252e-06,1.0,1.524296522140503,0.8305642769928483
783,2.4149906039383495e-06,1.0,1.5321413278579712,0.8305642769928483
784,2.776849896690692e-06,1.0,1.5461704730987549,0.8305642769928483
785,1.917970166687155e-06,1.0,1.5598644018173218,0.8415532879818594
786,7.308858585020062e-06,1.0,1.550588607788086,0.8415532879818594
787,3.683685235955636e-06,1.0,1.5551879405975342,0.8341836734693878
788,3.875282345688902e-06,1.0,1.5620280504226685,0.8341836734693878
789,7.178741270763567e-06,1.0,1.5056333541870117,0.8415532879818594
790,1.99247165255656e-06,1.0,1.4858945608139038,0.8305642769928483
791,6.491231943073217e-06,1.0,1.4993404150009155,0.8305642769928483
792,1.6220853922277456e-06,1.0,1.5164474248886108,0.8305642769928483
793,4.46269632448093e-06,1.0,1.5043100118637085,0.8305642769928483
794,1.2240182059031213e-06,1.0,1.509581208229065,0.8305642769928483
795,3.850695975415874e-06,1.0,1.5245970487594604,0.8305642769928483
796,2.9716691187786637e-06,1.0,1.5182534456253052,0.8305642769928483
797,3.927294528693892e-06,1.0,1.5409740209579468,0.8305642769928483
798,1.8157898011850193e-06,1.0,1.5622764825820923,0.8305642769928483
799,4.408413133205613e-06,1.0,1.5587923526763916,0.8305642769928483
800,3.4729341678030323e-06,1.0,1.5418329238891602,0.8415532879818594
801,2.3788427370163845e-06,1.0,1.544551968574524,0.8415532879818594
802,2.5193039618898183e-06,1.0,1.538118600845337,0.8415532879818594
803,1.013274754768645e-06,1.0,1.5403281450271606,0.8415532879818594
804,2.003109557335847e-06,1.0,1.5429184436798096,0.8415532879818594
805,3.0748487915843725e-06,1.0,1.5487862825393677,0.8415532879818594
806,2.3969296307768673e-06,1.0,1.5517511367797852,0.8415532879818594
807,3.1802337616682053e-06,1.0,1.547943353652954,0.8415532879818594
808,1.7380989447701722e-06,1.0,1.5451472997665405,0.8415532879818594
809,1.3528069757740013e-06,1.0,1.552139401435852,0.8415532879818594
810,1.6955210639935103e-06,1.0,1.5520784854888916,0.8415532879818594
811,3.2122086395247607e-06,1.0,1.5590152740478516,0.8415532879818594
812,1.6284659523080336e-06,1.0,1.5570539236068726,0.8415532879818594
813,2.582103434178862e-06,1.0,1.5654354095458984,0.8415532879818594
814,1.0579791478448897e-06,1.0,1.5674620866775513,0.8415532879818594
815,1.3645118315253058e-06,1.0,1.5624521970748901,0.8415532879818594
816,1.2453050430849544e-06,1.0,1.5496680736541748,0.8415532879818594
817,1.1367401384632103e-06,1.0,1.5471019744873047,0.8415532879818594
818,8.525557859684341e-07,1.0,1.5496777296066284,0.8415532879818594
819,1.522036313872377e-06,1.0,1.5481088161468506,0.8415532879818594
820,1.2123089163651457e-06,1.0,1.5469900369644165,0.8415532879818594
821,3.6899598399031674e-06,1.0,1.5807297229766846,0.8305642769928483
822,1.3304509138833964e-06,1.0,1.5942696332931519,0.8305642769928483
823,2.517178927519126e-06,1.0,1.597537636756897,0.8305642769928483
824,1.1378059525668505e-06,1.0,1.5810391902923584,0.8415532879818594
825,2.2202073068910977e-06,1.0,1.5865691900253296,0.8415532879818594
826,4.1158273234032094e-06,1.0,1.5827726125717163,0.8415532879818594
827,1.589088810760586e-06,1.0,1.5745071172714233,0.8415532879818594
828,2.7374960609449772e-06,1.0,1.560705304145813,0.8415532879818594
829,8.589431672589853e-07,1.0,1.5456451177597046,0.8415532879818594
830,1.4283569953477127e-06,1.0,1.5335108041763306,0.8415532879818594
831,1.3283178077472257e-06,1.0,1.5379775762557983,0.8415532879818594
832,9.52607194903976e-07,1.0,1.5429095029830933,0.8415532879818594
833,1.5571612266285229e-06,1.0,1.5470211505889893,0.8415532879818594
834,1.7189260006489349e-06,1.0,1.5546804666519165,0.8415532879818594
835,1.5326806988014141e-06,1.0,1.5537302494049072,0.8415532879818594
836,8.951295171755191e-07,1.0,1.5568305253982544,0.8415532879818594
837,8.54684287787677e-07,1.0,1.554093360900879,0.8415532879818594
838,1.210178311339405e-06,1.0,1.5565283298492432,0.8415532879818594
839,2.866152271963074e-06,1.0,1.572272539138794,0.8415532879818594
840,1.2016664641123498e-06,1.0,1.585480809211731,0.8305642769928483
841,2.8652425498876255e-06,1.0,1.5789194107055664,0.8305642769928483
842,1.8988047258972074e-06,1.0,1.5711889266967773,0.8415532879818594
843,2.010561274801148e-06,1.0,1.5733126401901245,0.8415532879818594
844,1.0728791721703601e-06,1.0,1.5688745975494385,0.8415532879818594
845,1.1697322861436987e-06,1.0,1.575339436531067,0.8415532879818594
846,2.4064268018264556e-06,1.0,1.5733801126480103,0.8415532879818594
847,2.1414759885374224e-06,1.0,1.5612154006958008,0.8415532879818594
848,9.259975968234357e-07,1.0,1.556106448173523,0.8415532879818594
849,2.568247737144702e-06,1.0,1.5567693710327148,0.8415532879818594
850,1.238917661794403e-06,1.0,1.5585860013961792,0.8415532879818594
851,1.4847754528091173e-06,1.0,1.5698922872543335,0.8415532879818594
852,1.071814608621935e-06,1.0,1.5687650442123413,0.8415532879818594
853,4.19027765019564e-06,1.0,1.5743986368179321,0.8305642769928483
854,1.9903388874809025e-06,1.0,1.574989914894104,0.8305642769928483
855,4.092295512236888e-06,1.0,1.5928726196289062,0.8415532879818594
856,1.040948291120003e-06,1.0,1.5989763736724854,0.8415532879818594
857,6.982242553021933e-07,1.0,1.5944157838821411,0.8415532879818594
858,1.4358239468492684e-06,1.0,1.5940449237823486,0.8415532879818594
859,1.2357195373624563e-06,1.0,1.5988099575042725,0.8415532879818594
860,1.5411952745125745e-06,1.0,1.5924192667007446,0.8341836734693878
861,3.0674079880554928e-06,1.0,1.5924447774887085,0.8415532879818594
862,9.334480637335218e-07,1.0,1.590672254562378,0.8415532879818594
863,1.7338340967398835e-06,1.0,1.5755784511566162,0.8415532879818594
864,1.1825067076642881e-06,1.0,1.57502019405365,0.8415532879818594
865,2.772633251879597e-06,1.0,1.5772963762283325,0.8415532879818594
866,3.227065462851897e-06,1.0,1.58383309841156,0.8415532879818594
867,2.9141360755602363e-06,1.0,1.586796522140503,0.8415532879818594
868,8.163688107742928e-07,1.0,1.589030146598816,0.8415532879818594
869,6.471340725511254e-07,1.0,1.5955053567886353,0.8415532879818594
870,2.0414261143741896e-06,1.0,1.5933172702789307,0.8415532879818594
871,1.3347090543902596e-06,1.0,1.5834261178970337,0.8415532879818594
872,4.675114723795559e-06,1.0,1.5825968980789185,0.8415532879818594
873,1.8796569065671065e-06,1.0,1.5801891088485718,0.8341836734693878
874,1.8785610791383078e-06,1.0,1.5852851867675781,0.8341836734693878
875,7.76986894379661e-07,1.0,1.593735933303833,0.8341836734693878
876,1.6327256844306248e-06,1.0,1.5912082195281982,0.8341836734693878
877,3.1025563203002093e-06,1.0,1.5957096815109253,0.8341836734693878
878,1.1016130656571477e-06,1.0,1.581333041191101,0.8341836734693878
879,1.0707502724471851e-06,1.0,1.5879831314086914,0.8341836734693878
880,6.673569146187219e-07,1.0,1.5962507724761963,0.8341836734693878
881,1.6305875760735944e-06,1.0,1.5990749597549438,0.8415532879818594
882,3.0450962640315993e-06,1.0,1.5934942960739136,0.8415532879818594
883,1.792350076357252e-06,1.0,1.5794761180877686,0.8415532879818594
884,8.408478606725112e-07,1.0,1.5885231494903564,0.8305642769928483
885,3.310047304694308e-06,1.0,1.6176756620407104,0.8305642769928483
886,1.395378831148264e-06,1.0,1.6320339441299438,0.8305642769928483
887,1.2463624443626031e-06,1.0,1.642853856086731,0.8305642769928483
888,1.5497074628001428e-06,1.0,1.6317082643508911,0.8415532879818594
889,1.6188740801226231e-06,1.0,1.6150959730148315,0.8415532879818594
890,8.504258062203007e-07,1.0,1.6218035221099854,0.8415532879818594
891,1.1431254733906826e-06,1.0,1.6141365766525269,0.8415532879818594
892,2.9758623441011878e-06,1.0,1.6237705945968628,0.8415532879818594
893,9.983713198380428e-07,1.0,1.640921711921692,0.8305642769928483
894,7.30152862615796e-07,1.0,1.6309038400650024,0.8305642769928483
895,2.9705963697779225e-06,1.0,1.6196426153182983,0.8305642769928483
896,2.9416771667456487e-06,1.0,1.6033543348312378,0.8305642769928483
897,1.5422598380609998e-06,1.0,1.5857864618301392,0.8305642769928483
898,1.045205635819002e-06,1.0,1.5937401056289673,0.8305642769928483
899,1.7412687611795263e-06,1.0,1.595076560974121,0.8305642769928483
900,8.376534310627903e-07,1.0,1.5950349569320679,0.8305642769928483
901,1.0526538289923337e-06,1.0,1.6046346426010132,0.8305642769928483
902,1.3517407069230103e-06,1.0,1.604885458946228,0.8305642769928483
903,8.270110924968321e-07,1.0,1.598024606704712,0.8305642769928483
904,1.2857497040386079e-06,1.0,1.5976091623306274,0.8305642769928483
905,2.570385277067544e-06,1.0,1.6062123775482178,0.8305642769928483
906,2.0424986360012554e-06,1.0,1.6041468381881714,0.8305642769928483
907,1.001562736746564e-06,1.0,1.6100291013717651,0.8305642769928483
908,9.313184818893205e-07,1.0,1.602495789527893,0.8305642769928483
909,1.788120471246657e-06,1.0,1.6074784994125366,0.8305642769928483
910,1.2346599760348909e-06,1.0,1.6158136129379272,0.8305642769928483
911,2.2329677449306473e-06,1.0,1.6086605787277222,0.8415532879818594
912,5.917871703786659e-07,1.0,1.6075468063354492,0.8415532879818594
913,2.5746437586349202e-06,1.0,1.6082948446273804,0.8415532879818594
914,4.782757514476543e-06,1.0,1.556958556175232,0.8305642769928483
915,1.91050617104338e-06,1.0,1.5446325540542603,0.8305642769928483
916,2.932219786089263e-06,1.0,1.5563486814498901,0.8305642769928483
917,2.0520849375316175e-06,1.0,1.5683354139328003,0.8305642769928483
918,1.6050470321715693e-06,1.0,1.6034423112869263,0.8305642769928483
919,1.152704726337106e-06,1.0,1.624924898147583,0.8305642769928483
920,1.5369296306744218e-06,1.0,1.6306922435760498,0.8305642769928483
921,1.3730266346101416e-06,1.0,1.6452912092208862,0.8305642769928483
922,1.966903710126644e-06,1.0,1.6388803720474243,0.8305642769928483
923,8.876801302903914e-07,1.0,1.625312089920044,0.8305642769928483
924,1.5156485915213125e-06,1.0,1.617605209350586,0.8305642769928483
925,8.695843689565663e-07,1.0,1.616021752357483,0.8305642769928483
926,2.192561851188657e-06,1.0,1.6071388721466064,0.8305642769928483
927,9.95180130303197e-07,1.0,1.6046744585037231,0.8305642769928483
928,9.121591801886098e-07,1.0,1.6068073511123657,0.8305642769928483
929,1.382591221954499e-06,1.0,1.6303014755249023,0.8305642769928483
930,9.983738209484727e-07,1.0,1.6332746744155884,0.8415532879818594
931,2.420316604911932e-06,1.0,1.6407431364059448,0.8305642769928483
932,1.785991116776131e-06,1.0,1.6263620853424072,0.8305642769928483
933,1.473070142310462e-06,1.0,1.6304666996002197,0.8305642769928483
934,1.0388151849838323e-06,1.0,1.6305925846099854,0.8305642769928483
935,7.950807230372448e-07,1.0,1.6259912252426147,0.8305642769928483
936,1.4517414683723473e-06,1.0,1.6122677326202393,0.8305642769928483
937,7.962040399434045e-06,1.0,1.6328388452529907,0.835326181754753
938,3.0556263936887262e-06,1.0,1.621699571609497,0.835326181754753
939,1.3751424603469786e-06,1.0,1.5974303483963013,0.835326181754753
940,8.238179134423262e-07,1.0,1.5842050313949585,0.835326181754753
941,1.23783104299946e-06,1.0,1.5787856578826904,0.835326181754753
942,9.557974181007012e-07,1.0,1.581530213356018,0.835326181754753
943,1.4390116120921448e-06,1.0,1.5833991765975952,0.835326181754753
944,1.305963678532862e-06,1.0,1.59487783908844,0.835326181754753
945,2.9801672098983545e-06,1.0,1.5853410959243774,0.835326181754753
946,2.3724330731056398e-06,1.0,1.5767631530761719,0.835326181754753
947,8.407142559008207e-06,1.0,1.6482619047164917,0.8305642769928483
948,1.1910057082786807e-06,1.0,1.6713989973068237,0.8305642769928483
949,1.3155441820345004e-06,1.0,1.6588982343673706,0.8305642769928483
950,1.2240151363585028e-06,1.0,1.661600112915039,0.8305642769928483
951,1.3187361673772102e-06,1.0,1.6625303030014038,0.8305642769928483
952,8.514917908541975e-07,1.0,1.6657339334487915,0.8305642769928483
953,1.296384311899601e-06,1.0,1.6653908491134644,0.8305642769928483
954,1.156959228865162e-06,1.0,1.6612588167190552,0.8305642769928483
955,7.429269999192911e-07,1.0,1.6610187292099,0.8305642769928483
956,7.4931250537702e-07,1.0,1.6567466259002686,0.8305642769928483
957,1.0707460660341894e-06,1.0,1.6657744646072388,0.8305642769928483
958,1.1079985142714577e-06,1.0,1.6653410196304321,0.8305642769928483
959,2.2659899059362942e-06,1.0,1.6744003295898438,0.8305642769928483
960,7.961445476212248e-07,1.0,1.6718342304229736,0.8415532879818594
961,1.917960844366462e-06,1.0,1.6596490144729614,0.8415532879818594
962,1.047323507918918e-06,1.0,1.6486726999282837,0.8305642769928483
963,1.1133137149954564e-06,1.0,1.6427104473114014,0.8305642769928483
964,3.3461819839430973e-06,1.0,1.604921579360962,0.8305642769928483
965,1.6880621842574328e-06,1.0,1.61026132106781,0.8305642769928483
966,1.2900087540401728e-06,1.0,1.6130361557006836,0.8305642769928483
967,7.929522212180018e-07,1.0,1.6065332889556885,0.8305642769928483
968,1.4230261058401084e-06,1.0,1.6192724704742432,0.8305642769928483
969,7.471842877748713e-07,1.0,1.631321668624878,0.8305642769928483
970,6.662917257926892e-07,1.0,1.6324031352996826,0.8305642769928483
971,4.3000423488592787e-07,1.0,1.6306122541427612,0.8305642769928483
972,8.355243039659399e-07,1.0,1.642331838607788,0.8305642769928483
973,6.396834351107827e-07,1.0,1.6398016214370728,0.8305642769928483
974,1.0217819408353535e-06,1.0,1.6466890573501587,0.835326181754753
975,9.206729032484873e-07,1.0,1.6441551446914673,0.8305642769928483
976,8.706488756615727e-07,1.0,1.6405532360076904,0.8305642769928483
977,7.141880473682249e-07,1.0,1.6504738330841064,0.8415532879818594
978,7.35476930913137e-07,1.0,1.6493690013885498,0.8415532879818594
979,7.674065614082792e-07,1.0,1.645663857460022,0.8415532879818594
980,1.526287519482139e-06,1.0,1.651094675064087,0.835326181754753
981,1.8434055846228148e-06,1.0,1.6779590845108032,0.8305642769928483
982,5.194102641326026e-07,1.0,1.674798607826233,0.8415532879818594
983,1.6955094679360627e-06,1.0,1.6640100479125977,0.8415532879818594
984,4.811075541510945e-06,1.0,1.6857355833053589,0.835326181754753
985,1.001564783109643e-06,1.0,1.688750147819519,0.8463151927437641
986,1.3474848401529016e-06,1.0,1.6827605962753296,0.8415532879818594
987,6.843821438451414e-07,1.0,1.6745754480361938,0.8415532879818594
988,1.5188433053481276e-06,1.0,1.6610413789749146,0.8415532879818594
989,1.2665894928431953e-06,1.0,1.6537789106369019,0.8415532879818594
990,1.1686694278978393e-06,1.0,1.6486748456954956,0.8415532879818594
991,1.7136188716904144e-06,1.0,1.6449487209320068,0.8415532879818594
992,1.9360634269105503e-06,1.0,1.6526991128921509,0.8415532879818594
993,8.01465660060785e-07,1.0,1.6472911834716797,0.8415532879818594
994,1.2016623713861918e-06,1.0,1.6440874338150024,0.8415532879818594
995,8.717118475942698e-07,1.0,1.6207878589630127,0.8415532879818594
996,6.428771257560584e-07,1.0,1.614729642868042,0.8415532879818594
997,8.844867807056289e-07,1.0,1.6104668378829956,0.8415532879818594
998,2.977960548378178e-06,1.0,1.6154531240463257,0.8415532879818594
999,6.003021439937584e-07,1.0,1.6131404638290405,0.8415532879818594
