,loss,recall,val_loss,val_recall
0,1.9156713485717773,0.51953125,0.9637660980224609,0.581781914893617
1,1.2547597885131836,0.33203125,0.9289300441741943,0.581781914893617
2,1.114776372909546,0.44140625,0.9208919405937195,0.581781914893617
3,1.106431484222412,0.45703125,0.9066669940948486,0.581781914893617
4,1.065638542175293,0.51953125,0.8869985938072205,0.5853280141843973
5,1.0478782653808594,0.50390625,0.8494766354560852,0.7100702858016698
6,0.9785795211791992,0.5536221590909091,0.7757592797279358,0.700673014436313
7,0.8865476846694946,0.6803469967532468,0.6353987455368042,0.6597281707654054
8,0.7607629299163818,0.63671875,0.560227632522583,0.6865395685874418
9,0.6532448530197144,0.6848958333333334,0.5304885506629944,0.6844920101569044
10,0.6135305762290955,0.6850818452380953,0.5274240970611572,0.6845187466198112
11,0.6013311743736267,0.6694568452380953,0.5269623398780823,0.6900311715471297
12,0.5832613706588745,0.6538318452380953,0.528869092464447,0.6917993501770104
13,0.5735241174697876,0.7005208333333334,0.5216907858848572,0.6826961257812328
14,0.5692243576049805,0.6538318452380953,0.5280794501304626,0.6917993501770104
15,0.5559109449386597,0.6848958333333334,0.5272863507270813,0.6918092004528181
16,0.5648351907730103,0.7161458333333333,0.522063672542572,0.6862373540565037
17,0.5604674220085144,0.6692708333333334,0.5231029987335205,0.6880690576169307
18,0.5562567114830017,0.6536458333333334,0.5215803384780884,0.6917742767476818
19,0.5381280779838562,0.6848958333333334,0.5222423672676086,0.6900361508074281
20,0.5488826632499695,0.6848958333333334,0.5225415825843811,0.6935822500982082
21,0.5331851840019226,0.6692708333333334,0.5183088779449463,0.6882034976449878
22,0.5398035049438477,0.7161458333333333,0.5091089606285095,0.6796533819805102
23,0.5339677929878235,0.7005208333333334,0.5143201351165771,0.6827547796962699
24,0.5392358303070068,0.7317708333333333,0.510471761226654,0.6827330643155118
25,0.5445568561553955,0.6848958333333334,0.5060330629348755,0.6809803868314513
26,0.5331218242645264,0.6850818452380953,0.5065407156944275,0.6827547796962699
27,0.5270160436630249,0.7161458333333333,0.5050411820411682,0.6828229739134003
28,0.5149359107017517,0.6848958333333334,0.4970356225967407,0.680995865836292
29,0.5244110822677612,0.6848958333333334,0.5033478140830994,0.6882034976449878
30,0.5176878571510315,0.7005208333333334,0.493125855922699,0.6760650672219827
31,0.5162926912307739,0.7005208333333334,0.4955121576786041,0.6828199258385436
32,0.5201668739318848,0.6692708333333334,0.49218374490737915,0.6809381713637039
33,0.5202212929725647,0.6850818452380953,0.4941520690917969,0.6846869491816309
34,0.5299332737922668,0.6848958333333334,0.4887694716453552,0.6811017686017694
35,0.5046149492263794,0.7005208333333334,0.48022404313087463,0.6810169735701658
36,0.5050308704376221,0.7005208333333334,0.4784763753414154,0.682761879570391
37,0.500099241733551,0.7161458333333333,0.4840790629386902,0.6846869491816309
38,0.49204349517822266,0.7005208333333334,0.47897791862487793,0.6846527930304535
39,0.4896712899208069,0.7317708333333333,0.4780910015106201,0.6828300737875214
40,0.5008821487426758,0.7005208333333334,0.4783531725406647,0.6829882858473292
41,0.5048142671585083,0.7161458333333333,0.4712839722633362,0.6759781368159036
42,0.4848969280719757,0.7161458333333333,0.47890859842300415,0.6653299886677553
43,0.48606032133102417,0.6692708333333334,0.47876662015914917,0.6654003477806677
44,0.47637659311294556,0.7317708333333333,0.46662500500679016,0.6653210338715666
45,0.47271284461021423,0.7005208333333334,0.4710197150707245,0.656978659638235
46,0.4825053811073303,0.7163318452380952,0.49701541662216187,0.6084972090557201
47,0.4823903441429138,0.6848958333333334,0.47766751050949097,0.6359057240041288
48,0.4662945866584778,0.7473958333333333,0.46364641189575195,0.6378409538648905
49,0.4611547291278839,0.6848958333333334,0.46347081661224365,0.6357281582680522
50,0.4598981738090515,0.7473958333333333,0.4580027163028717,0.6339251297363003
51,0.4692712128162384,0.7267485119047619,0.47103115916252136,0.5835405118915762
52,0.45886313915252686,0.6850818452380953,0.4819060266017914,0.5691094779924571
53,0.4635147452354431,0.6848958333333334,0.4594982862472534,0.5906622613005597
54,0.4541773796081543,0.6953124999999999,0.4715803861618042,0.5781442375591318
55,0.4435211718082428,0.6538318452380953,0.46759453415870667,0.5763335728495308
56,0.4402596354484558,0.7317708333333333,0.4849134385585785,0.5445198339879195
57,0.444219172000885,0.7163318452380952,0.4775839149951935,0.5567841309596634
58,0.45700663328170776,0.7317708333333333,0.4594464600086212,0.5779887439195954
59,0.4315563142299652,0.6850818452380953,0.4723123610019684,0.5585529590582787
60,0.45510393381118774,0.6902901785714286,0.46350860595703125,0.5673091506602148
61,0.43468260765075684,0.7163318452380952,0.47562524676322937,0.5461522195298796
62,0.43485987186431885,0.711123511904762,0.4749322831630707,0.5463865153758776
63,0.42847248911857605,0.7027901785714286,0.46617406606674194,0.5583974654187425
64,0.4383334517478943,0.6852964743589743,0.46401602029800415,0.5638763295412237
65,0.4241676926612854,0.715625,0.4650828540325165,0.5621032798958336
66,0.4148437976837158,0.6869791666666666,0.4629901051521301,0.5571208534373433
67,0.41210871934890747,0.6720610119047619,0.46288055181503296,0.5619836694038828
68,0.4326222538948059,0.692588141025641,0.47495561838150024,0.5480209575688303
69,0.42780160903930664,0.6921875,0.466572642326355,0.5565414461425106
70,0.41984057426452637,0.7052083333333333,0.4835195243358612,0.5257865209062019
71,0.41297972202301025,0.7293526785714286,0.47989749908447266,0.542937969241161
72,0.41080498695373535,0.7524839743589744,0.4907591640949249,0.5273726859232181
73,0.41739335656166077,0.7494791666666666,0.4832189381122589,0.5435480639337026
74,0.41607800126075745,0.7371651785714286,0.46826374530792236,0.5464136036343488
75,0.4233998656272888,0.7059151785714285,0.47748175263404846,0.54307516951134
76,0.398357093334198,0.7241443452380952,0.47867321968078613,0.5430275172030494
77,0.4345729649066925,0.7290464743589743,0.49188512563705444,0.5329801448551452
78,0.4193529188632965,0.7498798076923077,0.478548139333725,0.5440606595925749
79,0.4123506546020508,0.770713141025641,0.48666006326675415,0.5402671102538128
80,0.40216487646102905,0.7373798076923077,0.4748169779777527,0.5441833255397088
81,0.4031447470188141,0.7446714743589743,0.47533437609672546,0.5440082395933462
82,0.40080881118774414,0.7608173076923077,0.47748997807502747,0.5598201266818293
83,0.39335954189300537,0.766025641025641,0.4810406267642975,0.5641294599805243
84,0.3843989074230194,0.8095610119047619,0.4744665026664734,0.5657045299066581
85,0.39265599846839905,0.7475818452380952,0.47623106837272644,0.5634393994500384
86,0.3897872269153595,0.7399839743589743,0.5022518038749695,0.5251601732585778
87,0.38969504833221436,0.7397693452380952,0.47464659810066223,0.565116598334684
88,0.3830927312374115,0.7656249999999999,0.47166353464126587,0.5633832204044975
89,0.3880949020385742,0.7915464743589743,0.49457433819770813,0.5283925033792058
90,0.4064525067806244,0.6934151785714286,0.46793365478515625,0.5637856745303558
91,0.40302640199661255,0.7598958333333332,0.4905974268913269,0.5465517033203207
92,0.39904212951660156,0.7712339743589743,0.46556469798088074,0.5721519684019689
93,0.3923242688179016,0.7864583333333333,0.4694982171058655,0.5662559829847069
94,0.4057665765285492,0.7662760416666666,0.46542996168136597,0.5713814819931846
95,0.3915852904319763,0.7553943452380952,0.46473610401153564,0.5689170728798394
96,0.39958882331848145,0.7005208333333333,0.4684380888938904,0.5780296604498737
97,0.3846309185028076,0.7610677083333333,0.4793182611465454,0.5496925060754851
98,0.3785901665687561,0.7553943452380952,0.4732995331287384,0.5652374861151462
99,0.3817822337150574,0.750186011904762,0.45929422974586487,0.5768507989252676
100,0.3723364472389221,0.7939360119047619,0.4508383572101593,0.5931232198652415
101,0.3815463185310364,0.7319568452380952,0.4566754698753357,0.5844542278052923
102,0.359357625246048,0.7582131410256411,0.4543427526950836,0.5889502479396101
103,0.3705349564552307,0.7501302083333332,0.44924572110176086,0.5998420600282304
104,0.37095874547958374,0.7301136363636364,0.4569307565689087,0.5912886601184476
105,0.3760680556297302,0.7345610119047619,0.4565282464027405,0.5970703518309906
106,0.3723263740539551,0.7762276785714286,0.45971444249153137,0.5927074599946947
107,0.37687698006629944,0.7319568452380952,0.46533384919166565,0.5731294729698989
108,0.3792174756526947,0.7319568452380952,0.4736618399620056,0.5632772000458177
109,0.36803752183914185,0.7451923076923076,0.46742701530456543,0.5725028492980626
110,0.3722100257873535,0.7509469696969696,0.45984458923339844,0.5947385297917217
111,0.3628302216529846,0.7790464743589743,0.4660874903202057,0.5925175120387891
112,0.35771337151527405,0.7900094696969696,0.46536967158317566,0.578287765721277
113,0.39669376611709595,0.7451923076923077,0.4761490821838379,0.5792979602155142
114,0.3660719096660614,0.765811011904762,0.479070782661438,0.5686780737977551
115,0.37602299451828003,0.7194010416666665,0.48095041513442993,0.5638757666683204
116,0.35432350635528564,0.8064236111111112,0.48007553815841675,0.5674527157239928
117,0.3592945337295532,0.748342803030303,0.4921407997608185,0.5559656433991544
118,0.3626860976219177,0.7512152777777777,0.49295541644096375,0.5565799596384706
119,0.355444997549057,0.7643229166666666,0.5018633604049683,0.5522022426942643
120,0.3751063048839569,0.7513020833333333,0.4965924024581909,0.550574793114687
121,0.38742753863334656,0.7085193452380953,0.48799851536750793,0.5679694492859393
122,0.36056968569755554,0.7647569444444444,0.48217058181762695,0.5690852311596997
123,0.36617177724838257,0.7457386363636362,0.4918738007545471,0.5647253529567365
124,0.37529653310775757,0.724905303030303,0.5061241388320923,0.5452838591668381
125,0.3585195541381836,0.7591145833333333,0.5058174133300781,0.5456480379352723
126,0.33624282479286194,0.7955729166666666,0.49720409512519836,0.5611875343923223
127,0.3657790422439575,0.7613636363636362,0.5096147060394287,0.5418994938276857
128,0.35466694831848145,0.7330729166666665,0.48149600625038147,0.5694274795338631
129,0.36194536089897156,0.8142361111111112,0.477927565574646,0.5696083024540477
130,0.34603554010391235,0.7491319444444444,0.48702412843704224,0.5584514849807407
131,0.35215842723846436,0.724905303030303,0.4929925799369812,0.5657038858501632
132,0.35347822308540344,0.7379261363636362,0.4849450886249542,0.5729237591604619
133,0.35729220509529114,0.7591145833333333,0.4988918900489807,0.5461619753375077
134,0.35856732726097107,0.728298611111111,0.4899122416973114,0.5660486455034334
135,0.3341245651245117,0.7842548076923076,0.5084001421928406,0.5570406765220601
136,0.33790791034698486,0.7376302083333334,0.48070117831230164,0.5743845668712696
137,0.3442995846271515,0.779592803030303,0.4869537651538849,0.5688792737994871
138,0.3587837815284729,0.7272135416666666,0.49334433674812317,0.5642471816009055
139,0.3504047393798828,0.7379261363636364,0.49276217818260193,0.5655814609936957
140,0.3278912901878357,0.7960069444444444,0.48281538486480713,0.5757238083035962
141,0.3574554920196533,0.7845052083333333,0.49775412678718567,0.5538696454254969
142,0.33967772126197815,0.818655303030303,0.49875396490097046,0.5615659581750012
143,0.33620685338974,0.7278645833333333,0.47851577401161194,0.5735744456489144
144,0.33618035912513733,0.7486979166666666,0.47950127720832825,0.5679075603277737
145,0.33414384722709656,0.7431344696969696,0.48074284195899963,0.5758767754113506
146,0.36215341091156006,0.7196969696969696,0.4962722957134247,0.5624587611954639
147,0.3319220542907715,0.795217803030303,0.5291871428489685,0.534007961601047
148,0.3387470841407776,0.7955729166666666,0.5177183151245117,0.5429744531473258
149,0.3375018835067749,0.7690104166666666,0.49557676911354065,0.5652700948578614
150,0.3478127121925354,0.7621744791666666,0.5003119111061096,0.5706756501969273
151,0.34115463495254517,0.7096354166666665,0.49348124861717224,0.5730318686435714
152,0.35069966316223145,0.7070312499999999,0.493526428937912,0.5646975611071362
153,0.34698885679244995,0.732142857142857,0.5051257610321045,0.5621307524233062
154,0.35061487555503845,0.6694010416666667,0.49188950657844543,0.5715783034931978
155,0.3287644386291504,0.7431344696969696,0.49287596344947815,0.5954334967632846
156,0.32284218072891235,0.7330729166666666,0.48409777879714966,0.5861750493399437
157,0.37102705240249634,0.693655303030303,0.48236942291259766,0.5775963078489681
158,0.3323709964752197,0.7408854166666666,0.4930155575275421,0.5739433709513502
159,0.3458020091056824,0.7647569444444444,0.49714741110801697,0.5701065802794534
160,0.3407740294933319,0.7387152777777777,0.4937951862812042,0.5857609588992574
161,0.33205166459083557,0.759548611111111,0.49022743105888367,0.5739546284094162
162,0.3419903516769409,0.7705078124999999,0.5100550055503845,0.5631148815723289
163,0.3171367645263672,0.7960069444444444,0.4988725781440735,0.5633180353925042
164,0.33287525177001953,0.7434895833333333,0.4989043176174164,0.5650884871629557
165,0.33273327350616455,0.7252604166666666,0.5062066316604614,0.5598336897539031
166,0.33796754479408264,0.7303819444444444,0.49596938490867615,0.568875295803488
167,0.3270471394062042,0.7821969696969696,0.5004510879516602,0.5598756887320724
168,0.3279002904891968,0.7900094696969697,0.4970368444919586,0.5660376857185374
169,0.3543611764907837,0.7608428030303029,0.4934716522693634,0.5739260247238976
170,0.33879271149635315,0.7444661458333333,0.5101639032363892,0.5652335351803442
171,0.3427172005176544,0.7387152777777777,0.5243762731552124,0.5600256835363224
172,0.3226344585418701,0.7900094696969696,0.5157102346420288,0.548185221988414
173,0.3272387385368347,0.7392578124999999,0.5151438117027283,0.5477661252262319
174,0.3686171770095825,0.6783854166666666,0.5251938700675964,0.5436390146496533
175,0.3302658200263977,0.7851562499999999,0.5139120221138,0.5595422352470231
176,0.31908249855041504,0.7621744791666666,0.5047346353530884,0.5625188370534121
177,0.3403855264186859,0.6897786458333333,0.5080718398094177,0.5630276146233597
178,0.32053637504577637,0.7444661458333333,0.4984230697154999,0.5809308599202223
179,0.3148219585418701,0.7887369791666666,0.4996294379234314,0.5641831548081555
180,0.31916922330856323,0.7699652777777777,0.5030389428138733,0.5703199036975639
181,0.3158521056175232,0.751736111111111,0.5010765194892883,0.5694507792247159
182,0.3136126399040222,0.8168402777777778,0.5119589567184448,0.5722066103715046
183,0.30622398853302,0.8372395833333333,0.510482907295227,0.5706913727525434
184,0.3220231831073761,0.7705078125,0.5019403100013733,0.576692112064453
185,0.336884081363678,0.7574869791666665,0.4968281686306,0.5865182394437721
186,0.34675711393356323,0.7278645833333333,0.5034170150756836,0.5707179197870692
187,0.3179222345352173,0.7705078124999999,0.51231849193573,0.5637325046899521
188,0.3268791139125824,0.7621527777777777,0.5179887413978577,0.56347839463531
189,0.3056815564632416,0.7835286458333333,0.5036473274230957,0.5700547851478708
190,0.305073082447052,0.790798611111111,0.5090925693511963,0.5762091238155074
191,0.32407346367836,0.8028645833333332,0.5061737895011902,0.5786516133590606
192,0.30895283818244934,0.7855902777777778,0.5211570858955383,0.5623871031450823
193,0.33154603838920593,0.7539062499999999,0.5025562644004822,0.572472053655565
194,0.32705971598625183,0.7479166666666667,0.5017726421356201,0.5695712556749797
195,0.3338366150856018,0.743923611111111,0.5239382386207581,0.5502120485897084
196,0.3266204595565796,0.7373511904761904,0.5142214894294739,0.5673729609633872
197,0.29973945021629333,0.759548611111111,0.5210142731666565,0.5656108169804985
198,0.3013838529586792,0.7747395833333333,0.5106481313705444,0.5712827410965715
199,0.3181636333465576,0.7747395833333333,0.4959748089313507,0.5868202424053495
200,0.350568950176239,0.7522786458333333,0.5045530796051025,0.5730557907419616
201,0.31070512533187866,0.7903645833333333,0.5200167298316956,0.5641070316602236
202,0.3277391791343689,0.7900094696969696,0.5147040486335754,0.5626618554810049
203,0.3429134786128998,0.7699652777777777,0.500236988067627,0.5669460489274326
204,0.33119386434555054,0.7382812499999999,0.4980676770210266,0.585305248337164
205,0.30213290452957153,0.7757161458333333,0.49316316843032837,0.5914804782490959
206,0.3263218402862549,0.7256944444444444,0.5064653754234314,0.5626891331678572
207,0.33809852600097656,0.7335069444444444,0.5375694632530212,0.5385700484503678
208,0.3134440779685974,0.7851562499999999,0.5169107913970947,0.5570933376119549
209,0.29909613728523254,0.7278645833333333,0.5164644718170166,0.5745389283687162
210,0.30961328744888306,0.78515625,0.48860427737236023,0.587724475091497
211,0.3063236474990845,0.7288411458333333,0.5143997669219971,0.571461588549355
212,0.30174997448921204,0.7747395833333333,0.49922049045562744,0.5863902670418635
213,0.3184933066368103,0.7569661458333332,0.4930483102798462,0.5768022654059893
214,0.3436521291732788,0.7539062499999999,0.49181950092315674,0.5863899521479314
215,0.32140159606933594,0.7178819444444443,0.4962949752807617,0.5736607438070209
216,0.31705862283706665,0.7092803030303029,0.5049967765808105,0.5871335028249927
217,0.31618237495422363,0.759548611111111,0.5103983283042908,0.5612089397993659
218,0.31016477942466736,0.78203125,0.5133398771286011,0.5732978206781404
219,0.3220866918563843,0.743923611111111,0.4933231770992279,0.5739259273035875
220,0.3224746584892273,0.7509469696969696,0.5015515089035034,0.579128935977341
221,0.3091580271720886,0.7230902777777777,0.5089938640594482,0.5715661259544242
222,0.3109690546989441,0.7626953125,0.5026087760925293,0.5873058555904307
223,0.33025988936424255,0.7647569444444444,0.4982769191265106,0.5706213654351958
224,0.3458932042121887,0.7669270833333333,0.5073782801628113,0.5694405500921464
225,0.3562769293785095,0.7584635416666666,0.5039283633232117,0.5666993319918858
226,0.3090497851371765,0.8069661458333334,0.4976835250854492,0.5865069819857062
227,0.32859528064727783,0.7340494791666666,0.5119888186454773,0.5616833712977336
228,0.31398528814315796,0.7725694444444444,0.5393238067626953,0.54060726212322
229,0.32463541626930237,0.7439236111111112,0.5336949229240417,0.557596724591406
230,0.3144405484199524,0.7699652777777777,0.5053467750549316,0.5685212270983554
231,0.31508901715278625,0.7621527777777777,0.4964699447154999,0.5696772002623073
232,0.33275872468948364,0.7548828124999999,0.5201846361160278,0.5634369368810863
233,0.30434831976890564,0.7673828124999998,0.5009365677833557,0.5736799301958881
234,0.3260553181171417,0.7174479166666665,0.5163496732711792,0.581346922876179
235,0.3096805512905121,0.80078125,0.49256667494773865,0.586179325009113
236,0.32021576166152954,0.7139136904761904,0.5002595782279968,0.5769356574276795
237,0.297047883272171,0.7699652777777777,0.5099475979804993,0.5652071180395655
238,0.28407353162765503,0.7548828124999999,0.504645824432373,0.5817789947444209
239,0.2901090383529663,0.806423611111111,0.5011921525001526,0.5897456390142568
240,0.3090812861919403,0.7361328125,0.5093837380409241,0.580226159282011
241,0.3191903233528137,0.7387152777777777,0.51047283411026,0.5761269876695414
242,0.2981630861759186,0.7295386904761904,0.5203233361244202,0.5668450781881638
243,0.29536864161491394,0.7184244791666666,0.5248873233795166,0.5576383717740105
244,0.3071320354938507,0.7303819444444444,0.5212348103523254,0.5627571054831699
245,0.272885262966156,0.7757161458333333,0.49930569529533386,0.5771564010260822
246,0.3321218490600586,0.6871744791666665,0.5069956183433533,0.5728269287843764
247,0.3106917142868042,0.7278645833333331,0.49273204803466797,0.589761469814662
248,0.30000001192092896,0.76640625,0.5105063319206238,0.5813625130779392
249,0.32244235277175903,0.795217803030303,0.49588286876678467,0.5830513212162157
250,0.31098806858062744,0.7413194444444444,0.49583232402801514,0.5813672045055028
251,0.32252615690231323,0.7382812499999999,0.5019401907920837,0.5824898500829359
252,0.278168648481369,0.7855902777777777,0.5064193606376648,0.5802886480147125
253,0.29888179898262024,0.7960069444444444,0.5147618651390076,0.5673356976947408
254,0.3162306845188141,0.7600911458333333,0.5335350632667542,0.5625158278482754
255,0.2999306321144104,0.7543402777777778,0.5157970190048218,0.5770619249741596
256,0.3331003487110138,0.7278645833333333,0.5161263346672058,0.575804098875908
257,0.327614426612854,0.7491319444444444,0.4860588014125824,0.5930133740373108
258,0.32013583183288574,0.7591145833333333,0.4962324798107147,0.5891615771934927
259,0.3078896999359131,0.7335069444444444,0.5015384554862976,0.5732402939849756
260,0.29475095868110657,0.7486979166666665,0.5074751973152161,0.5919996419065576
261,0.2813663184642792,0.8232886904761904,0.5009203553199768,0.5804709647129866
262,0.2936016619205475,0.728298611111111,0.5010430216789246,0.5915528615395645
263,0.29187411069869995,0.7960069444444443,0.5049986839294434,0.5764057991850552
264,0.2942393720149994,0.8059895833333333,0.5111258625984192,0.5755688504757661
265,0.3311809301376343,0.7496744791666665,0.5044668316841125,0.570932563791607
266,0.31960269808769226,0.7444661458333333,0.5050418972969055,0.5728390792619521
267,0.304681658744812,0.7891927083333332,0.5142755508422852,0.5684911025735498
268,0.36574938893318176,0.7506510416666667,0.5391653180122375,0.4783140554284173
269,0.36808857321739197,0.6876302083333333,0.5066198110580444,0.5754145258799519
270,0.31986314058303833,0.7387152777777778,0.4807017147541046,0.5890988636068428
271,0.3105064332485199,0.7226562499999999,0.4938214123249054,0.5905170455037482
272,0.31542491912841797,0.7184244791666665,0.5007064342498779,0.5713078755365996
273,0.28612878918647766,0.7548828124999999,0.4986640214920044,0.598276627332479
274,0.288505882024765,0.8220486111111112,0.5140206217765808,0.5760598488391048
275,0.2709138095378876,0.7600911458333331,0.5055834054946899,0.5754599832791327
276,0.28518882393836975,0.7652994791666665,0.5013964176177979,0.5755045260098458
277,0.28956568241119385,0.790798611111111,0.5110141038894653,0.5692795059550385
278,0.3175966739654541,0.806423611111111,0.4898450970649719,0.5815368782124108
279,0.3130033314228058,0.7379261363636362,0.4928353428840637,0.593711895866152
280,0.3189990222454071,0.728298611111111,0.48397913575172424,0.5858413134343989
281,0.2940543293952942,0.7803819444444444,0.4971419870853424,0.593715538303305
282,0.3136284053325653,0.7799479166666666,0.5033992528915405,0.5766952782245341
283,0.29301559925079346,0.7716145833333332,0.5094640851020813,0.5657456358653173
284,0.339627742767334,0.7091145833333332,0.5045791268348694,0.585515951247335
285,0.2827669382095337,0.7691761363636362,0.5036646127700806,0.5924760965984377
286,0.27959951758384705,0.8012152777777777,0.5030547976493835,0.577379872393171
287,0.29441526532173157,0.7695312499999999,0.498875230550766,0.5796316734880572
288,0.29499661922454834,0.7491319444444444,0.4971926510334015,0.5835543293389045
289,0.27263128757476807,0.822048611111111,0.49865293502807617,0.5849938497278929
290,0.27059292793273926,0.7757161458333333,0.5021118521690369,0.5919028981263031
291,0.27883684635162354,0.7809244791666666,0.4947265684604645,0.590086745405895
292,0.2708601653575897,0.759548611111111,0.49653860926628113,0.5858988184786064
293,0.3371858596801758,0.7230902777777777,0.5096085667610168,0.5715736435550273
294,0.2880871593952179,0.794921875,0.5021046996116638,0.5765915201819461
295,0.302336722612381,0.759548611111111,0.4932052791118622,0.5982779533311458
296,0.2889953553676605,0.7543402777777777,0.49931684136390686,0.5867933976976537
297,0.3220224678516388,0.7444661458333333,0.4976404905319214,0.5706552947643379
298,0.2866748571395874,0.7434895833333333,0.5026400089263916,0.566569811689493
299,0.29832321405410767,0.7799479166666666,0.4985680878162384,0.5786941481489358
300,0.2985632121562958,0.7647569444444444,0.49417394399642944,0.5848910270186872
301,0.2949250340461731,0.8121744791666666,0.4894964098930359,0.5869712168249409
302,0.30842626094818115,0.759548611111111,0.5116518139839172,0.5735044624406334
303,0.29364013671875,0.8069661458333333,0.4998287856578827,0.5819799413549421
304,0.28771817684173584,0.7340494791666666,0.5008563995361328,0.5793860271918789
305,0.3045365512371063,0.6951636904761903,0.5171095132827759,0.5778009834924734
306,0.2816329896450043,0.8105468749999999,0.5165532827377319,0.5732962511286984
307,0.2793000638484955,0.8012152777777777,0.49439501762390137,0.5898142662105434
308,0.26757413148880005,0.790798611111111,0.5098888874053955,0.580552115831372
309,0.29075443744659424,0.7913411458333333,0.5085710883140564,0.5757454031390209
310,0.2841953635215759,0.775173611111111,0.5078820586204529,0.5845558740904492
311,0.3034496009349823,0.7303819444444444,0.5142773389816284,0.5654699905098847
312,0.28456804156303406,0.7444661458333331,0.5006300806999207,0.596890899191432
313,0.2540654242038727,0.7847470238095238,0.5125903487205505,0.5792434904535974
314,0.29529720544815063,0.7913411458333333,0.5056154131889343,0.5972629365315544
315,0.3082708418369293,0.7581845238095237,0.5173108577728271,0.5760913751339288
316,0.2889595925807953,0.7591145833333333,0.5289396047592163,0.5761522923491015
317,0.2929398715496063,0.7903645833333333,0.49262744188308716,0.5887127401755067
318,0.2890743017196655,0.7903645833333333,0.50071120262146,0.5809714290831318
319,0.309198260307312,0.7600911458333333,0.5115874409675598,0.5699556545700167
320,0.2850365936756134,0.7647569444444443,0.5230141282081604,0.5634944714465996
321,0.2842048406600952,0.7600911458333334,0.5049905776977539,0.5939394967719441
322,0.2589172422885895,0.790798611111111,0.49704763293266296,0.600629305190476
323,0.27106529474258423,0.7387152777777777,0.5017529129981995,0.5958428288614463
324,0.27691730856895447,0.7955729166666666,0.5096533298492432,0.5873921237352097
325,0.29863467812538147,0.76953125,0.4882531464099884,0.6044875455513764
326,0.3023126423358917,0.7799479166666666,0.4967877268791199,0.6029107437086169
327,0.3253304362297058,0.743923611111111,0.4953813850879669,0.5823907347577566
328,0.3262215852737427,0.779592803030303,0.5016193985939026,0.5760024249784894
329,0.28370949625968933,0.7855902777777777,0.49173295497894287,0.5919619510709943
330,0.28769195079803467,0.7699652777777777,0.4992198944091797,0.5845928667471225
331,0.28529608249664307,0.8173828124999999,0.5088408589363098,0.577439401614934
332,0.24946025013923645,0.837673611111111,0.5037270188331604,0.5881652596812177
333,0.26364627480506897,0.7444661458333333,0.49809858202934265,0.5860382918893562
334,0.27359703183174133,0.759548611111111,0.5041592121124268,0.5832373984368672
335,0.294499933719635,0.7382812499999999,0.5059296488761902,0.584244913872574
336,0.25867587327957153,0.7335069444444443,0.49637195467948914,0.5876207711713037
337,0.2985978424549103,0.771205357142857,0.5090634226799011,0.5665948703581688
338,0.28242629766464233,0.7809244791666665,0.520334780216217,0.5709609239263499
339,0.26851963996887207,0.7855902777777777,0.5098038911819458,0.5843159278664604
340,0.2509104609489441,0.7444661458333333,0.5130585432052612,0.5740224654187426
341,0.26100513339042664,0.8012152777777777,0.5118804574012756,0.5865902266567165
342,0.2753921449184418,0.7230902777777777,0.5038277506828308,0.5852525104918725
343,0.27181917428970337,0.7679036458333333,0.5206407308578491,0.5730978408903947
344,0.25997626781463623,0.7522786458333333,0.5184847116470337,0.5617725625438396
345,0.28695034980773926,0.7591145833333333,0.5012266039848328,0.6080888865862277
346,0.29108351469039917,0.7960069444444444,0.49936559796333313,0.5829650816086991
347,0.2950153052806854,0.748046875,0.5075758695602417,0.5906101133893693
348,0.2940942943096161,0.7591145833333333,0.5083879232406616,0.5773936194813859
349,0.29948025941848755,0.7955729166666666,0.4977269172668457,0.6057505718276998
350,0.3187902569770813,0.7178819444444444,0.4998856484889984,0.5871322850711155
351,0.2749953866004944,0.7952178030303029,0.5023542642593384,0.5785124105602835
352,0.2684605121612549,0.748342803030303,0.48870226740837097,0.5994921990932635
353,0.2914690673351288,0.7699652777777777,0.5112156867980957,0.5769748420413319
354,0.27219727635383606,0.775173611111111,0.5070646405220032,0.570907694551312
355,0.2542506456375122,0.8116319444444444,0.5001022815704346,0.5842027254660238
356,0.26570925116539,0.7861328124999999,0.4945972263813019,0.5929547388191009
357,0.2596598267555237,0.7799479166666666,0.5066514015197754,0.5856853326933119
358,0.2893066704273224,0.7356770833333333,0.5049540996551514,0.5944666759560384
359,0.2632385790348053,0.7278645833333333,0.5274737477302551,0.5698749310185487
360,0.2622756063938141,0.7955729166666666,0.5031569600105286,0.5846332961758498
361,0.28227245807647705,0.7747395833333333,0.5052700638771057,0.5980537286787292
362,0.28885936737060547,0.7491319444444443,0.5086867213249207,0.5786202169579837
363,0.26846811175346375,0.7924479166666666,0.48886972665786743,0.6141905100415748
364,0.25828656554222107,0.7600911458333333,0.5084969997406006,0.5907499927180785
365,0.27867254614830017,0.7920386904761904,0.5141205787658691,0.5761222248988213
366,0.2740243077278137,0.7903645833333333,0.4976605176925659,0.6037844685850012
367,0.2823781371116638,0.7965494791666666,0.5099287629127502,0.569069562726478
368,0.30895888805389404,0.7512152777777777,0.5062938332557678,0.5893916559209118
369,0.2535400390625,0.775173611111111,0.5024926066398621,0.6005652739695299
370,0.30687010288238525,0.7855902777777777,0.5005921721458435,0.6039709300746543
371,0.28706875443458557,0.7725911458333332,0.5136352181434631,0.5876610338046514
372,0.2890900671482086,0.743923611111111,0.4989648163318634,0.5933840484771341
373,0.27008482813835144,0.7652994791666666,0.5112850069999695,0.5732778224533548
374,0.2770991027355194,0.6710069444444443,0.5057377815246582,0.5829538241506331
375,0.278106689453125,0.7913411458333333,0.5082967281341553,0.5787451043834028
376,0.23805522918701172,0.775173611111111,0.5154194831848145,0.5760599570838939
377,0.26229116320610046,0.7868303571428571,0.5072254538536072,0.5804848146337513
378,0.24212679266929626,0.7600911458333333,0.49851560592651367,0.5881456501536292
379,0.26531746983528137,0.7491319444444444,0.5123104453086853,0.5853267122947979
380,0.25689631700515747,0.7913411458333333,0.4947023093700409,0.6261284120725618
381,0.25844472646713257,0.7652994791666666,0.49475914239883423,0.616126593560105
382,0.2598426938056946,0.7825520833333331,0.48203274607658386,0.614111448047619
383,0.2889096140861511,0.7543402777777777,0.49332481622695923,0.6048671600267355
384,0.2528907060623169,0.7934027777777777,0.49695417284965515,0.5991308184526275
385,0.26889902353286743,0.8277994791666666,0.5076325535774231,0.5878242713748039
386,0.273095965385437,0.7387152777777777,0.50142502784729,0.5836162822598996
387,0.3006442189216614,0.7210286458333331,0.5088013410568237,0.5834366500323953
388,0.24228766560554504,0.7803819444444444,0.5095086693763733,0.582235511730193
389,0.2832149267196655,0.7361979166666667,0.5173901915550232,0.5916048018175686
390,0.27218297123908997,0.7855902777777778,0.508630096912384,0.5907385482917402
391,0.26778489351272583,0.7647569444444444,0.4985286593437195,0.6195273299395647
392,0.2714983820915222,0.7444661458333331,0.49703583121299744,0.6060412740332961
393,0.2777124345302582,0.7399553571428571,0.5314595699310303,0.5817707627282102
394,0.24587713181972504,0.7647569444444444,0.5042806267738342,0.5717765754733843
395,0.2640101909637451,0.7230902777777777,0.49773168563842773,0.5923331810033942
396,0.25141441822052,0.7434895833333333,0.5135307312011719,0.5837217397456763
397,0.2861019968986511,0.7340494791666666,0.5091190934181213,0.6062815946858511
398,0.2520577609539032,0.7757161458333333,0.49996259808540344,0.605641850761532
399,0.2561330199241638,0.7705078124999999,0.507342517375946,0.6276283059926684
400,0.29953283071517944,0.7230902777777777,0.5385953187942505,0.5609088970525147
401,0.2579140067100525,0.7600911458333333,0.5066804885864258,0.585456524858121
402,0.25638994574546814,0.7096354166666665,0.5082230567932129,0.5984435722866579
403,0.26750636100769043,0.7643229166666666,0.5344623923301697,0.5805686231617089
404,0.27000802755355835,0.8164062499999999,0.5217170715332031,0.584509653565505
405,0.2961576581001282,0.7496744791666666,0.5365169644355774,0.5640110032796208
406,0.28544291853904724,0.7282986111111109,0.5007773637771606,0.5899799663496473
407,0.27705755829811096,0.7191220238095237,0.5107582211494446,0.5765110131200561
408,0.26596319675445557,0.782986111111111,0.5083915591239929,0.5786999392451524
409,0.24617743492126465,0.7647569444444444,0.4969654381275177,0.6011748220258862
410,0.25213661789894104,0.7738095238095236,0.5006908774375916,0.5984974240692329
411,0.2883670926094055,0.7659970238095237,0.524254322052002,0.5826695757945765
412,0.2613586187362671,0.7803819444444444,0.5242696404457092,0.5750201305786417
413,0.2320093810558319,0.7816220238095236,0.5081039667129517,0.6089301552466453
414,0.27225616574287415,0.7340494791666666,0.5103659629821777,0.6022963561261441
415,0.24767357110977173,0.7679036458333331,0.522409200668335,0.5895101027813799
416,0.3182819187641144,0.7686011904761904,0.5144242644309998,0.563717487693552
417,0.30467650294303894,0.7613636363636362,0.4933363199234009,0.6154897353434596
418,0.29239174723625183,0.7413194444444444,0.5044543147087097,0.6010368468214217
419,0.24571603536605835,0.7965494791666666,0.4993399679660797,0.6096972417850085
420,0.23406559228897095,0.7784970238095237,0.5174187421798706,0.5876630678226427
421,0.2418273389339447,0.759548611111111,0.5123404264450073,0.6047532963490417
422,0.23208896815776825,0.7783203124999999,0.5010014176368713,0.6012540301503072
423,0.2457353174686432,0.7705078124999999,0.5194970369338989,0.574971853402705
424,0.2684110403060913,0.7366536458333333,0.4960152208805084,0.6191839946893146
425,0.25723937153816223,0.7522786458333331,0.5257379412651062,0.5772520840074037
426,0.24871458113193512,0.7913411458333333,0.5331830978393555,0.5893179067780139
427,0.25088760256767273,0.7574869791666665,0.5029522180557251,0.6000800440694066
428,0.26642927527427673,0.8111979166666666,0.5122403502464294,0.5819893089573945
429,0.24291345477104187,0.775173611111111,0.48609256744384766,0.6406800838050846
430,0.2770363390445709,0.7001953124999999,0.5011481046676636,0.6183166291942895
431,0.23913082480430603,0.7392578124999999,0.511218249797821,0.6141108148156028
432,0.23911400139331818,0.7569444444444443,0.524246335029602,0.5772567114721375
433,0.25684595108032227,0.7803819444444444,0.5080378651618958,0.6037325922698269
434,0.25230446457862854,0.7347470238095237,0.4922083020210266,0.6414847485060257
435,0.25726184248924255,0.7340494791666665,0.5234605073928833,0.5825856024393261
436,0.23040522634983063,0.8012369791666665,0.5284039378166199,0.5765608057230402
437,0.25011536478996277,0.7788411458333333,0.5203468203544617,0.5924497335800533
438,0.23913048207759857,0.8225911458333333,0.5043066143989563,0.6215504791701606
439,0.24410589039325714,0.7591145833333333,0.5361884832382202,0.5758751291065127
440,0.2470303475856781,0.7816220238095236,0.5025457739830017,0.603802825917188
441,0.24033741652965546,0.8121744791666666,0.5510181784629822,0.5528467193759754
442,0.2450234293937683,0.790798611111111,0.5062416791915894,0.6223940750935437
443,0.3053790032863617,0.7686011904761904,0.538544237613678,0.5756590626670421
444,0.2758677303791046,0.803030303030303,0.4956483542919159,0.6278074781798196
445,0.2701878845691681,0.7444661458333333,0.5093663334846497,0.5976832781088106
446,0.24921955168247223,0.8017578124999999,0.5133075714111328,0.5964267283150266
447,0.33641916513442993,0.736111111111111,0.49487411975860596,0.6348527649458506
448,0.2580910921096802,0.751736111111111,0.49262234568595886,0.6047002564023846
449,0.26600363850593567,0.7496744791666665,0.4930771589279175,0.6217555759843001
450,0.2712266445159912,0.7725694444444443,0.5203311443328857,0.5820812087833368
451,0.25875425338745117,0.7861328125,0.4997023344039917,0.6406203597427007
452,0.24289488792419434,0.7934027777777777,0.5295328497886658,0.5748986233427728
453,0.24800395965576172,0.782986111111111,0.5065386295318604,0.6082891837280139
454,0.24808765947818756,0.724330357142857,0.5055651068687439,0.6176656819342996
455,0.24556642770767212,0.7731119791666666,0.4948805570602417,0.6137596687197756
456,0.24000075459480286,0.7913411458333333,0.511970043182373,0.583263404247447
457,0.2540307641029358,0.7920386904761904,0.5130889415740967,0.6152560988066316
458,0.2362915724515915,0.7998511904761904,0.5057517290115356,0.6182127510983901
459,0.23451486229896545,0.8616536458333333,0.5245176553726196,0.5930511145670724
460,0.2860390245914459,0.7460937499999999,0.4989902973175049,0.6329536347222523
461,0.3320847749710083,0.7471788194444444,0.4968626797199249,0.5973526345600819
462,0.299465537071228,0.7353219696969696,0.47708144783973694,0.612034650239438
463,0.29927167296409607,0.822048611111111,0.4903544783592224,0.6282738336328768
464,0.2753780484199524,0.7803819444444443,0.5030195713043213,0.6003310538948845
465,0.2605903744697571,0.7757161458333333,0.49832507967948914,0.5933930869170234
466,0.22186279296875,0.8017578124999999,0.5121607184410095,0.5833555746853623
467,0.23384299874305725,0.7991536458333333,0.5003962516784668,0.6112360128051626
468,0.2371615767478943,0.779017857142857,0.4960097074508667,0.5933645752395755
469,0.26016509532928467,0.7392578124999999,0.49567148089408875,0.6318215467550582
470,0.2356628030538559,0.794642857142857,0.5046905279159546,0.5950791618743749
471,0.22146160900592804,0.8467261904761904,0.5136221051216125,0.5945919250174575
472,0.2309705913066864,0.7764136904761904,0.5331919193267822,0.5821018466364216
473,0.22900056838989258,0.806423611111111,0.5044584274291992,0.6226176374846595
474,0.23917566239833832,0.8225911458333333,0.5022379159927368,0.6076637551770536
475,0.2515486478805542,0.7929687499999999,0.5304746627807617,0.5873630673896637
476,0.26375293731689453,0.7106119791666665,0.5088918209075928,0.5955398246355702
477,0.2591042220592499,0.8268229166666666,0.5169392824172974,0.6221661681502118
478,0.23634257912635803,0.7581845238095236,0.5081068873405457,0.590819404689086
479,0.22586596012115479,0.7855902777777778,0.5216920375823975,0.6137289075188018
480,0.24980643391609192,0.7934027777777777,0.5208013653755188,0.616290070252837
481,0.2586803138256073,0.7591145833333333,0.5279325246810913,0.5736071842853762
482,0.2500253915786743,0.8012152777777777,0.5005221366882324,0.6239531075701296
483,0.235342338681221,0.8284970238095236,0.5369434952735901,0.5858721848482495
484,0.2466183453798294,0.7652994791666666,0.5198613405227661,0.5940647458333637
485,0.2570222318172455,0.7600911458333333,0.5032694339752197,0.6106956917196286
486,0.24761711061000824,0.7652994791666666,0.538546621799469,0.5417858289267871
487,0.2958258390426636,0.7347470238095236,0.5187821388244629,0.5822603809704878
488,0.31223630905151367,0.7731119791666666,0.48941275477409363,0.6309423382960624
489,0.29760462045669556,0.7252604166666665,0.4995954632759094,0.5982667445832346
490,0.27152103185653687,0.7883184523809523,0.486319899559021,0.6166593030688781
491,0.2321091592311859,0.7777777777777777,0.49716493487358093,0.6082431354106893
492,0.23615498840808868,0.7920386904761904,0.5070362091064453,0.5972760710526673
493,0.21497341990470886,0.8095703124999999,0.5208786129951477,0.5756822811743028
494,0.26149991154670715,0.7366536458333333,0.5155252814292908,0.6052548928612764
495,0.22618192434310913,0.8398437499999999,0.4976874589920044,0.6113142860882228
496,0.22883597016334534,0.7705078125,0.5219842791557312,0.6144422603598142
497,0.2292845994234085,0.8173828124999999,0.5108767151832581,0.5967894836644841
498,0.21812614798545837,0.7712053571428571,0.5080235600471497,0.5975747996093744
499,0.20613768696784973,0.7773437499999999,0.5246096849441528,0.595340600101239
500,0.2513717710971832,0.7920386904761904,0.523265540599823,0.5947129008698164
501,0.2225143015384674,0.794642857142857,0.5161455869674683,0.5819123198511499
502,0.26816850900650024,0.751860119047619,0.5333045125007629,0.5872406228523258
503,0.2581954896450043,0.7814360119047618,0.5092957615852356,0.5624395693943568
504,0.27506616711616516,0.6822916666666666,0.5200678706169128,0.56122885142832
505,0.2570262551307678,0.7825520833333333,0.49367931485176086,0.6395500721697538
506,0.22501403093338013,0.8085937499999999,0.510954737663269,0.6136700420344046
507,0.26257556676864624,0.7803819444444444,0.514574408531189,0.6044526685883076
508,0.23317769169807434,0.771205357142857,0.5041217803955078,0.6158106368611691
509,0.2652047574520111,0.7809244791666666,0.5169245004653931,0.6207405006341182
510,0.24793368577957153,0.7856119791666665,0.5044102072715759,0.596336506283315
511,0.22777101397514343,0.7496744791666666,0.511928379535675,0.6188170276335176
512,0.23615683615207672,0.7861328125,0.503329873085022,0.6266073952643109
513,0.25470536947250366,0.7861328124999999,0.5086013674736023,0.5925869879726265
514,0.2050698697566986,0.833705357142857,0.5151104927062988,0.5911462498297606
515,0.24910709261894226,0.7861328124999999,0.5189808011054993,0.5930185870079492
516,0.2636708915233612,0.7705078124999999,0.5019736289978027,0.5998618939177454
517,0.25785475969314575,0.7648809523809523,0.5073269605636597,0.6165020676722812
518,0.24450170993804932,0.7816220238095237,0.5089351534843445,0.5774785050449948
519,0.2368811070919037,0.7731119791666666,0.5338040590286255,0.5973601132909653
520,0.23155741393566132,0.7669270833333331,0.5137466192245483,0.5924951422690786
521,0.26912403106689453,0.7503720238095237,0.5203680396080017,0.6281433076379891
522,0.25483015179634094,0.7543402777777778,0.4957461953163147,0.620075162229418
523,0.24953186511993408,0.7803819444444444,0.5087831616401672,0.6243840866580235
524,0.25490111112594604,0.7705078124999999,0.517875611782074,0.615881246905184
525,0.24744737148284912,0.81640625,0.501375138759613,0.6200284934726431
526,0.2244596779346466,0.822048611111111,0.4990367889404297,0.6189547445265534
527,0.3161603510379791,0.7434895833333333,0.5043593049049377,0.626201233754426
528,0.24728742241859436,0.7851562499999999,0.5008441209793091,0.5979380179513162
529,0.25100696086883545,0.7757161458333333,0.5024750828742981,0.6232770991813552
530,0.2226419746875763,0.7944661458333333,0.4960692226886749,0.6125135925933801
531,0.21679076552391052,0.7939453124999999,0.5118029713630676,0.6029424864930192
532,0.23347793519496918,0.8385416666666666,0.4947306215763092,0.621744616199404
533,0.24437108635902405,0.8232886904761904,0.5134611129760742,0.6059535588524958
534,0.3021853268146515,0.7537760416666666,0.5190746784210205,0.6155611163855849
535,0.3530319929122925,0.685842803030303,0.5489709973335266,0.5331148062929981
536,0.31475889682769775,0.6970486111111109,0.49679720401763916,0.6108764605174183
537,0.27329379320144653,0.7734375,0.5069407224655151,0.6088155609166256
538,0.22940216958522797,0.8272569444444443,0.49749499559402466,0.5922417791034813
539,0.24082034826278687,0.8206845238095237,0.5135087966918945,0.6008788266501041
540,0.2110755741596222,0.8128720238095236,0.4973829984664917,0.6191252989524272
541,0.20100343227386475,0.8111979166666666,0.5079209208488464,0.5976463075931168
542,0.2123396396636963,0.7686011904761904,0.509487509727478,0.5896291720493853
543,0.22935372591018677,0.8050595238095236,0.512671947479248,0.5871916032155398
544,0.24589456617832184,0.7784970238095237,0.5244448184967041,0.6073616242898165
545,0.25088173151016235,0.7366536458333331,0.5264574885368347,0.5955469318900175
546,0.29050976037979126,0.7757161458333333,0.5145848989486694,0.6247365021700135
547,0.2494146227836609,0.8212594696969696,0.5037216544151306,0.6033574040222984
548,0.26972338557243347,0.7607886904761904,0.5146287083625793,0.6200983556435691
549,0.25208958983421326,0.8085937499999999,0.4946860373020172,0.6170436168441492
550,0.25708460807800293,0.7451636904761904,0.4996033012866974,0.5962380256662174
551,0.25349709391593933,0.8242187499999999,0.5174957513809204,0.5889591909272766
552,0.2084115892648697,0.7816220238095236,0.5158820152282715,0.5908143048834542
553,0.20611831545829773,0.7913411458333333,0.5162063241004944,0.5502992668285223
554,0.25485894083976746,0.802455357142857,0.5136674046516418,0.5851598701731685
555,0.22324992716312408,0.8232886904761904,0.5162972807884216,0.6091118072235098
556,0.22480133175849915,0.8076636904761904,0.5244584083557129,0.5928758293518933
557,0.22441095113754272,0.779017857142857,0.5186480283737183,0.6200667038831938
558,0.20310431718826294,0.833705357142857,0.509143590927124,0.592844930876846
559,0.24217122793197632,0.7522786458333333,0.5195319652557373,0.5906170582766332
560,0.29288381338119507,0.6992187499999999,0.540288507938385,0.6170302555010011
561,0.23073920607566833,0.7622767857142856,0.5585309267044067,0.5671901970173255
562,0.19263789057731628,0.818080357142857,0.5419289469718933,0.551203934953935
563,0.2321140021085739,0.732142857142857,0.5317897796630859,0.5798160955474785
564,0.2478034794330597,0.8050595238095236,0.5217248797416687,0.6245646168252558
565,0.22819915413856506,0.763392857142857,0.5619956851005554,0.5013407514471344
566,0.23254333436489105,0.802455357142857,0.5305447578430176,0.584741413039286
567,0.22758299112319946,0.7835286458333333,0.539708137512207,0.5503810310060314
568,0.2220991849899292,0.8356119791666665,0.5430212616920471,0.5909922445560748
569,0.2241649180650711,0.7991536458333333,0.5187340974807739,0.5880949054885226
570,0.2061527520418167,0.8215277777777776,0.522720456123352,0.5604451645675051
571,0.22396525740623474,0.8017578124999999,0.527350902557373,0.578489039034252
572,0.22723104059696198,0.7783203124999999,0.5122336745262146,0.6097851906761487
573,0.2339491844177246,0.790922619047619,0.5208206176757812,0.5903018174693708
574,0.21182957291603088,0.794642857142857,0.5500911474227905,0.5841919925031631
575,0.23327003419399261,0.8251953124999999,0.5233868360519409,0.593858236916748
576,0.25227129459381104,0.7647569444444443,0.5228732228279114,0.6151514802179701
577,0.247845858335495,0.8069661458333333,0.552312970161438,0.5456032836351988
578,0.24367037415504456,0.7757161458333333,0.534637987613678,0.5977866740233767
579,0.22524529695510864,0.8017578124999999,0.5060200691223145,0.6219616912835004
580,0.28194430470466614,0.8038411458333332,0.5650224089622498,0.6075609472285011
581,0.2561068534851074,0.7773437499999999,0.5123145580291748,0.6091418377721575
582,0.20804542303085327,0.8311011904761904,0.5353119373321533,0.5993708758735361
583,0.22570833563804626,0.7835286458333333,0.5100495219230652,0.6225837839268695
584,0.21189573407173157,0.8085937499999999,0.5323801040649414,0.6130287064196646
585,0.23250973224639893,0.739955357142857,0.5271379947662354,0.5485862418708163
586,0.3159731924533844,0.7934027777777778,0.5337864756584167,0.6241512865582024
587,0.2938523292541504,0.7658110119047619,0.503655195236206,0.6105692076835697
588,0.2907198667526245,0.6263020833333333,0.5237855911254883,0.620743489666363
589,0.2532603144645691,0.8164062499999999,0.49052974581718445,0.6150697150564176
590,0.2771172821521759,0.7451636904761904,0.5255467295646667,0.631925200981053
591,0.2113427221775055,0.8382161458333333,0.5146817564964294,0.6048417598949519
592,0.22326962649822235,0.7314453124999999,0.5169552564620972,0.6284096562421037
593,0.21306544542312622,0.7981770833333331,0.530262291431427,0.6015280523259253
594,0.2129904180765152,0.7861328124999999,0.5308272242546082,0.5976515038350151
595,0.21796539425849915,0.7721354166666665,0.5189549326896667,0.6251222226355212
596,0.20076650381088257,0.833705357142857,0.5167689323425293,0.6188238372147952
597,0.21420758962631226,0.8154761904761904,0.529848039150238,0.6194393195457033
598,0.24513596296310425,0.7399553571428569,0.5078507661819458,0.5842827183651653
599,0.24146953225135803,0.7630208333333333,0.534948468208313,0.6064945023455671
600,0.22691981494426727,0.7548828124999999,0.5085105299949646,0.6064876214211323
601,0.22139741480350494,0.7705078124999999,0.5424736142158508,0.6008406039390091
602,0.23594462871551514,0.8154761904761904,0.5067594647407532,0.6264793515192456
603,0.24203595519065857,0.8210937499999998,0.546746015548706,0.5982174833637608
604,0.18737182021141052,0.7965494791666666,0.530183732509613,0.5731522437373504
605,0.20922508835792542,0.7682291666666666,0.5463840961456299,0.6006908767946008
606,0.21566849946975708,0.8486328124999999,0.5191039443016052,0.6051484980740304
607,0.21922776103019714,0.8619791666666666,0.5453196167945862,0.6322075255319944
608,0.23108643293380737,0.7764136904761904,0.5232345461845398,0.6249857259564712
609,0.20258456468582153,0.8251953124999999,0.5398730635643005,0.62196953903071
610,0.20995751023292542,0.864955357142857,0.5226022005081177,0.5800686188319171
611,0.2515169084072113,0.8590494791666666,0.5322023034095764,0.6078697081090706
612,0.23462480306625366,0.810267857142857,0.5210824608802795,0.62106107987757
613,0.3158279359340668,0.7965494791666667,0.5280093550682068,0.6315651148496902
614,0.21133920550346375,0.8304036458333333,0.5017255544662476,0.6331850891425365
615,0.21622753143310547,0.7998511904761904,0.5122217535972595,0.6138112547421064
616,0.22307553887367249,0.7652994791666665,0.5190175175666809,0.5747110429956178
617,0.19865310192108154,0.7626953124999999,0.5396413803100586,0.5987192545437233
618,0.2175370156764984,0.8206845238095237,0.5266988277435303,0.6169681672740189
619,0.18887925148010254,0.8346354166666665,0.5435010194778442,0.5680049334038697
620,0.18735487759113312,0.8307291666666666,0.554705798625946,0.5797608857848223
621,0.22160375118255615,0.798611111111111,0.5511959195137024,0.5719547882180862
622,0.20937049388885498,0.8154761904761905,0.5345947742462158,0.5578827181486758
623,0.24014219641685486,0.7875,0.5441946387290955,0.6164166330123786
624,0.22536471486091614,0.7960069444444444,0.5342786908149719,0.599772754333925
625,0.21322496235370636,0.7842261904761904,0.5333247184753418,0.6255092518789335
626,0.23342403769493103,0.7548828124999999,0.5213378071784973,0.6277391043747431
627,0.2232690453529358,0.8343749999999999,0.5412362217903137,0.621663503950739
628,0.2495059072971344,0.7418619791666666,0.5033494830131531,0.6190078361354959
629,0.29052025079727173,0.7576636904761903,0.5242468118667603,0.6447624277810456
630,0.24042688310146332,0.8012152777777777,0.5095516443252563,0.6404508311822148
631,0.25714874267578125,0.818080357142857,0.5382488965988159,0.6348393696532002
632,0.21844585239887238,0.8324652777777778,0.5241871476173401,0.5874682030932035
633,0.2900601327419281,0.7465277777777777,0.5034328699111938,0.6540515084797005
634,0.20435121655464172,0.802455357142857,0.5293304324150085,0.6229243220333651
635,0.21024097502231598,0.7805059523809523,0.5148195624351501,0.6178147350088848
636,0.2056388109922409,0.8408203124999999,0.5482265949249268,0.5924896414657058
637,0.21008527278900146,0.7877604166666665,0.5309540033340454,0.5730626588738292
638,0.19771507382392883,0.8720703124999999,0.5410991311073303,0.5846665297862111
639,0.19921821355819702,0.8164062499999999,0.561568021774292,0.5396091172420964
640,0.21374040842056274,0.7835286458333333,0.5363959670066833,0.5618245495639117
641,0.2265377938747406,0.7726934523809522,0.5324895977973938,0.5844971414519291
642,0.2620176374912262,0.7825520833333333,0.538469672203064,0.6138527395575276
643,0.20056438446044922,0.7705078124999999,0.5366384387016296,0.5798242832817301
644,0.2188502699136734,0.8076636904761904,0.5696001052856445,0.611118887023143
645,0.20509740710258484,0.833705357142857,0.5527538657188416,0.5917151327789631
646,0.2080649882555008,0.8164062499999999,0.5271408557891846,0.5825006819421716
647,0.1970328986644745,0.7939453124999999,0.5565344095230103,0.575663116926415
648,0.21706396341323853,0.7731119791666666,0.5550697445869446,0.5605360478764737
649,0.1972755640745163,0.8154761904761904,0.551984965801239,0.5555636562019547
650,0.20625178515911102,0.8311011904761904,0.5303739905357361,0.6027867763639051
651,0.2046515792608261,0.8033854166666665,0.5253775715827942,0.5962863077623722
652,0.2380022555589676,0.822172619047619,0.5224558711051941,0.5676294100895165
653,0.2214033007621765,0.771205357142857,0.5465209484100342,0.6005936114712717
654,0.226808562874794,0.7920386904761904,0.5514155030250549,0.5342945810100067
655,0.22689872980117798,0.739955357142857,0.5375590324401855,0.5893799925448866
656,0.21357661485671997,0.818080357142857,0.5430698394775391,0.5670455204763719
657,0.21081404387950897,0.7951636904761903,0.5624521970748901,0.5346000010627672
658,0.22910381853580475,0.833705357142857,0.5673092007637024,0.5146381908084036
659,0.22233235836029053,0.7861328124999999,0.5452256798744202,0.544265475954306
660,0.205373615026474,0.8164062499999999,0.5519710779190063,0.5680591025404859
661,0.25556480884552,0.8069661458333333,0.5740689635276794,0.5459677290794313
662,0.2701972424983978,0.7607886904761904,0.5707808136940002,0.6086178518093418
663,0.2207067906856537,0.7803819444444443,0.5588092803955078,0.5851498058678912
664,0.20327147841453552,0.833705357142857,0.5550730228424072,0.5811229840884099
665,0.16931337118148804,0.8102678571428571,0.5485785603523254,0.5761337578890772
666,0.1974964141845703,0.8304036458333333,0.5583713054656982,0.5675185575850474
667,0.20579493045806885,0.786830357142857,0.534271776676178,0.5495987040933851
668,0.20875290036201477,0.8467261904761904,0.5666428804397583,0.5815724459740423
669,0.21033406257629395,0.794642857142857,0.5231500267982483,0.601583492846791
670,0.22166386246681213,0.7458333333333333,0.5640849471092224,0.5572615544424059
671,0.1922638863325119,0.8098958333333333,0.5613770484924316,0.5452916955975471
672,0.20178765058517456,0.8216145833333333,0.547636091709137,0.5854596152468499
673,0.19529494643211365,0.7965494791666666,0.5384891629219055,0.5639576809124681
674,0.2158968597650528,0.8476562499999999,0.596514105796814,0.5976760798303358
675,0.20887547731399536,0.7835286458333333,0.5581361651420593,0.5504337294895808
676,0.27761930227279663,0.8273809523809523,0.5687704682350159,0.5478711349721991
677,0.2777458429336548,0.7256944444444444,0.5658811926841736,0.5376233346047178
678,0.28005579113960266,0.7434895833333333,0.572424054145813,0.548406684430621
679,0.22319123148918152,0.7939453124999999,0.523062527179718,0.6170330659293429
680,0.19765670597553253,0.8242187499999999,0.5530297160148621,0.5836357786224812
681,0.201003760099411,0.849330357142857,0.5429478883743286,0.5926813311786719
682,0.21002666652202606,0.7991536458333331,0.5382734537124634,0.6076991659837412
683,0.17842543125152588,0.859375,0.5375524163246155,0.5830762613076447
684,0.19936135411262512,0.8076636904761904,0.5350900292396545,0.5854085576558986
685,0.1962873786687851,0.8723958333333333,0.5491482019424438,0.5623793434697693
686,0.19652731716632843,0.8710937499999999,0.5454619526863098,0.5928799278932264
687,0.19468708336353302,0.8154761904761904,0.5417553186416626,0.5814976758859738
688,0.18812477588653564,0.818080357142857,0.5603789687156677,0.5845704748364327
689,0.19457465410232544,0.7929687499999999,0.554057240486145,0.564881074894373
690,0.2195931077003479,0.8138020833333333,0.5514748096466064,0.5703997435779352
691,0.22501181066036224,0.7764136904761904,0.5444495677947998,0.5829180497398586
692,0.2647838294506073,0.779592803030303,0.5324514508247375,0.5990761548341341
693,0.21884159743785858,0.8623511904761904,0.5709296464920044,0.5584480796980801
694,0.1963709443807602,0.8242187499999999,0.5417577624320984,0.5412102200400075
695,0.24185672402381897,0.7981770833333333,0.5732992887496948,0.6005778151123904
696,0.20815975964069366,0.7809244791666665,0.5399951338768005,0.5584892545397867
697,0.20286136865615845,0.7799479166666664,0.5543419718742371,0.5722430145701425
698,0.19164012372493744,0.8216145833333333,0.553729236125946,0.5821984108287303
699,0.229436993598938,0.806547619047619,0.5521198511123657,0.5398494428148687
700,0.21451152861118317,0.8154761904761904,0.5238248109817505,0.6022328705573392
701,0.19993720948696136,0.8363095238095236,0.5538175106048584,0.5776730332315441
702,0.19642353057861328,0.8402777777777777,0.5516971945762634,0.5880840711691779
703,0.2230025976896286,0.8408203124999999,0.5332027077674866,0.5763090160430588
704,0.213626429438591,0.8304036458333333,0.5499566793441772,0.5904327715231976
705,0.2581576704978943,0.8398437499999999,0.5741437673568726,0.5725148959590453
706,0.2268025428056717,0.7835286458333331,0.5259374976158142,0.5653458312766825
707,0.2327786535024643,0.7666666666666666,0.5540632605552673,0.5791528206820766
708,0.18059588968753815,0.8024553571428571,0.5315189957618713,0.5835470769380349
709,0.18993133306503296,0.810267857142857,0.5369675159454346,0.5642681732176416
710,0.21811172366142273,0.7965494791666666,0.5529811382293701,0.5724973676835383
711,0.19527480006217957,0.8346354166666665,0.548158586025238,0.5713778631730764
712,0.1931784451007843,0.8502604166666666,0.5578293800354004,0.573247366305877
713,0.19572652876377106,0.8072916666666666,0.5675565600395203,0.5601794895411919
714,0.2256031185388565,0.7816220238095237,0.5715283155441284,0.5748084406728026
715,0.23076000809669495,0.7816220238095237,0.576143205165863,0.533551962714197
716,0.25889262557029724,0.7106119791666665,0.5435265898704529,0.54364456662329
717,0.19795241951942444,0.8177083333333333,0.579608142375946,0.5620213385904881
718,0.21174512803554535,0.8164062499999999,0.523754358291626,0.5549533770012496
719,0.2206210196018219,0.7887369791666666,0.5570010542869568,0.5697985741602765
720,0.20705363154411316,0.8017578124999999,0.5371702313423157,0.6078458430852053
721,0.19959937036037445,0.8085937499999999,0.5288715958595276,0.5838527061000468
722,0.22049149870872498,0.7903645833333333,0.5399885773658752,0.5655845213690963
723,0.25453922152519226,0.8059895833333331,0.5583395957946777,0.5771480140230145
724,0.22411128878593445,0.7877604166666665,0.5509605407714844,0.559490683666216
725,0.1755078285932541,0.8720703124999999,0.5622504949569702,0.5502412599221114
726,0.18795503675937653,0.8320312499999999,0.5382984280586243,0.5671071289821293
727,0.2052348554134369,0.8090277777777777,0.563788890838623,0.5633780418753827
728,0.23237094283103943,0.7757161458333333,0.5462746024131775,0.5572381096051311
729,0.22406214475631714,0.7965494791666666,0.5692260265350342,0.5335557045397473
730,0.1941687911748886,0.7946428571428571,0.5728849768638611,0.5801460355050784
731,0.24660062789916992,0.7736328124999999,0.519110381603241,0.6097563065382221
732,0.18551397323608398,0.8389136904761904,0.5512241721153259,0.5896486265901161
733,0.19664540886878967,0.7981770833333333,0.5531153678894043,0.5492343275322
734,0.2376086413860321,0.7773437499999999,0.5680109858512878,0.48256528243230373
735,0.18901517987251282,0.7679036458333333,0.5691555142402649,0.4686398678153996
736,0.20848184823989868,0.8333333333333333,0.5577564239501953,0.5715200525439891
737,0.2267436683177948,0.782986111111111,0.517524242401123,0.6233195778807487
738,0.22835855185985565,0.7857142857142856,0.5583056807518005,0.581522115099243
739,0.1868857592344284,0.833705357142857,0.5539865493774414,0.5646457310420078
740,0.19907906651496887,0.7890624999999999,0.5637965798377991,0.47712448800214774
741,0.19513432681560516,0.8164062499999999,0.5683812499046326,0.468908162857631
742,0.2265276461839676,0.7581845238095236,0.5611697435379028,0.6073346491963519
743,0.17208611965179443,0.8111979166666666,0.520379900932312,0.5835986998619982
744,0.2559388279914856,0.7842261904761904,0.5724359154701233,0.6118141752849208
745,0.1790931522846222,0.8216145833333333,0.5322946310043335,0.5696532269936531
746,0.19469645619392395,0.8346354166666666,0.5772519111633301,0.576135002704152
747,0.1860823631286621,0.8238636363636364,0.5761743783950806,0.5459872426627747
748,0.21034552156925201,0.7790178571428571,0.5689029693603516,0.5661410132420773
749,0.23535124957561493,0.7972470238095237,0.5616175532341003,0.5843766650016654
750,0.22709201276302338,0.8232886904761904,0.5614675879478455,0.5665079645531776
751,0.22097545862197876,0.7920386904761904,0.5643258690834045,0.547356176132772
752,0.22139480710029602,0.7399553571428571,0.5582700371742249,0.6019125594657516
753,0.21004962921142578,0.8428819444444444,0.5398418307304382,0.5886982993365975
754,0.18370628356933594,0.8645833333333333,0.5669825673103333,0.568075149830469
755,0.18687602877616882,0.8043619791666666,0.5183770656585693,0.5816825973474912
756,0.2114402949810028,0.8095703124999999,0.545066237449646,0.5760121842302695
757,0.1968231499195099,0.8389136904761904,0.5563021302223206,0.5686377403132725
758,0.1991136074066162,0.7770833333333331,0.550608217716217,0.5829774928578124
759,0.17382384836673737,0.8363095238095237,0.549432635307312,0.5837915207330104
760,0.18042470514774323,0.8284970238095237,0.5745238065719604,0.5658012859874564
761,0.19969946146011353,0.8190104166666666,0.5625269412994385,0.5709183468226025
762,0.27939891815185547,0.7249999999999999,0.5711241364479065,0.5800528195209053
763,0.2581438422203064,0.7230902777777777,0.543491780757904,0.575228501797651
764,0.225862056016922,0.8033854166666665,0.5791078805923462,0.5441934882493397
765,0.21823278069496155,0.786830357142857,0.5422531366348267,0.598480446858107
766,0.19158191978931427,0.8190104166666665,0.5416219234466553,0.588205120824802
767,0.17674699425697327,0.833705357142857,0.5640854835510254,0.5833316747279517
768,0.1722644418478012,0.8076636904761905,0.5476075410842896,0.5726568934414681
769,0.20118527114391327,0.7981770833333334,0.5647445321083069,0.578489496614497
770,0.19771726429462433,0.771205357142857,0.5571441650390625,0.5547831630544396
771,0.237977534532547,0.8125,0.5883924961090088,0.6052208793964118
772,0.2000676989555359,0.8225911458333333,0.5471552014350891,0.605683542226096
773,0.23165276646614075,0.775173611111111,0.5712500214576721,0.5641310787321429
774,0.21042819321155548,0.8033854166666665,0.5568325519561768,0.5778323744813108
775,0.20116779208183289,0.8128720238095237,0.5619522333145142,0.58078149884001
776,0.18017496168613434,0.849330357142857,0.5789856314659119,0.5348096416979397
777,0.18840768933296204,0.7695312499999999,0.5892870426177979,0.5732530516174137
778,0.21351423859596252,0.8128720238095236,0.5668818354606628,0.5368019288630993
779,0.2357538938522339,0.7816220238095237,0.5757306218147278,0.5287451954074296
780,0.2824798822402954,0.6996527777777777,0.5269070863723755,0.597767554057448
781,0.24976608157157898,0.8024553571428571,0.5774164795875549,0.5694433718369893
782,0.1991092711687088,0.7877604166666665,0.5559846758842468,0.5874116176376819
783,0.1514596790075302,0.8776041666666666,0.5573148727416992,0.5727583261891775
784,0.18467995524406433,0.8154761904761904,0.5769250392913818,0.5556115156514094
785,0.1797325611114502,0.8046875,0.5734371542930603,0.5572941361239236
786,0.19634389877319336,0.771205357142857,0.5417073369026184,0.5719438486060828
787,0.20139770209789276,0.7666666666666666,0.554671049118042,0.5460938150698791
788,0.2101798951625824,0.849330357142857,0.5482906699180603,0.5886668389726902
789,0.2061229646205902,0.8389136904761904,0.5724325776100159,0.5555282084936343
790,0.20470169186592102,0.7626953124999999,0.5564681887626648,0.581953064665831
791,0.16739673912525177,0.8450520833333333,0.5629730224609375,0.5727149087122493
792,0.16883404552936554,0.8333333333333333,0.5572994947433472,0.5660848396087761
793,0.21246246993541718,0.7903645833333333,0.581505298614502,0.5523415261846114
794,0.23173582553863525,0.7644314236111109,0.5503329038619995,0.5413764756716886
795,0.2498137205839157,0.8128720238095237,0.578970193862915,0.5560259377147677
796,0.19843387603759766,0.802455357142857,0.5411244630813599,0.5546567567578207
797,0.22297555208206177,0.7252604166666665,0.5359255075454712,0.5795765227680123
798,0.1988057941198349,0.7934027777777777,0.5546998977661133,0.559990913833999
799,0.20773041248321533,0.8258928571428571,0.5577183365821838,0.5760272952028274
800,0.22348609566688538,0.8017578124999999,0.532895028591156,0.5555306169401916
801,0.21404722332954407,0.771205357142857,0.5405353903770447,0.5746834228616147
802,0.1752994954586029,0.8330078125,0.5283613801002502,0.5840351093941523
803,0.2067086100578308,0.7835286458333333,0.558104932308197,0.5660904570213083
804,0.18642932176589966,0.8216145833333331,0.5169686079025269,0.588174835408878
805,0.2108273208141327,0.8346354166666666,0.5634145736694336,0.5794205198859458
806,0.19253207743167877,0.8121744791666666,0.5274659991264343,0.5843540895668557
807,0.18284597992897034,0.8054687499999998,0.5644544959068298,0.5466346837756413
808,0.16045039892196655,0.8242187499999999,0.5720537304878235,0.5625935623674988
809,0.1719253957271576,0.8424479166666665,0.5615441203117371,0.5605847260501516
810,0.18127653002738953,0.8242187499999999,0.565048098564148,0.5599882480600569
811,0.17771568894386292,0.8284970238095236,0.5969762802124023,0.5376129337565508
812,0.22023341059684753,0.7877604166666666,0.5710477828979492,0.5608581769884967
813,0.2250935286283493,0.8082386363636362,0.5685086250305176,0.5671158958260023
814,0.24201342463493347,0.7617187499999999,0.5462018847465515,0.5471960240311305
815,0.2509590983390808,0.7295386904761902,0.5600813031196594,0.5616712705143555
816,0.21303202211856842,0.8111979166666665,0.536436915397644,0.5451214737783886
817,0.25696635246276855,0.7451636904761902,0.5222843885421753,0.5780479051090757
818,0.19393375515937805,0.8190104166666665,0.5613008141517639,0.5618922497911862
819,0.1881108283996582,0.7955729166666665,0.53557288646698,0.5671269732041013
820,0.21358466148376465,0.849330357142857,0.5395879149436951,0.5715818558903669
821,0.1935998499393463,0.8311011904761904,0.5465071201324463,0.5724134459905736
822,0.1697768121957779,0.7794270833333332,0.5372984409332275,0.5750863449001749
823,0.17464479804039001,0.8294270833333331,0.5667216777801514,0.5582151246114013
824,0.16247893869876862,0.8450520833333333,0.5349057912826538,0.5651060183905933
825,0.15590405464172363,0.8857886904761904,0.5606584548950195,0.5749072927663357
826,0.16931430995464325,0.8085937499999999,0.5594741702079773,0.566163158649861
827,0.183499276638031,0.7972470238095237,0.5697754621505737,0.547770272969741
828,0.2120422124862671,0.796875,0.5732316970825195,0.5587429389955989
829,0.1982574462890625,0.8356119791666666,0.5621501803398132,0.5476485856539048
830,0.23191332817077637,0.8085937499999998,0.5508186221122742,0.5574306303428644
831,0.21975702047348022,0.7425595238095237,0.5857692360877991,0.588498242793456
832,0.1802932769060135,0.8173828124999999,0.5574787259101868,0.5605841926985545
833,0.18528343737125397,0.7927083333333332,0.579954981803894,0.565094282687368
834,0.167267307639122,0.8857886904761904,0.571148693561554,0.5813535233482044
835,0.16274425387382507,0.83203125,0.5670188665390015,0.5673469945145478
836,0.22248870134353638,0.8121744791666665,0.5606645941734314,0.5738252065113769
837,0.1914626508951187,0.8389136904761904,0.559472382068634,0.5806736378278932
838,0.17409496009349823,0.7503720238095236,0.5626280307769775,0.5631659903335439
839,0.17718155682086945,0.8463541666666666,0.5892888903617859,0.5591828846882039
840,0.18419566750526428,0.8304036458333333,0.5544779896736145,0.5655495504298698
841,0.20389312505722046,0.8232886904761904,0.5955296158790588,0.555037623428581
842,0.21258622407913208,0.7295386904761904,0.5397337079048157,0.5648056218800904
843,0.2009855955839157,0.7920386904761904,0.5758218765258789,0.5578407231066808
844,0.20125508308410645,0.7425595238095236,0.5639948844909668,0.5483220404497003
845,0.21002750098705292,0.8213541666666666,0.604863166809082,0.5532371583302437
846,0.21807833015918732,0.8173828124999999,0.5207811594009399,0.5791762596150897
847,0.22728706896305084,0.7231770833333332,0.5817153453826904,0.5670132512286771
848,0.1664126068353653,0.8701636904761904,0.5552009344100952,0.5522593624854264
849,0.2145332247018814,0.7513020833333331,0.5584012269973755,0.574273042265064
850,0.1957438886165619,0.779017857142857,0.5661138892173767,0.5715712533132752
851,0.17997027933597565,0.8147786458333333,0.5786224603652954,0.5659429808764919
852,0.19130563735961914,0.8320312499999999,0.554131269454956,0.565901100475569
853,0.21669568121433258,0.8046875,0.5624432563781738,0.5431390634582127
854,0.2626086473464966,0.755580357142857,0.5427610278129578,0.5923767765922021
855,0.21961405873298645,0.796875,0.5837050676345825,0.5693331707693413
856,0.22381478548049927,0.7738095238095237,0.536043107509613,0.5497066640018766
857,0.27442580461502075,0.8147786458333334,0.544155478477478,0.6257659396356212
858,0.21899095177650452,0.8225911458333333,0.5469503402709961,0.6104737264311739
859,0.18414482474327087,0.7738095238095237,0.582516074180603,0.5745376515722261
860,0.18723225593566895,0.8284970238095236,0.5540019273757935,0.571642996975444
861,0.20384716987609863,0.7835286458333333,0.5764460563659668,0.5274284246092757
862,0.20434612035751343,0.7486979166666665,0.582442581653595,0.5886432416086677
863,0.17086923122406006,0.8658854166666666,0.5796825289726257,0.5710695869339487
864,0.1641596555709839,0.8515624999999999,0.5762072801589966,0.5593494980197108
865,0.16348786652088165,0.7981770833333331,0.5574965476989746,0.5698102331081056
866,0.18096457421779633,0.8395833333333332,0.5773485898971558,0.5387817162152271
867,0.17853201925754547,0.7890624999999999,0.5636715888977051,0.5805541483732976
868,0.20177261531352997,0.8701636904761904,0.5717491507530212,0.5544215309906803
869,0.1944553554058075,0.6982886904761904,0.5690320134162903,0.5770742451992453
870,0.16191264986991882,0.8203124999999999,0.5766929984092712,0.5656771562755609
871,0.17243698239326477,0.8363095238095237,0.5912050604820251,0.5497095418372018
872,0.16843067109584808,0.802455357142857,0.6089933514595032,0.5703247722529641
873,0.16565346717834473,0.8161458333333333,0.6029692888259888,0.5561468323835347
874,0.1861807256937027,0.8033854166666666,0.5629014372825623,0.5648342668954374
875,0.170638769865036,0.8567708333333333,0.581587016582489,0.5684538885070802
876,0.19888395071029663,0.8180803571428571,0.5790877342224121,0.5622836978821024
877,0.21216297149658203,0.7890625,0.5729633569717407,0.5581167163215038
878,0.17917469143867493,0.8359375,0.5903293490409851,0.5393903717440955
879,0.2002490907907486,0.7991536458333333,0.566649854183197,0.5751177363810343
880,0.20005950331687927,0.8424479166666665,0.6056302189826965,0.5560534392715243
881,0.23013736307621002,0.7548828124999999,0.5743077397346497,0.5310844996217339
882,0.17832766473293304,0.7617187499999999,0.5758538842201233,0.5427300383816341
883,0.21592170000076294,0.7960069444444444,0.5608385801315308,0.5627963865330889
884,0.2805856764316559,0.7408854166666667,0.6010120511054993,0.5244685052929734
885,0.1924189329147339,0.7929687499999999,0.5356272459030151,0.5815779103678042
886,0.16987864673137665,0.8776041666666666,0.5658189058303833,0.5635170508175831
887,0.1867910474538803,0.8694661458333333,0.5791048407554626,0.5582739640186453
888,0.1806565821170807,0.8177083333333333,0.5832741260528564,0.5575908655961849
889,0.15759198367595673,0.8085937499999999,0.5872920751571655,0.573460952955634
890,0.18130478262901306,0.8050595238095237,0.589922308921814,0.5741076225783673
891,0.16568002104759216,0.8701636904761904,0.5634850263595581,0.5779074816042902
892,0.17103008925914764,0.81875,0.5700141787528992,0.5473511609548846
893,0.19498758018016815,0.7764136904761904,0.5875409245491028,0.5654863138240798
894,0.22910353541374207,0.7652994791666665,0.5707526803016663,0.5523789670731163
895,0.22268998622894287,0.7679036458333334,0.5635799169540405,0.5491256994581465
896,0.17528387904167175,0.8190104166666666,0.5766842365264893,0.5547367324362008
897,0.16558027267456055,0.857142857142857,0.5835904479026794,0.566502501143459
898,0.18160347640514374,0.8294270833333334,0.5918548703193665,0.554883492689344
899,0.15079039335250854,0.8710937499999999,0.5670784711837769,0.5529445702052086
900,0.1638261377811432,0.8450520833333333,0.5749444961547852,0.5510817295391764
901,0.16395972669124603,0.8545386904761904,0.6034366488456726,0.55207224070256
902,0.20495624840259552,0.8268229166666665,0.5945975184440613,0.5407208630612886
903,0.17980651557445526,0.7764136904761905,0.5989865064620972,0.5365633849011513
904,0.17970921099185944,0.8164062499999999,0.5877318382263184,0.5603088199231819
905,0.18525928258895874,0.7960069444444443,0.6161215305328369,0.5636098239821647
906,0.19387823343276978,0.765625,0.6000446081161499,0.5516894398942273
907,0.19143974781036377,0.8246527777777778,0.558611273765564,0.5940393289728397
908,0.18911252915859222,0.7981770833333331,0.5965611338615417,0.5601114109491773
909,0.17337369918823242,0.8024553571428571,0.5987550616264343,0.5815299426735601
910,0.14566516876220703,0.8919270833333333,0.6062923073768616,0.5393035987849818
911,0.16314482688903809,0.83203125,0.5801451802253723,0.5860111760776656
912,0.17696666717529297,0.8658854166666665,0.5924673080444336,0.5697543487836042
913,0.1844247281551361,0.8138020833333333,0.6049723625183105,0.544513639925874
914,0.2334674596786499,0.8190104166666665,0.6031371355056763,0.573380989577798
915,0.2155102789402008,0.7929687499999999,0.5391002893447876,0.6060797255345131
916,0.21455101668834686,0.7972470238095236,0.6091725826263428,0.5218331801177545
917,0.1828937977552414,0.8017578125,0.5681159496307373,0.5650839561344884
918,0.18341514468193054,0.849330357142857,0.5881756544113159,0.5648344263104903
919,0.17733168601989746,0.8138020833333331,0.6025047302246094,0.5813762891954383
920,0.13982152938842773,0.8776041666666666,0.5924877524375916,0.5664793682479853
921,0.16712795197963715,0.861111111111111,0.5728144645690918,0.576634367897666
922,0.16730809211730957,0.8098958333333333,0.6007091999053955,0.5576386079444594
923,0.15200203657150269,0.8741319444444444,0.6177762150764465,0.5558532183931122
924,0.1960166096687317,0.7998511904761905,0.5761650204658508,0.5598185974781721
925,0.1823689490556717,0.755580357142857,0.5801398158073425,0.5901075869559916
926,0.16892369091510773,0.8242187499999999,0.6085164546966553,0.5775968854825236
927,0.19498328864574432,0.8206845238095237,0.5608046054840088,0.5955349536200601
928,0.2204749882221222,0.763392857142857,0.587533175945282,0.5511002069246752
929,0.19411128759384155,0.802455357142857,0.5610755085945129,0.6016491984178157
930,0.18910248577594757,0.825892857142857,0.6019490957260132,0.5700243162078269
931,0.16093797981739044,0.7981770833333333,0.5751358866691589,0.5716010885292803
932,0.17286792397499084,0.8909970238095237,0.5933088064193726,0.5844075196867754
933,0.16906529664993286,0.8597470238095237,0.5613683462142944,0.5806622844255822
934,0.14809584617614746,0.8307291666666666,0.6080453395843506,0.559655911956444
935,0.17780782282352448,0.8255208333333333,0.5977405309677124,0.5521744331318799
936,0.18264302611351013,0.7773437499999999,0.5885777473449707,0.569286748515472
937,0.17348936200141907,0.8880208333333333,0.5963625907897949,0.5732380178922735
938,0.19158056378364563,0.771205357142857,0.5709061622619629,0.5649654428510816
939,0.21104854345321655,0.8294270833333333,0.5874596834182739,0.548454352483608
940,0.2167390137910843,0.7760416666666666,0.5626133680343628,0.5586377909915146
941,0.2106766253709793,0.7421875,0.5952087044715881,0.5985495340947474
942,0.18126437067985535,0.8258928571428571,0.5528342723846436,0.5932898582898585
943,0.17899729311466217,0.8232886904761904,0.6052602529525757,0.5833309366952987
944,0.1798967868089676,0.8649553571428571,0.5660960674285889,0.5764332318587639
945,0.2376563549041748,0.7686011904761904,0.626274585723877,0.5443521898708068
946,0.17825424671173096,0.8154761904761904,0.5631318092346191,0.5645229027276903
947,0.16859424114227295,0.8701636904761904,0.6075222492218018,0.5887612358091083
948,0.1879464089870453,0.8284970238095237,0.5669357776641846,0.5716447215117427
949,0.17372503876686096,0.7877604166666666,0.5968549847602844,0.5829667790838006
950,0.16989989578723907,0.8085937499999999,0.5999631285667419,0.5597048632022037
951,0.20676910877227783,0.8138020833333333,0.5807928442955017,0.5814696631185995
952,0.19499309360980988,0.7981770833333333,0.6185683012008667,0.492896757989843
953,0.19371193647384644,0.7816220238095237,0.5750101208686829,0.5873278715964887
954,0.20079386234283447,0.8264136904761904,0.6017188429832458,0.5612687445533193
955,0.17241768538951874,0.880580357142857,0.5814679265022278,0.5716897139503524
956,0.16969910264015198,0.8606770833333333,0.6116257905960083,0.5799751612650549
957,0.14190416038036346,0.8554687499999999,0.5871594548225403,0.5913071862141013
958,0.17381782829761505,0.8307291666666666,0.5868571996688843,0.5907310400395512
959,0.1673179417848587,0.8294270833333334,0.5857530832290649,0.5660626533631853
960,0.16473262012004852,0.8567708333333333,0.5986480712890625,0.5638823740286508
961,0.1840311884880066,0.8258928571428571,0.5859105587005615,0.5696000409165303
962,0.19896073639392853,0.8294270833333333,0.5895596146583557,0.5686080955096916
963,0.2173212617635727,0.7757161458333333,0.6245089769363403,0.574971435184201
964,0.1377280056476593,0.8815104166666666,0.5998612642288208,0.5390937495325793
965,0.15751901268959045,0.8776041666666666,0.5882135033607483,0.5684549143724675
966,0.14205779135227203,0.8554687499999999,0.5929540991783142,0.5690130983083113
967,0.14691811800003052,0.8828125,0.5878273844718933,0.5923740188101893
968,0.22690504789352417,0.7981770833333333,0.6344863176345825,0.5559813728430749
969,0.16840457916259766,0.8437499999999999,0.6105400919914246,0.5821597797395672
970,0.14166298508644104,0.9014136904761904,0.5997117161750793,0.5796791880302521
971,0.14938856661319733,0.8398437499999999,0.6180073022842407,0.5595363605071054
972,0.17259681224822998,0.8441220238095237,0.612327516078949,0.578615215556705
973,0.18676252663135529,0.7981770833333331,0.5947219133377075,0.5535324697957675
974,0.14578081667423248,0.8658854166666666,0.6001991033554077,0.5377959702826723
975,0.18347826600074768,0.8389136904761904,0.5969747304916382,0.5492947994676719
976,0.2174430787563324,0.7764136904761905,0.5951389670372009,0.5981604309795802
977,0.16634541749954224,0.763392857142857,0.5713752508163452,0.5755803992107186
978,0.18976061046123505,0.8132812499999998,0.6416885256767273,0.5407171724060023
979,0.17140468955039978,0.8046875,0.5839992761611938,0.555894139843608
980,0.14123821258544922,0.8932291666666666,0.6194392442703247,0.534119229371889
981,0.14678955078125,0.8701636904761904,0.6132071018218994,0.5182673827354679
982,0.18697187304496765,0.7738095238095237,0.6050022840499878,0.5605728781659635
983,0.1786479949951172,0.7894345238095237,0.5846173167228699,0.5911596830080875
984,0.16374099254608154,0.8203124999999999,0.6219481229782104,0.5878783568677188
985,0.16900992393493652,0.8085937499999999,0.6104903817176819,0.5839242509854213
986,0.14367571473121643,0.8597470238095237,0.6543940901756287,0.5213711273950635
987,0.15382349491119385,0.8450520833333333,0.6196172833442688,0.5576836918991176
988,0.14237411320209503,0.8619791666666666,0.6185603737831116,0.5656802141908528
989,0.1300782561302185,0.8831845238095237,0.6048640608787537,0.5709021209287171
990,0.17273060977458954,0.8536458333333332,0.6136798858642578,0.506647898004281
991,0.23234644532203674,0.771205357142857,0.58831787109375,0.6030867207064019
992,0.22781477868556976,0.7552083333333333,0.5990763902664185,0.5460477564200971
993,0.1839151829481125,0.7913411458333333,0.5921337008476257,0.5730274635726765
994,0.16312673687934875,0.814236111111111,0.6139955520629883,0.5281016830883856
995,0.17398284375667572,0.8033854166666665,0.596305251121521,0.5796710554024385
996,0.16457052528858185,0.8545386904761904,0.5946192741394043,0.5567328401503935
997,0.18459156155586243,0.82421875,0.6425115466117859,0.5322602456645009
998,0.22443488240242004,0.7371744791666666,0.5869585275650024,0.5637875771785349
999,0.20285876095294952,0.8046875,0.6261848211288452,0.5231490259149835
