,loss,recall,val_loss,val_recall
0,0.6193466782569885,0.8556701030927836,0.6617860198020935,0.32
1,0.5323435068130493,0.8556701030927836,0.6546260118484497,0.32
2,0.47315120697021484,0.875,0.6485849022865295,0.32
3,0.43010374903678894,0.8920454545454546,0.6430517435073853,0.32
4,0.39718103408813477,0.9058823529411765,0.6372495889663696,0.32
5,0.37174734473228455,0.9058823529411765,0.6307153701782227,0.32
6,0.3494469225406647,0.9107142857142857,0.6236600279808044,0.8232323232323233
7,0.3288573622703552,0.9259259259259259,0.6161586046218872,0.8265306122448979
8,0.3096303343772888,0.93125,0.6084328293800354,0.8404255319148937
9,0.2922331690788269,0.9423076923076923,0.6004384756088257,0.8516483516483517
10,0.27569690346717834,0.948051948051948,0.5918684005737305,0.8555555555555556
11,0.2606316804885864,0.9333333333333333,0.5827441811561584,0.867816091954023
12,0.24703742563724518,0.9333333333333333,0.5731599926948547,0.8563685636856369
13,0.23454982042312622,0.9472349061390157,0.5628809928894043,0.8519813519813519
14,0.22276991605758667,0.9543650793650793,0.5518273115158081,0.8544698544698545
15,0.21139201521873474,0.9543650793650793,0.5399447679519653,0.8544698544698545
16,0.2006688266992569,0.9543650793650793,0.5273677706718445,0.8700396825396826
17,0.190547913312912,0.9543650793650793,0.5142792463302612,0.8535696940262263
18,0.180810809135437,0.9791666666666667,0.5006303191184998,0.8535696940262263
19,0.17169195413589478,0.9791666666666667,0.486722469329834,0.8535696940262263
20,0.16305406391620636,0.9791666666666667,0.4726083278656006,0.8384615384615385
21,0.15490815043449402,0.9928571428571429,0.4583595097064972,0.8480902777777778
22,0.14703436195850372,0.9928571428571429,0.4437072277069092,0.8480902777777778
23,0.1391323208808899,0.9928571428571429,0.4291094243526459,0.8480902777777778
24,0.13142403960227966,0.9928571428571429,0.414517343044281,0.8463497453310695
25,0.12399110198020935,0.9928571428571429,0.40005770325660706,0.8463497453310695
26,0.1168169379234314,0.9928571428571429,0.3859650194644928,0.8463497453310695
27,0.10997948050498962,0.9928571428571429,0.37238097190856934,0.8463497453310695
28,0.10380023717880249,0.9928571428571429,0.35912996530532837,0.8463497453310695
29,0.09790518879890442,0.9928571428571429,0.34615224599838257,0.8463497453310695
30,0.09214220941066742,0.9928571428571429,0.33354926109313965,0.8564522908785204
31,0.0866255909204483,0.9928571428571429,0.3216674029827118,0.8675721561969439
32,0.08138731867074966,0.9928571428571429,0.31052878499031067,0.8774695250105087
33,0.07643091678619385,0.9928571428571429,0.3006567060947418,0.8774695250105087
34,0.07179521024227142,0.9928571428571429,0.2920326888561249,0.8774695250105087
35,0.06740743666887283,0.9928571428571429,0.28459587693214417,0.8774695250105087
36,0.06323745101690292,1.0,0.27834126353263855,0.8887945670628183
37,0.059253863990306854,1.0,0.272967666387558,0.8792363792363792
38,0.055413246154785156,1.0,0.2683931291103363,0.8792363792363792
39,0.05178416147828102,1.0,0.2644657492637634,0.8914930555555556
40,0.048457205295562744,1.0,0.26102983951568604,0.8824175824175824
41,0.04539330676198006,1.0,0.2585497498512268,0.8824175824175824
42,0.042519550770521164,1.0,0.2568896412849426,0.8957219251336899
43,0.03980843350291252,1.0,0.25580543279647827,0.8957219251336899
44,0.03720701485872269,1.0,0.25509586930274963,0.8957219251336899
45,0.03478629142045975,1.0,0.2545325458049774,0.8957219251336899
46,0.03250904381275177,1.0,0.2544713318347931,0.8957219251336899
47,0.030366618186235428,1.0,0.25479426980018616,0.8957219251336899
48,0.028378020972013474,1.0,0.2555091977119446,0.9097693351424694
49,0.02653575874865055,1.0,0.25664135813713074,0.9097693351424694
50,0.024815525859594345,1.0,0.25797849893569946,0.9097693351424694
51,0.0232086218893528,1.0,0.25945261120796204,0.9097693351424694
52,0.02175142429769039,1.0,0.2610063850879669,0.9097693351424694
53,0.020401524379849434,1.0,0.26255151629447937,0.9097693351424694
54,0.01915764808654785,1.0,0.2637842893600464,0.9097693351424694
55,0.01801082119345665,1.0,0.2647441029548645,0.9097693351424694
56,0.01694483309984207,1.0,0.2657255232334137,0.9097693351424694
57,0.015975257381796837,1.0,0.26675641536712646,0.9097693351424694
58,0.015076897107064724,1.0,0.26793208718299866,0.9097693351424694
59,0.01423676498234272,1.0,0.269234836101532,0.9097693351424694
60,0.013445939868688583,1.0,0.27064770460128784,0.9097693351424694
61,0.01271392684429884,1.0,0.272072434425354,0.9097693351424694
62,0.012039883062243462,1.0,0.2733404338359833,0.9097693351424694
63,0.01141269225627184,1.0,0.27435967326164246,0.9097693351424694
64,0.01083010621368885,1.0,0.2753562927246094,0.9097693351424694
65,0.010283026844263077,1.0,0.2763870060443878,0.9097693351424694
66,0.009777890518307686,1.0,0.27749916911125183,0.9097693351424694
67,0.009307038970291615,1.0,0.27861469984054565,0.9097693351424694
68,0.008870463818311691,1.0,0.2795162498950958,0.9097693351424694
69,0.008465729653835297,1.0,0.2802985906600952,0.9097693351424694
70,0.008090674877166748,1.0,0.2808968424797058,0.9097693351424694
71,0.007739493623375893,1.0,0.28144964575767517,0.9097693351424694
72,0.007409292738884687,1.0,0.28197988867759705,0.9097693351424694
73,0.007101145107299089,1.0,0.2824893593788147,0.9097693351424694
74,0.00681142695248127,1.0,0.28291207551956177,0.9097693351424694
75,0.006539677735418081,1.0,0.28325530886650085,0.9097693351424694
76,0.006284017581492662,1.0,0.2835998833179474,0.9097693351424694
77,0.00604260666295886,1.0,0.2839471697807312,0.9097693351424694
78,0.005814237520098686,1.0,0.2842893600463867,0.9097693351424694
79,0.005598779767751694,1.0,0.28470268845558167,0.9097693351424694
80,0.005396583117544651,1.0,0.2851528525352478,0.9097693351424694
81,0.005206691101193428,1.0,0.28558316826820374,0.9097693351424694
82,0.0050272271037101746,1.0,0.28602156043052673,0.9097693351424694
83,0.004858716856688261,1.0,0.2864883542060852,0.9097693351424694
84,0.0046995049342513084,1.0,0.2869466543197632,0.9097693351424694
85,0.004548654425889254,1.0,0.2874096930027008,0.9097693351424694
86,0.004404723644256592,1.0,0.28777560591697693,0.9097693351424694
87,0.004268412012606859,1.0,0.2881697714328766,0.8957219251336899
88,0.004139056894928217,1.0,0.2885854244232178,0.8957219251336899
89,0.004016477148979902,1.0,0.2890326678752899,0.8957219251336899
90,0.003900466486811638,1.0,0.28953468799591064,0.8957219251336899
91,0.0037902372423559427,1.0,0.2900736629962921,0.8957219251336899
92,0.0036861335393041372,1.0,0.2906465232372284,0.8957219251336899
93,0.0035860477946698666,1.0,0.2912481129169464,0.8957219251336899
94,0.00349056301638484,1.0,0.29187801480293274,0.8957219251336899
95,0.003399190027266741,1.0,0.29256999492645264,0.8957219251336899
96,0.0033115504775196314,1.0,0.29332077503204346,0.8957219251336899
97,0.0032278832513839006,1.0,0.29406219720840454,0.8957219251336899
98,0.0031480800826102495,1.0,0.29473432898521423,0.8957219251336899
99,0.003071470884606242,1.0,0.29534244537353516,0.8957219251336899
100,0.0029980549588799477,1.0,0.29589515924453735,0.8957219251336899
101,0.0029275810811668634,1.0,0.2964039146900177,0.8957219251336899
102,0.002860074630007148,1.0,0.2968449592590332,0.8957219251336899
103,0.0027948259375989437,1.0,0.29728999733924866,0.8957219251336899
104,0.0027321591041982174,1.0,0.2977556884288788,0.8957219251336899
105,0.0026717849541455507,1.0,0.2982730269432068,0.8957219251336899
106,0.002613528398796916,1.0,0.29881319403648376,0.8957219251336899
107,0.002557431347668171,1.0,0.29935112595558167,0.8957219251336899
108,0.0025036134757101536,1.0,0.2998768985271454,0.8957219251336899
109,0.002451634733006358,1.0,0.3003455698490143,0.8957219251336899
110,0.002401349600404501,1.0,0.30080869793891907,0.8957219251336899
111,0.0023530914913862944,1.0,0.301244854927063,0.8957219251336899
112,0.0023064324632287025,1.0,0.30166319012641907,0.8957219251336899
113,0.002261222805827856,1.0,0.3020901083946228,0.8957219251336899
114,0.0022174969781190157,1.0,0.30251654982566833,0.8957219251336899
115,0.002175414003431797,1.0,0.3029244840145111,0.8957219251336899
116,0.0021347468718886375,1.0,0.30327993631362915,0.8957219251336899
117,0.0020954322535544634,1.0,0.3035956025123596,0.8957219251336899
118,0.0020574426744133234,1.0,0.3038420081138611,0.8957219251336899
119,0.002020392334088683,1.0,0.30405205488204956,0.8957219251336899
120,0.0019842328038066626,1.0,0.3042870759963989,0.8957219251336899
121,0.0019492567516863346,1.0,0.3045605719089508,0.8957219251336899
122,0.0019153186585754156,1.0,0.3048521876335144,0.8957219251336899
123,0.001882348326034844,1.0,0.30515292286872864,0.8957219251336899
124,0.0018503491301089525,1.0,0.305495947599411,0.8957219251336899
125,0.001819157274439931,1.0,0.3058721721172333,0.8957219251336899
126,0.0017889415612444282,1.0,0.30627456307411194,0.8957219251336899
127,0.0017596889520063996,1.0,0.3066881000995636,0.8957219251336899
128,0.0017313414718955755,1.0,0.30716705322265625,0.8957219251336899
129,0.001703724847175181,1.0,0.30767908692359924,0.8957219251336899
130,0.001676752814091742,1.0,0.3081825077533722,0.8957219251336899
131,0.0016504680970683694,1.0,0.3086591958999634,0.8957219251336899
132,0.0016249152831733227,1.0,0.30908793210983276,0.8957219251336899
133,0.0015999983297660947,1.0,0.3094976246356964,0.8957219251336899
134,0.0015756994253024459,1.0,0.3098750114440918,0.8957219251336899
135,0.001551993191242218,1.0,0.3102239668369293,0.8957219251336899
136,0.0015289107104763389,1.0,0.310606449842453,0.8957219251336899
137,0.001506461063399911,1.0,0.31101974844932556,0.8957219251336899
138,0.0014844626421108842,1.0,0.3114514946937561,0.8957219251336899
139,0.001462968299165368,1.0,0.3118707835674286,0.8957219251336899
140,0.001441948814317584,1.0,0.3122546374797821,0.8957219251336899
141,0.0014214422553777695,1.0,0.3126315474510193,0.8957219251336899
142,0.0014014124171808362,1.0,0.3130161762237549,0.8957219251336899
143,0.0013818308943882585,1.0,0.31342369318008423,0.8957219251336899
144,0.0013626617146655917,1.0,0.3138584792613983,0.8957219251336899
145,0.0013439325848594308,1.0,0.31426581740379333,0.8957219251336899
146,0.0013255971716716886,1.0,0.31468459963798523,0.8957219251336899
147,0.0013076632749289274,1.0,0.3150601089000702,0.8957219251336899
148,0.0012901350855827332,1.0,0.3154388964176178,0.8957219251336899
149,0.0012730517191812396,1.0,0.3158490061759949,0.8957219251336899
150,0.001256285235285759,1.0,0.3162938058376312,0.8957219251336899
151,0.001239775912836194,1.0,0.3167320489883423,0.8957219251336899
152,0.0012236300390213728,1.0,0.31716132164001465,0.8957219251336899
153,0.0012078445870429277,1.0,0.3175510764122009,0.8957219251336899
154,0.0011923499405384064,1.0,0.3179413080215454,0.8957219251336899
155,0.0011771252611652017,1.0,0.3183650076389313,0.8957219251336899
156,0.0011622598394751549,1.0,0.31877216696739197,0.8957219251336899
157,0.001147664850577712,1.0,0.319186806678772,0.8957219251336899
158,0.0011333894217386842,1.0,0.3195902705192566,0.8957219251336899
159,0.0011193210957571864,1.0,0.3199924826622009,0.8957219251336899
160,0.0011054769856855273,1.0,0.32037657499313354,0.8957219251336899
161,0.0010919219348579645,1.0,0.3207728862762451,0.8957219251336899
162,0.0010786667698994279,1.0,0.3211590647697449,0.8957219251336899
163,0.0010655875084921718,1.0,0.3215451240539551,0.8957219251336899
164,0.0010527868289500475,1.0,0.3218880295753479,0.8957219251336899
165,0.0010402154875919223,1.0,0.3222101926803589,0.8957219251336899
166,0.0010278502013534307,1.0,0.3225427269935608,0.8957219251336899
167,0.0010157705983147025,1.0,0.3228960633277893,0.8957219251336899
168,0.0010038806358352304,1.0,0.32328566908836365,0.8957219251336899
169,0.0009922091849148273,1.0,0.3236714005470276,0.8957219251336899
170,0.0009807456517592072,1.0,0.32404783368110657,0.8957219251336899
171,0.0009694875334389508,1.0,0.3244188129901886,0.8957219251336899
172,0.0009584416402503848,1.0,0.3247668743133545,0.8957219251336899
173,0.0009476147242821753,1.0,0.3250643014907837,0.8957219251336899
174,0.0009369364124722779,1.0,0.32534605264663696,0.8957219251336899
175,0.0009264211403205991,1.0,0.32563692331314087,0.8957219251336899
176,0.0009160990593954921,1.0,0.3259367346763611,0.8957219251336899
177,0.0009059291915036738,1.0,0.32626304030418396,0.8957219251336899
178,0.0008959600236266851,1.0,0.32661399245262146,0.8957219251336899
179,0.0008861666428856552,1.0,0.32696792483329773,0.8957219251336899
180,0.0008764983504079282,1.0,0.3273155391216278,0.8957219251336899
181,0.000867027381900698,1.0,0.32767730951309204,0.8957219251336899
182,0.0008577701519243419,1.0,0.328012615442276,0.8957219251336899
183,0.000848619791213423,1.0,0.32830581068992615,0.8957219251336899
184,0.0008396036573685706,1.0,0.32857778668403625,0.8957219251336899
185,0.0008308308897539973,1.0,0.32884481549263,0.8957219251336899
186,0.0008221654570661485,1.0,0.32913631200790405,0.8957219251336899
187,0.000813604739960283,1.0,0.3294431269168854,0.8957219251336899
188,0.0008051998447626829,1.0,0.32975855469703674,0.8957219251336899
189,0.000796932727098465,1.0,0.33008453249931335,0.8957219251336899
190,0.0007888366235420108,1.0,0.33039867877960205,0.8957219251336899
191,0.0007808238151483238,1.0,0.33067798614501953,0.8957219251336899
192,0.0007729491335339844,1.0,0.33093348145484924,0.8957219251336899
193,0.0007652135682292283,1.0,0.33120352029800415,0.8957219251336899
194,0.0007575778290629387,1.0,0.3314746022224426,0.8957219251336899
195,0.0007500822539441288,1.0,0.33175715804100037,0.8957219251336899
196,0.0007427056552842259,1.0,0.3320431709289551,0.8957219251336899
197,0.0007354348199442029,1.0,0.3323361277580261,0.8957219251336899
198,0.0007282838341780007,1.0,0.33262571692466736,0.8957219251336899
199,0.0007212624768726528,1.0,0.33293211460113525,0.8957219251336899
200,0.0007143386756069958,1.0,0.33324626088142395,0.8957219251336899
201,0.0007075292523950338,1.0,0.3335343897342682,0.8957219251336899
202,0.0007008303073234856,1.0,0.3338124752044678,0.8957219251336899
203,0.0006942109321244061,1.0,0.3341086208820343,0.8957219251336899
204,0.000687722465954721,1.0,0.3344210982322693,0.8957219251336899
205,0.0006813160143792629,1.0,0.3347127437591553,0.8957219251336899
206,0.0006750189932063222,1.0,0.33497390151023865,0.8957219251336899
207,0.0006688254652544856,1.0,0.3352285623550415,0.8957219251336899
208,0.000662676990032196,1.0,0.3355120122432709,0.8957219251336899
209,0.0006566200754605234,1.0,0.33580878376960754,0.8957219251336899
210,0.0006506440113298595,1.0,0.3360893130302429,0.8957219251336899
211,0.0006447487976402044,1.0,0.33635732531547546,0.8957219251336899
212,0.0006389107438735664,1.0,0.33662861585617065,0.8957219251336899
213,0.0006331761251203716,1.0,0.3369046449661255,0.8957219251336899
214,0.0006275296327657998,1.0,0.33718523383140564,0.8957219251336899
215,0.0006219460046850145,1.0,0.3374737501144409,0.8957219251336899
216,0.0006164373480714858,1.0,0.3377535045146942,0.8957219251336899
217,0.0006110168760642409,1.0,0.33801817893981934,0.8957219251336899
218,0.0006056701531633735,1.0,0.33827951550483704,0.8957219251336899
219,0.0006004184833727777,1.0,0.3385370671749115,0.8957219251336899
220,0.0005952285719104111,1.0,0.3387940227985382,0.8957219251336899
221,0.0005901125841774046,1.0,0.33904242515563965,0.8957219251336899
222,0.0005850596353411674,1.0,0.33929064869880676,0.8957219251336899
223,0.0005800744984298944,1.0,0.33953163027763367,0.8957219251336899
224,0.0005751738208346069,1.0,0.339772492647171,0.8957219251336899
225,0.0005703279166482389,1.0,0.3400176167488098,0.8957219251336899
226,0.0005655557615682483,1.0,0.3402616083621979,0.8957219251336899
227,0.000560841872356832,1.0,0.3404907286167145,0.8957219251336899
228,0.0005562042351812124,1.0,0.3407270014286041,0.8957219251336899
229,0.0005516107194125652,1.0,0.3409670889377594,0.8957219251336899
230,0.0005470967153087258,1.0,0.34121596813201904,0.8957219251336899
231,0.0005426291027106345,1.0,0.34147587418556213,0.8957219251336899
232,0.000538243621122092,1.0,0.34171757102012634,0.8957219251336899
233,0.0005338974297046661,1.0,0.3419359624385834,0.8957219251336899
234,0.0005296083400025964,1.0,0.3421616554260254,0.8957219251336899
235,0.0005253632552921772,1.0,0.34240251779556274,0.8957219251336899
236,0.0005211967509239912,1.0,0.3426395356655121,0.8957219251336899
237,0.0005170670920051634,1.0,0.34287041425704956,0.8957219251336899
238,0.0005129838827997446,1.0,0.3430967628955841,0.8957219251336899
239,0.0005089625483378768,1.0,0.3433324992656708,0.8957219251336899
240,0.0005049899336881936,1.0,0.3435746729373932,0.8957219251336899
241,0.0005010590539313853,1.0,0.3438180387020111,0.8957219251336899
242,0.0004971780581399798,1.0,0.3440576493740082,0.8957219251336899
243,0.0004933541640639305,1.0,0.344277560710907,0.8957219251336899
244,0.0004895577440038323,1.0,0.34447935223579407,0.8957219251336899
245,0.00048582322779111564,1.0,0.3446967899799347,0.8957219251336899
246,0.0004821254697162658,1.0,0.3449038565158844,0.8957219251336899
247,0.0004784682241734117,1.0,0.3450945317745209,0.8957219251336899
248,0.0004748455248773098,1.0,0.3452722728252411,0.8957219251336899
249,0.0004712798981927335,1.0,0.345439076423645,0.8957219251336899
250,0.00046774407383054495,1.0,0.3456154465675354,0.8957219251336899
251,0.0004642689018510282,1.0,0.3458159565925598,0.8957219251336899
252,0.0004608104354701936,1.0,0.3460298180580139,0.8957219251336899
253,0.00045741029316559434,1.0,0.3462420105934143,0.8957219251336899
254,0.0004540256049949676,1.0,0.3464565575122833,0.8957219251336899
255,0.00045068725012242794,1.0,0.3466622829437256,0.8957219251336899
256,0.00044739534496329725,1.0,0.34686776995658875,0.8957219251336899
257,0.0004441320488695055,1.0,0.34705695509910583,0.8957219251336899
258,0.00044089145376347005,1.0,0.3472432494163513,0.8957219251336899
259,0.0004376936121843755,1.0,0.3474246561527252,0.8957219251336899
260,0.0004345398338045925,1.0,0.3476058840751648,0.8957219251336899
261,0.00043142528738826513,1.0,0.3477904498577118,0.8957219251336899
262,0.0004283381858840585,1.0,0.34798872470855713,0.8957219251336899
263,0.00042528079939074814,1.0,0.3482045531272888,0.8957219251336899
264,0.0004222579300403595,1.0,0.34841543436050415,0.8957219251336899
265,0.00041927429265342653,1.0,0.34860071539878845,0.8957219251336899
266,0.0004163145204074681,1.0,0.3487676978111267,0.8957219251336899
267,0.00041339045856148005,1.0,0.34895795583724976,0.8957219251336899
268,0.00041049494757317007,1.0,0.34913745522499084,0.8957219251336899
269,0.00040763511788100004,1.0,0.3493088483810425,0.8957219251336899
270,0.0004047991242259741,1.0,0.3494769334793091,0.8957219251336899
271,0.00040199406794272363,1.0,0.3496641516685486,0.8957219251336899
272,0.00039921762072481215,1.0,0.3498603105545044,0.8957219251336899
273,0.00039647810626775026,1.0,0.3500467538833618,0.8957219251336899
274,0.0003937706642318517,1.0,0.35023337602615356,0.8957219251336899
275,0.00039107041084207594,1.0,0.35041147470474243,0.8957219251336899
276,0.00038841902278363705,1.0,0.35060203075408936,0.8957219251336899
277,0.0003857853589579463,1.0,0.3507993519306183,0.8957219251336899
278,0.0003831803041975945,1.0,0.35098448395729065,0.8957219251336899
279,0.000380607380066067,1.0,0.3511603772640228,0.8957219251336899
280,0.0003780499682761729,1.0,0.35133597254753113,0.8957219251336899
281,0.0003755306242965162,1.0,0.3515043556690216,0.8957219251336899
282,0.0003730387252289802,1.0,0.3516658842563629,0.8957219251336899
283,0.00037056818837299943,1.0,0.3518013656139374,0.8957219251336899
284,0.0003681119706016034,1.0,0.3519410490989685,0.8957219251336899
285,0.0003656974295154214,1.0,0.352108895778656,0.8957219251336899
286,0.000363288854714483,1.0,0.35228702425956726,0.8957219251336899
287,0.0003609218983910978,1.0,0.35245436429977417,0.8957219251336899
288,0.0003585645172279328,1.0,0.3526279330253601,0.8957219251336899
289,0.0003562369092833251,1.0,0.352793425321579,0.8957219251336899
290,0.0003539270837791264,1.0,0.35296499729156494,0.8957219251336899
291,0.00035165066947229207,1.0,0.35313880443573,0.8957219251336899
292,0.0003493944532237947,1.0,0.3533180058002472,0.8957219251336899
293,0.0003471501695457846,1.0,0.35349777340888977,0.8957219251336899
294,0.000344934465829283,1.0,0.35366126894950867,0.8957219251336899
295,0.0003427246992941946,1.0,0.3538241982460022,0.8957219251336899
296,0.00034055658034048975,1.0,0.35399681329727173,0.8957219251336899
297,0.00033839678508229554,1.0,0.35415443778038025,0.8957219251336899
298,0.00033626443473622203,1.0,0.3543168604373932,0.8957219251336899
299,0.00033416779479011893,1.0,0.3544859290122986,0.8957219251336899
300,0.00033207476371899247,1.0,0.35465121269226074,0.8957219251336899
301,0.0003300090320408344,1.0,0.35481056571006775,0.8957219251336899
302,0.00032795529114082456,1.0,0.3549812138080597,0.8957219251336899
303,0.00032592416391707957,1.0,0.3551580309867859,0.8957219251336899
304,0.0003239072684664279,1.0,0.35533109307289124,0.8957219251336899
305,0.00032191775972023606,1.0,0.3555062711238861,0.8957219251336899
306,0.0003199461498297751,1.0,0.35567083954811096,0.8957219251336899
307,0.00031798999407328665,1.0,0.355834424495697,0.8957219251336899
308,0.0003160564519930631,1.0,0.35599130392074585,0.8957219251336899
309,0.0003141336783301085,1.0,0.35614660382270813,0.8957219251336899
310,0.0003122454509139061,1.0,0.35629865527153015,0.8957219251336899
311,0.0003103655471932143,1.0,0.3564557433128357,0.8957219251336899
312,0.00030850464827381074,1.0,0.3565990626811981,0.8957219251336899
313,0.00030665332451462746,1.0,0.35675451159477234,0.8957219251336899
314,0.0003048245853278786,1.0,0.35691890120506287,0.8957219251336899
315,0.0003030066145583987,1.0,0.3570930063724518,0.8957219251336899
316,0.00030121361487545073,1.0,0.35725271701812744,0.8957219251336899
317,0.000299434905173257,1.0,0.3574029505252838,0.8957219251336899
318,0.00029767645173706114,1.0,0.35751989483833313,0.8957219251336899
319,0.000295921548968181,1.0,0.35763493180274963,0.8957219251336899
320,0.00029419883503578603,1.0,0.3577716052532196,0.8957219251336899
321,0.00029248083592392504,1.0,0.35792076587677,0.8957219251336899
322,0.00029078792431391776,1.0,0.35807520151138306,0.8957219251336899
323,0.0002891033363994211,1.0,0.3582327663898468,0.8957219251336899
324,0.00028743420261889696,1.0,0.35837432742118835,0.8957219251336899
325,0.0002857757790479809,1.0,0.35851818323135376,0.8957219251336899
326,0.0002841411915142089,1.0,0.35867398977279663,0.8957219251336899
327,0.00028252205811440945,1.0,0.3588387966156006,0.8957219251336899
328,0.0002809160214383155,1.0,0.3590097725391388,0.8957219251336899
329,0.00027931839576922357,1.0,0.35916635394096375,0.8957219251336899
330,0.0002777421323116869,1.0,0.359302818775177,0.8957219251336899
331,0.000276177772320807,1.0,0.35942813754081726,0.8957219251336899
332,0.00027463011792860925,1.0,0.35956478118896484,0.8957219251336899
333,0.0002730812702793628,1.0,0.35971128940582275,0.8957219251336899
334,0.0002715574228204787,1.0,0.3598712384700775,0.8957219251336899
335,0.0002700455079320818,1.0,0.36003267765045166,0.8957219251336899
336,0.00026854785392060876,1.0,0.36017370223999023,0.8957219251336899
337,0.00026706213247962296,1.0,0.36032527685165405,0.8957219251336899
338,0.00026558831450529397,1.0,0.3604757487773895,0.8957219251336899
339,0.0002641311730258167,1.0,0.3606262505054474,0.8957219251336899
340,0.0002626835776027292,1.0,0.3607570230960846,0.8957219251336899
341,0.00026124785654246807,1.0,0.3608745038509369,0.8957219251336899
342,0.0002598264254629612,1.0,0.36099693179130554,0.8957219251336899
343,0.00025842050672508776,1.0,0.361147940158844,0.8957219251336899
344,0.0002570205251686275,1.0,0.3612957000732422,0.8957219251336899
345,0.00025563008966855705,1.0,0.3614424467086792,0.8957219251336899
346,0.0002542503643780947,1.0,0.3615875244140625,0.8957219251336899
347,0.0002528944460209459,1.0,0.36172592639923096,0.8957219251336899
348,0.0002515349769964814,1.0,0.36186620593070984,0.8957219251336899
349,0.0002501933486200869,1.0,0.36200612783432007,0.8957219251336899
350,0.00024885532911866903,1.0,0.36213886737823486,0.8957219251336899
351,0.0002475435030646622,1.0,0.36228519678115845,0.8957219251336899
352,0.0002462376141920686,1.0,0.3624314069747925,0.8957219251336899
353,0.0002449353050906211,1.0,0.36256706714630127,0.8957219251336899
354,0.00024364965793211013,1.0,0.36269834637641907,0.8957219251336899
355,0.00024236879835370928,1.0,0.36283963918685913,0.8957219251336899
356,0.00024110222875606269,1.0,0.362995445728302,0.8957219251336899
357,0.00023984398285392672,1.0,0.3631417751312256,0.8957219251336899
358,0.00023859886277932674,1.0,0.36328592896461487,0.8957219251336899
359,0.00023735369904898107,1.0,0.3634299337863922,0.8957219251336899
360,0.00023613001394551247,1.0,0.36357083916664124,0.8957219251336899
361,0.00023491228057537228,1.0,0.36371251940727234,0.8957219251336899
362,0.00023369930568151176,1.0,0.36385443806648254,0.8957219251336899
363,0.00023250537924468517,1.0,0.3639945983886719,0.8957219251336899
364,0.00023131148191168904,1.0,0.3641233742237091,0.8957219251336899
365,0.00023013068130239844,1.0,0.3642541766166687,0.8957219251336899
366,0.00022896296286489815,1.0,0.3643680512905121,0.8957219251336899
367,0.00022780000290367752,1.0,0.36449098587036133,0.8957219251336899
368,0.00022664302377961576,1.0,0.3646218776702881,0.8957219251336899
369,0.00022550509311258793,1.0,0.3647589087486267,0.8957219251336899
370,0.00022436717699747533,1.0,0.3649158775806427,0.8957219251336899
371,0.00022324470046442002,1.0,0.36506155133247375,0.8957219251336899
372,0.0002221282193204388,1.0,0.36518919467926025,0.8957219251336899
373,0.0002210165112046525,1.0,0.3653297424316406,0.8957219251336899
374,0.0002199202572228387,1.0,0.3654573857784271,0.8957219251336899
375,0.00021881925931666046,1.0,0.3655865490436554,0.8824175824175824
376,0.0002177480491809547,1.0,0.3657107353210449,0.8824175824175824
377,0.00021667563123628497,1.0,0.3658398985862732,0.8824175824175824
378,0.00021560084132943302,1.0,0.36596667766571045,0.8824175824175824
379,0.00021454985835589468,1.0,0.3661016821861267,0.8734402852049911
380,0.00021350245515350252,1.0,0.3662398159503937,0.8734402852049911
381,0.00021245743846520782,1.0,0.3663795292377472,0.8734402852049911
382,0.00021142553305253386,1.0,0.36650535464286804,0.8734402852049911
383,0.000210388854611665,1.0,0.366631418466568,0.8734402852049911
384,0.00020937836961820722,1.0,0.36673852801322937,0.8734402852049911
385,0.0002083631552523002,1.0,0.36684438586235046,0.8734402852049911
386,0.00020737413433380425,1.0,0.3669687509536743,0.8734402852049911
387,0.00020636484259739518,1.0,0.36710187792778015,0.8734402852049911
388,0.00020538893295452,1.0,0.36724674701690674,0.8734402852049911
389,0.00020439393119886518,1.0,0.36738458275794983,0.8734402852049911
390,0.00020342040807008743,1.0,0.367514044046402,0.8734402852049911
391,0.0002024599671131,1.0,0.36764395236968994,0.8734402852049911
392,0.00020149952615611255,1.0,0.36776262521743774,0.8734402852049911
393,0.00020055340428370982,1.0,0.36787086725234985,0.8734402852049911
394,0.00019960607460234314,1.0,0.36798277497291565,0.8734402852049911
395,0.00019866111688315868,1.0,0.36809539794921875,0.8734402852049911
396,0.00019774000975303352,1.0,0.36820727586746216,0.8734402852049911
397,0.000196811743080616,1.0,0.3683321177959442,0.8734402852049911
398,0.00019589655857998878,1.0,0.36845266819000244,0.8734402852049911
399,0.00019498259644024074,1.0,0.3685697615146637,0.8734402852049911
400,0.00019407934451010078,1.0,0.3686901032924652,0.8734402852049911
401,0.00019317727128509432,1.0,0.36881697177886963,0.8734402852049911
402,0.00019228713063057512,1.0,0.36894431710243225,0.8734402852049911
403,0.00019140771473757923,1.0,0.3690620958805084,0.8734402852049911
404,0.0001905271055875346,1.0,0.3691737949848175,0.8734402852049911
405,0.0001896548201330006,1.0,0.3692810833454132,0.8734402852049911
406,0.00018879564595408738,1.0,0.36938047409057617,0.8734402852049911
407,0.00018792692571878433,1.0,0.3694956600666046,0.8734402852049911
408,0.00018706537957768887,1.0,0.36961477994918823,0.8734402852049911
409,0.0001862181379692629,1.0,0.3697434067726135,0.8734402852049911
410,0.00018538635049480945,1.0,0.36986929178237915,0.8734402852049911
411,0.0001845497899921611,1.0,0.3699900805950165,0.8734402852049911
412,0.0001837168529164046,1.0,0.3700999319553375,0.8734402852049911
413,0.0001828862732509151,1.0,0.3702090382575989,0.8734402852049911
414,0.00018206521053798497,1.0,0.3703049421310425,0.8734402852049911
415,0.00018125369388144463,1.0,0.37041860818862915,0.8734402852049911
416,0.0001804362254915759,1.0,0.37053006887435913,0.8734402852049911
417,0.00017963541904464364,1.0,0.3706403374671936,0.8734402852049911
418,0.00017884535191114992,1.0,0.3707459270954132,0.8734402852049911
419,0.00017804335220716894,1.0,0.37085574865341187,0.8734402852049911
420,0.00017726278747431934,1.0,0.37095847725868225,0.8734402852049911
421,0.00017647870117798448,1.0,0.3710748255252838,0.8734402852049911
422,0.0001756945566739887,1.0,0.3712019920349121,0.8734402852049911
423,0.00017493191990070045,1.0,0.3713199198246002,0.8734402852049911
424,0.00017416445189155638,1.0,0.3714179992675781,0.8734402852049911
425,0.0001734041579766199,1.0,0.3715154230594635,0.8734402852049911
426,0.00017264387861359864,1.0,0.3716175854206085,0.8734402852049911
427,0.00017189548816531897,1.0,0.3717274069786072,0.8734402852049911
428,0.0001711506920401007,1.0,0.3718334138393402,0.8734402852049911
429,0.00017040828242897987,1.0,0.3719364404678345,0.8734402852049911
430,0.00016966703697107732,1.0,0.3720417022705078,0.8734402852049911
431,0.00016893773863557726,1.0,0.37213972210884094,0.8734402852049911
432,0.00016821437748149037,1.0,0.37223219871520996,0.8734402852049911
433,0.00016748864436522126,1.0,0.37233230471611023,0.8734402852049911
434,0.00016677004168741405,1.0,0.3724384307861328,0.8734402852049911
435,0.00016605861310381442,1.0,0.37255483865737915,0.8734402852049911
436,0.0001653459621593356,1.0,0.3726705014705658,0.8734402852049911
437,0.0001646523887757212,1.0,0.37277719378471375,0.8734402852049911
438,0.00016395168495364487,1.0,0.3728829026222229,0.8734402852049911
439,0.00016325333854183555,1.0,0.372988760471344,0.8734402852049911
440,0.00016256571689154953,1.0,0.3730858564376831,0.8734402852049911
441,0.00016188051085919142,1.0,0.3731805384159088,0.8734402852049911
442,0.00016120003419928253,1.0,0.37327778339385986,0.8734402852049911
443,0.00016052791033871472,1.0,0.3733735680580139,0.8734402852049911
444,0.000159851013449952,1.0,0.3734782636165619,0.8734402852049911
445,0.00015917413111310452,1.0,0.3735869228839874,0.8734402852049911
446,0.00015851511852815747,1.0,0.37370067834854126,0.8734402852049911
447,0.00015785371942911297,1.0,0.3738079071044922,0.8734402852049911
448,0.00015720065857749432,1.0,0.37390750646591187,0.8734402852049911
449,0.00015654877643100917,1.0,0.374012291431427,0.8734402852049911
450,0.00015590166731271893,1.0,0.37412023544311523,0.8734402852049911
451,0.00015525576600339264,1.0,0.37423139810562134,0.8734402852049911
452,0.00015461580187547952,1.0,0.3743431866168976,0.8734402852049911
453,0.0001539746590424329,1.0,0.37443289160728455,0.8734402852049911
454,0.00015335020725615323,1.0,0.3745230734348297,0.8734402852049911
455,0.0001527197746327147,1.0,0.37461763620376587,0.8734402852049911
456,0.00015208814875222743,1.0,0.37471145391464233,0.8734402852049911
457,0.00015147442172747105,1.0,0.37481459975242615,0.8734402852049911
458,0.0001508535206085071,1.0,0.37491586804389954,0.8734402852049911
459,0.00015024215099401772,1.0,0.3750131130218506,0.8734402852049911
460,0.00014963079593144357,1.0,0.37510859966278076,0.8734402852049911
461,0.00014902777911629528,1.0,0.37519508600234985,0.8734402852049911
462,0.00014841998927295208,1.0,0.37528789043426514,0.8734402852049911
463,0.00014783126243855804,1.0,0.3754025101661682,0.8734402852049911
464,0.0001472318108426407,1.0,0.3755236864089966,0.8734402852049911
465,0.00014664429181721061,1.0,0.37563222646713257,0.8734402852049911
466,0.00014604722673539072,1.0,0.37573710083961487,0.8734402852049911
467,0.00014547278988175094,1.0,0.3758380115032196,0.8734402852049911
468,0.00014488644956145436,1.0,0.3759351968765259,0.8734402852049911
469,0.00014431681483983994,1.0,0.37603288888931274,0.8734402852049911
470,0.00014373523299582303,1.0,0.3761303722858429,0.8734402852049911
471,0.00014316676242742687,1.0,0.376229465007782,0.8734402852049911
472,0.0001426018716301769,1.0,0.3763250708580017,0.8734402852049911
473,0.00014203699538484216,1.0,0.37641143798828125,0.8734402852049911
474,0.00014147566980682313,1.0,0.37650153040885925,0.8734402852049911
475,0.00014092506899032742,1.0,0.3765958845615387,0.8734402852049911
476,0.00014037327491678298,1.0,0.3766949474811554,0.8734402852049911
477,0.00013981317169964314,1.0,0.37679243087768555,0.8734402852049911
478,0.00013926852261647582,1.0,0.376882940530777,0.8734402852049911
479,0.0001387274678563699,1.0,0.3769820034503937,0.8734402852049911
480,0.00013818878505844623,1.0,0.3770833909511566,0.8734402852049911
481,0.00013765010226052254,1.0,0.37717750668525696,0.8734402852049911
482,0.00013711024075746536,1.0,0.37726345658302307,0.8734402852049911
483,0.00013658586249221116,1.0,0.3773497939109802,0.8734402852049911
484,0.00013606146967504174,1.0,0.377438485622406,0.8734402852049911
485,0.00013553591270465404,1.0,0.3775279223918915,0.8734402852049911
486,0.0001350103411823511,1.0,0.3776227533817291,0.8734402852049911
487,0.00013449907419271767,1.0,0.37771597504615784,0.8734402852049911
488,0.00013397945440374315,1.0,0.3778130114078522,0.8734402852049911
489,0.00013347176718525589,1.0,0.3779132068157196,0.8734402852049911
490,0.00013296167890075594,1.0,0.3780052959918976,0.8734402852049911
491,0.00013245397713035345,1.0,0.3780876100063324,0.8734402852049911
492,0.00013195462815929204,1.0,0.37816089391708374,0.8734402852049911
493,0.00013145169941708446,1.0,0.37823453545570374,0.8734402852049911
494,0.00013095352915115654,1.0,0.37833502888679504,0.8734402852049911
495,0.00013046608364675194,1.0,0.3784570097923279,0.8734402852049911
496,0.00012996434816159308,1.0,0.3785734176635742,0.8734402852049911
497,0.00012948048242833465,1.0,0.378672331571579,0.8734402852049911
498,0.00012899423018097878,1.0,0.37876027822494507,0.8734402852049911
499,0.00012850917119067162,1.0,0.3788435161113739,0.8734402852049911
500,0.00012802888522855937,1.0,0.3789268434047699,0.8734402852049911
501,0.00012755455099977553,1.0,0.378996342420578,0.8734402852049911
502,0.00012708856957033277,1.0,0.379074364900589,0.8734402852049911
503,0.00012660588254220784,1.0,0.37916597723960876,0.8734402852049911
504,0.00012614107981789857,1.0,0.37925514578819275,0.8734402852049911
505,0.0001256762770935893,1.0,0.3793407082557678,0.8734402852049911
506,0.00012521148892119527,1.0,0.37943559885025024,0.8734402852049911
507,0.00012475265248212963,1.0,0.37954413890838623,0.8734402852049911
508,0.0001242842699866742,1.0,0.3796546757221222,0.8734402852049911
509,0.0001238289987668395,1.0,0.37975481152534485,0.8734402852049911
510,0.000123377307318151,1.0,0.3798423707485199,0.8734402852049911
511,0.00012292322935536504,1.0,0.37992700934410095,0.8734402852049911
512,0.0001224786974489689,1.0,0.3800075054168701,0.8734402852049911
513,0.00012203294318169355,1.0,0.38008832931518555,0.8734402852049911
514,0.00012158483150415123,1.0,0.38015517592430115,0.8734402852049911
515,0.00012114386481698602,1.0,0.38023123145103455,0.8734402852049911
516,0.00012070767115801573,1.0,0.3803039789199829,0.8734402852049911
517,0.00012027026969008148,1.0,0.3803892433643341,0.8734402852049911
518,0.00011982930300291628,1.0,0.3804885745048523,0.8734402852049911
519,0.00011940025433432311,1.0,0.38058456778526306,0.8734402852049911
520,0.00011897239892277867,1.0,0.38067495822906494,0.8734402852049911
521,0.00011854333570227027,1.0,0.3807622492313385,0.8734402852049911
522,0.00011811668082373217,1.0,0.3808463513851166,0.8734402852049911
523,0.00011769357661250979,1.0,0.38091719150543213,0.8734402852049911
524,0.000117264520667959,1.0,0.3809962272644043,0.8734402852049911
525,0.00011685215577017516,1.0,0.3810882568359375,0.8734402852049911
526,0.0001164338318631053,1.0,0.3811890780925751,0.8734402852049911
527,0.00011601788719417527,1.0,0.38129177689552307,0.8734402852049911
528,0.00011560194252524525,1.0,0.3813856542110443,0.8734402852049911
529,0.0001151955293607898,1.0,0.3814738094806671,0.8734402852049911
530,0.00011478792293928564,1.0,0.38154786825180054,0.8734402852049911
531,0.00011437913053669035,1.0,0.3816235661506653,0.8734402852049911
532,0.00011397391062928364,1.0,0.38170555233955383,0.8734402852049911
533,0.00011357702896930277,1.0,0.3817863464355469,0.8734402852049911
534,0.0001131789613282308,1.0,0.3818659782409668,0.8734402852049911
535,0.00011277016892563552,1.0,0.38193950057029724,0.8734402852049911
536,0.00011238401202717796,1.0,0.3820110857486725,0.8734402852049911
537,0.00011199429718544707,1.0,0.38209113478660583,0.8734402852049911
538,0.00011159145651618019,1.0,0.38217970728874207,0.8734402852049911
539,0.00011120767885586247,1.0,0.382271409034729,0.8734402852049911
540,0.00011082272976636887,1.0,0.3823596239089966,0.8734402852049911
541,0.00011042941332561895,1.0,0.38243627548217773,0.8734402852049911
542,0.00011005638225469738,1.0,0.382501482963562,0.8734402852049911
543,0.00010967141861328855,1.0,0.3825750946998596,0.8734402852049911
544,0.00010929122072411701,1.0,0.38266271352767944,0.8734402852049911
545,0.00010891936835832894,1.0,0.3827551305294037,0.8734402852049911
546,0.00010853797721210867,1.0,0.38283926248550415,0.8734402852049911
547,0.00010816850408446044,1.0,0.3829200565814972,0.8734402852049911
548,0.00010779069270938635,1.0,0.38299238681793213,0.8734402852049911
549,0.00010743075836217031,1.0,0.38307127356529236,0.8734402852049911
550,0.00010705414024414495,1.0,0.3831445276737213,0.8734402852049911
551,0.00010669063340174034,1.0,0.38322964310646057,0.8734402852049911
552,0.00010632474004523829,1.0,0.38332411646842957,0.8734402852049911
553,0.00010596718493616208,1.0,0.38340872526168823,0.8734402852049911
554,0.00010560247756075114,1.0,0.38349103927612305,0.8734402852049911
555,0.00010524730896577239,1.0,0.38357841968536377,0.8734402852049911
556,0.00010489214764675125,1.0,0.3836652338504791,0.8734402852049911
557,0.00010453577851876616,1.0,0.3837600648403168,0.8734402852049911
558,0.0001041853756760247,1.0,0.3838536739349365,0.8734402852049911
559,0.00010383378685219213,1.0,0.3839434087276459,0.8734402852049911
560,0.00010348099749535322,1.0,0.3840194642543793,0.8734402852049911
561,0.00010313773964298889,1.0,0.38408979773521423,0.8734402852049911
562,0.00010279568959958851,1.0,0.3841630816459656,0.8734402852049911
563,0.00010244527948088944,1.0,0.38423895835876465,0.8734402852049911
564,0.00010210679465672001,1.0,0.38432520627975464,0.8734402852049911
565,0.00010176712385145947,1.0,0.3844165802001953,0.8734402852049911
566,0.00010142744577024132,1.0,0.38451865315437317,0.8734402852049911
567,0.00010108418791787699,1.0,0.38461577892303467,0.8734402852049911
568,0.00010075761383632198,1.0,0.38469749689102173,0.8734402852049911
569,0.00010042270150734112,1.0,0.3847675323486328,0.8734402852049911
570,0.00010008661047322676,1.0,0.38485339283943176,0.8734402852049911
571,9.975287684937939e-05,1.0,0.3849429190158844,0.8734402852049911
572,9.943109034793451e-05,1.0,0.38502180576324463,0.8734402852049911
573,9.90997432381846e-05,1.0,0.38509872555732727,0.8734402852049911
574,9.877554839476943e-05,1.0,0.3851805031299591,0.8734402852049911
575,9.845256863627583e-05,1.0,0.3852681517601013,0.8734402852049911
576,9.813671931624413e-05,1.0,0.3853475749492645,0.8734402852049911
577,9.781968401512131e-05,1.0,0.3854273855686188,0.8734402852049911
578,9.74978829617612e-05,1.0,0.3855133056640625,0.8734402852049911
579,9.718442015582696e-05,1.0,0.3856014907360077,0.8734402852049911
580,9.686261910246685e-05,1.0,0.3856842815876007,0.8734402852049911
581,9.654558380134404e-05,1.0,0.3857589662075043,0.8734402852049911
582,9.624046651879326e-05,1.0,0.3858382999897003,0.8734402852049911
583,9.591985144652426e-05,1.0,0.38592395186424255,0.8734402852049911
584,9.561949991621077e-05,1.0,0.38600990176200867,0.8734402852049911
585,9.530365059617907e-05,1.0,0.3860889971256256,0.8734402852049911
586,9.499973384663463e-05,1.0,0.38616201281547546,0.8734402852049911
587,9.469342330703512e-05,1.0,0.38624250888824463,0.8734402852049911
588,9.439426503377035e-05,1.0,0.3863331377506256,0.8734402852049911
589,9.409033373231068e-05,1.0,0.38642165064811707,0.8734402852049911
590,9.378759568789974e-05,1.0,0.386502206325531,0.8734402852049911
591,9.34896306716837e-05,1.0,0.3865807354450226,0.8734402852049911
592,9.318927914137021e-05,1.0,0.3866628110408783,0.8734402852049911
593,9.28984591155313e-05,1.0,0.3867378234863281,0.8734402852049911
594,9.259692160412669e-05,1.0,0.386818528175354,0.8734402852049911
595,9.230491559719667e-05,1.0,0.3868987262248993,0.8734402852049911
596,9.202005458064377e-05,1.0,0.386982262134552,0.8734402852049911
597,9.173042781185359e-05,1.0,0.3870714604854584,0.8734402852049911
598,9.143603529082611e-05,1.0,0.3871578276157379,0.8734402852049911
599,9.115594002651051e-05,1.0,0.38723358511924744,0.8734402852049911
600,9.086632053367794e-05,1.0,0.3873138427734375,0.8734402852049911
601,9.057788702193648e-05,1.0,0.3873942792415619,0.8734402852049911
602,9.028706699609756e-05,1.0,0.3874760866165161,0.8734402852049911
603,9.00093509699218e-05,1.0,0.38755911588668823,0.8734402852049911
604,8.973522926680744e-05,1.0,0.3876386284828186,0.8734402852049911
605,8.944798173615709e-05,1.0,0.38771969079971313,0.8734402852049911
606,8.916669321479276e-05,1.0,0.38779959082603455,0.8734402852049911
607,8.890090975910425e-05,1.0,0.3878907561302185,0.8734402852049911
608,8.862200775183737e-05,1.0,0.38798168301582336,0.8734402852049911
609,8.834429900161922e-05,1.0,0.38806670904159546,0.8734402852049911
610,8.807731501292437e-05,1.0,0.38813748955726624,0.8734402852049911
611,8.779842028161511e-05,1.0,0.3882226049900055,0.8734402852049911
612,8.752547000767663e-05,1.0,0.3883245885372162,0.8734402852049911
613,8.726445958018303e-05,1.0,0.3884168565273285,0.8734402852049911
614,8.700104808667675e-05,1.0,0.38849884271621704,0.8734402852049911
615,8.672572585055605e-05,1.0,0.3885822296142578,0.8734402852049911
616,8.646588685223833e-05,1.0,0.38866981863975525,0.8734402852049911
617,8.620366861578077e-05,1.0,0.3887493312358856,0.8734402852049911
618,8.593789243604988e-05,1.0,0.38881903886795044,0.8734402852049911
619,8.567686018068343e-05,1.0,0.38889655470848083,0.8734402852049911
620,8.541345596313477e-05,1.0,0.38897430896759033,0.8734402852049911
621,8.515957597410306e-05,1.0,0.3890514373779297,0.8734402852049911
622,8.48961717565544e-05,1.0,0.38913536071777344,0.8734402852049911
623,8.463753329124302e-05,1.0,0.38921797275543213,0.8734402852049911
624,8.438366057816893e-05,1.0,0.38930007815361023,0.8734402852049911
625,8.413456089328974e-05,1.0,0.38938647508621216,0.8734402852049911
626,8.387710113311186e-05,1.0,0.3894757330417633,0.8734402852049911
627,8.362561493413523e-05,1.0,0.38956207036972046,0.8734402852049911
628,8.337293547810987e-05,1.0,0.38964658975601196,0.8734402852049911
629,8.312144200317562e-05,1.0,0.3897254168987274,0.8734402852049911
630,8.287590753752738e-05,1.0,0.3898031413555145,0.8734402852049911
631,8.262800110969692e-05,1.0,0.3898829519748688,0.8734402852049911
632,8.23729278636165e-05,1.0,0.38996511697769165,0.8734402852049911
633,8.213455294026062e-05,1.0,0.39004987478256226,0.8734402852049911
634,8.189379150280729e-05,1.0,0.3901274800300598,0.8734402852049911
635,8.165065082721412e-05,1.0,0.39020979404449463,0.8734402852049911
636,8.140748832374811e-05,1.0,0.3902875483036041,0.8734402852049911
637,8.11571953818202e-05,1.0,0.3903680443763733,0.8734402852049911
638,8.09176272014156e-05,1.0,0.39044487476348877,0.8734402852049911
639,8.068162424024194e-05,1.0,0.3905194401741028,0.8734402852049911
640,8.045278082136065e-05,1.0,0.39059287309646606,0.8734402852049911
641,8.020724635571241e-05,1.0,0.3906601667404175,0.8734402852049911
642,7.997602369869128e-05,1.0,0.3907334804534912,0.8734402852049911
643,7.973764149937779e-05,1.0,0.3908165693283081,0.8734402852049911
644,7.951237057568505e-05,1.0,0.3909086287021637,0.8734402852049911
645,7.927756814751774e-05,1.0,0.39101019501686096,0.8734402852049911
646,7.904633821453899e-05,1.0,0.3911017179489136,0.8734402852049911
647,7.881630153860897e-05,1.0,0.3911798894405365,0.8734402852049911
648,7.858626486267895e-05,1.0,0.3912462294101715,0.8734402852049911
649,7.83609866630286e-05,1.0,0.3913165330886841,0.8734402852049911
650,7.812499097781256e-05,1.0,0.3913863003253937,0.8734402852049911
651,7.7903299825266e-05,1.0,0.391458123922348,0.8734402852049911
652,7.768040813971311e-05,1.0,0.39153173565864563,0.8734402852049911
653,7.745394395897165e-05,1.0,0.39161211252212524,0.8734402852049911
654,7.722747977823019e-05,1.0,0.3916962444782257,0.8734402852049911
655,7.700220157857984e-05,1.0,0.3917895555496216,0.8734402852049911
656,7.678766269236803e-05,1.0,0.39188510179519653,0.8734402852049911
657,7.657193054910749e-05,1.0,0.3919624984264374,0.8734402852049911
658,7.634784560650587e-05,1.0,0.39202913641929626,0.8734402852049911
659,7.613330672029406e-05,1.0,0.3921048641204834,0.8734402852049911
660,7.591042231069878e-05,1.0,0.3921821117401123,0.8734402852049911
661,7.56934896344319e-05,1.0,0.3922605514526367,0.8734402852049911
662,7.547895074822009e-05,1.0,0.3923335075378418,0.8734402852049911
663,7.526679110014811e-05,1.0,0.3924066126346588,0.8734402852049911
664,7.504628592869267e-05,1.0,0.39248549938201904,0.8734402852049911
665,7.483292574761435e-05,1.0,0.39256370067596436,0.8734402852049911
666,7.462433859473094e-05,1.0,0.392643541097641,0.8734402852049911
667,7.44086064514704e-05,1.0,0.39272329211235046,0.8734402852049911
668,7.420836482197046e-05,1.0,0.3928033411502838,0.8734402852049911
669,7.399739843094721e-05,1.0,0.39288780093193054,0.8734402852049911
670,7.379001181107014e-05,1.0,0.3929755985736847,0.8734402852049911
671,7.35754583729431e-05,1.0,0.3930602967739105,0.8734402852049911
672,7.337401621043682e-05,1.0,0.39312881231307983,0.8734402852049911
673,7.316782284760848e-05,1.0,0.3932027220726013,0.8734402852049911
674,7.296758121810853e-05,1.0,0.39328494668006897,0.8734402852049911
675,7.275660755112767e-05,1.0,0.3933677077293396,0.8734402852049911
676,7.255516538862139e-05,1.0,0.3934480845928192,0.8734402852049911
677,7.235493103507906e-05,1.0,0.39352941513061523,0.8734402852049911
678,7.215230289148167e-05,1.0,0.3936077058315277,0.8734402852049911
679,7.195206126198173e-05,1.0,0.39368438720703125,0.8734402852049911
680,7.175181963248178e-05,1.0,0.39376625418663025,0.8734402852049911
681,7.154919148888439e-05,1.0,0.39384984970092773,0.8734402852049911
682,7.135132909752429e-05,1.0,0.39393484592437744,0.8734402852049911
683,7.114989421097562e-05,1.0,0.39401236176490784,0.8734402852049911
684,7.095799810485914e-05,1.0,0.3940887451171875,0.8734402852049911
685,7.076371548464522e-05,1.0,0.39416930079460144,0.8734402852049911
686,7.056703907437623e-05,1.0,0.394254207611084,0.8734402852049911
687,7.03668047208339e-05,1.0,0.39433398842811584,0.8734402852049911
688,7.017132156761363e-05,1.0,0.39440998435020447,0.8734402852049911
689,6.998537719482556e-05,1.0,0.3944859504699707,0.8734402852049911
690,6.979467434575781e-05,1.0,0.39456313848495483,0.8734402852049911
691,6.960754399187863e-05,1.0,0.3946417570114136,0.8734402852049911
692,6.941682659089565e-05,1.0,0.39471954107284546,0.8734402852049911
693,6.921659223735332e-05,1.0,0.3947978913784027,0.8734402852049911
694,6.903541361680254e-05,1.0,0.3948748707771301,0.8734402852049911
695,6.884470349177718e-05,1.0,0.3949443995952606,0.8734402852049911
696,6.865518662380055e-05,1.0,0.3950048089027405,0.8734402852049911
697,6.84704355080612e-05,1.0,0.39507827162742615,0.8734402852049911
698,6.828807818237692e-05,1.0,0.39515241980552673,0.8734402852049911
699,6.809855403844267e-05,1.0,0.3952235281467438,0.8734402852049911
700,6.791976920794696e-05,1.0,0.3952958881855011,0.8734402852049911
701,6.773025233997032e-05,1.0,0.39537033438682556,0.8734402852049911
702,6.755026697646827e-05,1.0,0.39545366168022156,0.8734402852049911
703,6.737028888892382e-05,1.0,0.3955422043800354,0.8734402852049911
704,6.718315125908703e-05,1.0,0.39561378955841064,0.8734402852049911
705,6.700197991449386e-05,1.0,0.39567986130714417,0.8734402852049911
706,6.683034007437527e-05,1.0,0.3957520127296448,0.8734402852049911
707,6.665274122497067e-05,1.0,0.3958248198032379,0.8734402852049911
708,6.647156260441989e-05,1.0,0.395894318819046,0.8734402852049911
709,6.629158451687545e-05,1.0,0.3959713578224182,0.8734402852049911
710,6.611875141970813e-05,1.0,0.39604923129081726,0.8734402852049911
711,6.593638681806624e-05,1.0,0.39611610770225525,0.8734402852049911
712,6.577070598723367e-05,1.0,0.3961796462535858,0.8734402852049911
713,6.55847616144456e-05,1.0,0.39625343680381775,0.8734402852049911
714,6.541312177432701e-05,1.0,0.39632853865623474,0.8734402852049911
715,6.523790943901986e-05,1.0,0.39640066027641296,0.8734402852049911
716,6.506389036076143e-05,1.0,0.39647001028060913,0.8734402852049911
717,6.489582301583141e-05,1.0,0.3965355455875397,0.8734402852049911
718,6.472417589975521e-05,1.0,0.3966015577316284,0.8734402852049911
719,6.455730908783153e-05,1.0,0.39667433500289917,0.8734402852049911
720,6.438090349547565e-05,1.0,0.3967360258102417,0.8734402852049911
721,6.421283615054563e-05,1.0,0.39679914712905884,0.8734402852049911
722,6.404119631042704e-05,1.0,0.3968724310398102,0.8734402852049911
723,6.388028850778937e-05,1.0,0.39695048332214355,0.8734402852049911
724,6.370626215357333e-05,1.0,0.3970302641391754,0.8734402852049911
725,6.354534707497805e-05,1.0,0.3971019685268402,0.8734402852049911
726,6.338205275824293e-05,1.0,0.397169291973114,0.8734402852049911
727,6.321042019408196e-05,1.0,0.39723482728004456,0.8734402852049911
728,6.304354610620067e-05,1.0,0.3973068296909332,0.8734402852049911
729,6.288501026574522e-05,1.0,0.3973759412765503,0.8734402852049911
730,6.271695019677281e-05,1.0,0.39743876457214355,0.8734402852049911
731,6.255008338484913e-05,1.0,0.39750099182128906,0.8734402852049911
732,6.23915548203513e-05,1.0,0.3975701928138733,0.8734402852049911
733,6.223063246579841e-05,1.0,0.3976384699344635,0.8734402852049911
734,6.206972466316074e-05,1.0,0.3977046608924866,0.8734402852049911
735,6.190642307046801e-05,1.0,0.3977752923965454,0.8734402852049911
736,6.175028102006763e-05,1.0,0.39784759283065796,0.8734402852049911
737,6.159294571261853e-05,1.0,0.3979176878929138,0.8734402852049911
738,6.14296441199258e-05,1.0,0.39798489212989807,0.8734402852049911
739,6.127469532657415e-05,1.0,0.3980507552623749,0.8734402852049911
740,6.111496622906998e-05,1.0,0.3981238603591919,0.8734402852049911
741,6.0963597206864506e-05,1.0,0.39819684624671936,0.8734402852049911
742,6.080387538531795e-05,1.0,0.39826568961143494,0.8734402852049911
743,6.064891567802988e-05,1.0,0.3983367383480072,0.8734402852049911
744,6.0489193856483325e-05,1.0,0.398404061794281,0.8734402852049911
745,6.03402077103965e-05,1.0,0.3984684646129608,0.8734402852049911
746,6.0192407545400783e-05,1.0,0.3985319137573242,0.8734402852049911
747,6.0035068599972874e-05,1.0,0.39860671758651733,0.8734402852049911
748,5.9882495406782255e-05,1.0,0.3986867368221283,0.8734402852049911
749,5.9733501984737813e-05,1.0,0.3987618684768677,0.8734402852049911
750,5.957139364909381e-05,1.0,0.398833304643631,0.8734402852049911
751,5.942240386502817e-05,1.0,0.39890357851982117,0.8734402852049911
752,5.927102392888628e-05,1.0,0.39897146821022034,0.8734402852049911
753,5.912203050684184e-05,1.0,0.3990437686443329,0.8734402852049911
754,5.897065420867875e-05,1.0,0.39911940693855286,0.8734402852049911
755,5.883000631001778e-05,1.0,0.3991954028606415,0.8734402852049911
756,5.868577864021063e-05,1.0,0.3992689549922943,0.8734402852049911
757,5.853201218997128e-05,1.0,0.3993392884731293,0.8734402852049911
758,5.838540164404549e-05,1.0,0.3994072675704956,0.8734402852049911
759,5.823521860293113e-05,1.0,0.3994726836681366,0.8734402852049911
760,5.8092180552193895e-05,1.0,0.39954450726509094,0.8734402852049911
761,5.79455700062681e-05,1.0,0.3996211290359497,0.8734402852049911
762,5.7809691497823223e-05,1.0,0.3996908366680145,0.8734402852049911
763,5.765830792370252e-05,1.0,0.39975273609161377,0.8734402852049911
764,5.751050775870681e-05,1.0,0.3998190462589264,0.8734402852049911
765,5.736747334594838e-05,1.0,0.39989039301872253,0.8734402852049911
766,5.722562491428107e-05,1.0,0.3999575078487396,0.8734402852049911
767,5.7086170272668824e-05,1.0,0.4000246226787567,0.8734402852049911
768,5.693955608876422e-05,1.0,0.4000864326953888,0.8734402852049911
769,5.680248432327062e-05,1.0,0.40014785528182983,0.8734402852049911
770,5.666063952958211e-05,1.0,0.4002101421356201,0.8734402852049911
771,5.6521184887969866e-05,1.0,0.40028366446495056,0.8734402852049911
772,5.638410584651865e-05,1.0,0.4003627598285675,0.8734402852049911
773,5.625060657621361e-05,1.0,0.4004409611225128,0.8734402852049911
774,5.610399603028782e-05,1.0,0.4005124568939209,0.8734402852049911
775,5.596810660790652e-05,1.0,0.4005855321884155,0.8734402852049911
776,5.5832228099461645e-05,1.0,0.40065768361091614,0.8734402852049911
777,5.5695152695989236e-05,1.0,0.40072429180145264,0.8734402852049911
778,5.5554504797328264e-05,1.0,0.400785893201828,0.8734402852049911
779,5.5418619012925774e-05,1.0,0.4008459448814392,0.8734402852049911
780,5.528153633349575e-05,1.0,0.40091270208358765,0.8734402852049911
781,5.514804070116952e-05,1.0,0.4009827971458435,0.8734402852049911
782,5.501812120201066e-05,1.0,0.40105846524238586,0.8734402852049911
783,5.488700116984546e-05,1.0,0.4011329412460327,0.8734402852049911
784,5.4753501899540424e-05,1.0,0.4011927843093872,0.8734402852049911
785,5.461880937218666e-05,1.0,0.4012550115585327,0.8734402852049911
786,5.448292358778417e-05,1.0,0.40131980180740356,0.8734402852049911
787,5.435658022179268e-05,1.0,0.40138453245162964,0.8734402852049911
788,5.4227846703724936e-05,1.0,0.4014571011066437,0.8734402852049911
789,5.409076766227372e-05,1.0,0.4015236496925354,0.8734402852049911
790,5.395846164901741e-05,1.0,0.40159088373184204,0.8734402852049911
791,5.382972813094966e-05,1.0,0.40165892243385315,0.8734402852049911
792,5.370219150790945e-05,1.0,0.40172865986824036,0.8734402852049911
793,5.3567495342576876e-05,1.0,0.4017980098724365,0.8734402852049911
794,5.3436378948390484e-05,1.0,0.401863157749176,0.8734402852049911
795,5.331718421075493e-05,1.0,0.4019334316253662,0.8734402852049911
796,5.318487455951981e-05,1.0,0.40200576186180115,0.8734402852049911
797,5.3057330660521984e-05,1.0,0.4020746648311615,0.8734402852049911
798,5.292740388540551e-05,1.0,0.4021454155445099,0.8734402852049911
799,5.2802246500505134e-05,1.0,0.40220892429351807,0.8734402852049911
800,5.2677092753583565e-05,1.0,0.40227025747299194,0.8734402852049911
801,5.2561474149115384e-05,1.0,0.40232986211776733,0.8734402852049911
802,5.2425588364712894e-05,1.0,0.4023946225643158,0.8734402852049911
803,5.230281385593116e-05,1.0,0.4024628698825836,0.8734402852049911
804,5.218004298512824e-05,1.0,0.40252822637557983,0.8734402852049911
805,5.205250272410922e-05,1.0,0.40259796380996704,0.8734402852049911
806,5.192853859625757e-05,1.0,0.4026698172092438,0.8734402852049911
807,5.180814696359448e-05,1.0,0.4027343690395355,0.8734402852049911
808,5.1681799959624186e-05,1.0,0.4027954041957855,0.8734402852049911
809,5.156856059329584e-05,1.0,0.4028588533401489,0.8734402852049911
810,5.144220995134674e-05,1.0,0.40291544795036316,0.8734402852049911
811,5.132540172780864e-05,1.0,0.4029731750488281,0.8734402852049911
812,5.120619971421547e-05,1.0,0.4030308425426483,0.8734402852049911
813,5.107270408188924e-05,1.0,0.40309134125709534,0.8734402852049911
814,5.095708183944225e-05,1.0,0.4031534492969513,0.8734402852049911
815,5.0834303692681715e-05,1.0,0.40321844816207886,0.8734402852049911
816,5.0722261221380904e-05,1.0,0.40328237414360046,0.8734402852049911
817,5.059948671259917e-05,1.0,0.403344988822937,0.8734402852049911
818,5.047671220381744e-05,1.0,0.4034135341644287,0.8734402852049911
819,5.0362286856397986e-05,1.0,0.4034796953201294,0.8734402852049911
820,5.024308120482601e-05,1.0,0.4035438001155853,0.8734402852049911
821,5.0126269343309104e-05,1.0,0.40360549092292786,0.8734402852049911
822,5.001065073884092e-05,1.0,0.40366828441619873,0.8734402852049911
823,4.989741137251258e-05,1.0,0.4037347435951233,0.8734402852049911
824,4.9778216634877026e-05,1.0,0.4038030207157135,0.8734402852049911
825,4.967213317286223e-05,1.0,0.4038688540458679,0.8734402852049911
826,4.9546975787961856e-05,1.0,0.4039335250854492,0.8734402852049911
827,4.9428967031417415e-05,1.0,0.40399497747421265,0.8734402852049911
828,4.932049705530517e-05,1.0,0.4040566682815552,0.8734402852049911
829,4.919771890854463e-05,1.0,0.40411749482154846,0.8734402852049911
830,4.908925257041119e-05,1.0,0.4041837155818939,0.8734402852049911
831,4.897958933725022e-05,1.0,0.40425002574920654,0.8734402852049911
832,4.8869926104089245e-05,1.0,0.4043099880218506,0.8734402852049911
833,4.8754307499621063e-05,1.0,0.4043695330619812,0.8734402852049911
834,4.8639874876243994e-05,1.0,0.40442752838134766,0.8734402852049911
835,4.852544589084573e-05,1.0,0.40448686480522156,0.8734402852049911
836,4.8421741666970775e-05,1.0,0.4045453667640686,0.8734402852049911
837,4.830373654840514e-05,1.0,0.4046100080013275,0.8734402852049911
838,4.819288369617425e-05,1.0,0.404673308134079,0.8734402852049911
839,4.8090376367326826e-05,1.0,0.4047384560108185,0.8734402852049911
840,4.797594010597095e-05,1.0,0.40479782223701477,0.8734402852049911
841,4.7866280510788783e-05,1.0,0.40485700964927673,0.8734402852049911
842,4.775900379172526e-05,1.0,0.4049173593521118,0.8734402852049911
843,4.764934055856429e-05,1.0,0.40497907996177673,0.8734402852049911
844,4.753967732540332e-05,1.0,0.40504133701324463,0.8734402852049911
845,4.7430014092242345e-05,1.0,0.4051097631454468,0.8734402852049911
846,4.732035085908137e-05,1.0,0.4051724970340729,0.8734402852049911
847,4.721426739706658e-05,1.0,0.40522992610931396,0.8734402852049911
848,4.711175643024035e-05,1.0,0.4052863121032715,0.8734402852049911
849,4.7002093197079375e-05,1.0,0.405344158411026,0.8734402852049911
850,4.689600245910697e-05,1.0,0.405392587184906,0.8734402852049911
851,4.6788729378022254e-05,1.0,0.4054487645626068,0.8734402852049911
852,4.668621841119602e-05,1.0,0.40551185607910156,0.8734402852049911
853,4.6584904339397326e-05,1.0,0.40557608008384705,0.8734402852049911
854,4.6468081563944e-05,1.0,0.40564268827438354,0.8734402852049911
855,4.636915400624275e-05,1.0,0.4057105481624603,0.8734402852049911
856,4.626425288734026e-05,1.0,0.4057750999927521,0.8734402852049911
857,4.616055230144411e-05,1.0,0.4058381915092468,0.8734402852049911
858,4.6061617467785254e-05,1.0,0.40589842200279236,0.8734402852049911
859,4.594599158735946e-05,1.0,0.4059598743915558,0.8734402852049911
860,4.584706402965821e-05,1.0,0.4060218036174774,0.8734402852049911
861,4.574454578687437e-05,1.0,0.4060826301574707,0.8734402852049911
862,4.5642038458026946e-05,1.0,0.40614938735961914,0.8734402852049911
863,4.554191036731936e-05,1.0,0.40621528029441833,0.8734402852049911
864,4.5445358409779146e-05,1.0,0.40627384185791016,0.8734402852049911
865,4.533927494776435e-05,1.0,0.40633437037467957,0.8734402852049911
866,4.523914321907796e-05,1.0,0.40639403462409973,0.8734402852049911
867,4.513782187132165e-05,1.0,0.4064559042453766,0.8734402852049911
868,4.5036504161544144e-05,1.0,0.40651553869247437,0.8734402852049911
869,4.49375766038429e-05,1.0,0.40657371282577515,0.8734402852049911
870,4.483625525608659e-05,1.0,0.40662819147109985,0.8734402852049911
871,4.473851004149765e-05,1.0,0.40668508410453796,0.8734402852049911
872,4.463838195079006e-05,1.0,0.406742662191391,0.8734402852049911
873,4.4541833631228656e-05,1.0,0.40679290890693665,0.8734402852049911
874,4.4442898797569796e-05,1.0,0.4068456292152405,0.8734402852049911
875,4.434158108779229e-05,1.0,0.40690359473228455,0.8734402852049911
876,4.42414493591059e-05,1.0,0.4069651663303375,0.8734402852049911
877,4.414251452544704e-05,1.0,0.4070284962654114,0.8734402852049911
878,4.404596256790683e-05,1.0,0.40708795189857483,0.8734402852049911
879,4.395060022943653e-05,1.0,0.40715184807777405,0.8734402852049911
880,4.3854051909875125e-05,1.0,0.4072188436985016,0.8734402852049911
881,4.3755117076216266e-05,1.0,0.4072783589363098,0.8734402852049911
882,4.3660951632773504e-05,1.0,0.407331645488739,0.8734402852049911
883,4.3559633922996e-05,1.0,0.4073883593082428,0.8734402852049911
884,4.346427522250451e-05,1.0,0.4074474275112152,0.8734402852049911
885,4.337487189332023e-05,1.0,0.4075055718421936,0.8734402852049911
886,4.328071008785628e-05,1.0,0.4075603485107422,0.8734402852049911
887,4.319130312069319e-05,1.0,0.4076181650161743,0.8734402852049911
888,4.308879215386696e-05,1.0,0.4076765775680542,0.8734402852049911
889,4.29946267104242e-05,1.0,0.4077335298061371,0.8734402852049911
890,4.290164724807255e-05,1.0,0.40779048204421997,0.8734402852049911
891,4.2806295823538676e-05,1.0,0.4078478217124939,0.8734402852049911
892,4.271093712304719e-05,1.0,0.40790656208992004,0.8734402852049911
893,4.261438152752817e-05,1.0,0.40795817971229553,0.8734402852049911
894,4.252497819834389e-05,1.0,0.40800994634628296,0.8734402852049911
895,4.243558214511722e-05,1.0,0.40806037187576294,0.8871551334237902
896,4.234260632074438e-05,1.0,0.4081157445907593,0.8871551334237902
897,4.225201701046899e-05,1.0,0.40817713737487793,0.8871551334237902
898,4.2155465052928776e-05,1.0,0.4082395136356354,0.8871551334237902
899,4.2063675209647045e-05,1.0,0.4082978069782257,0.8871551334237902
900,4.197427915642038e-05,1.0,0.4083535671234131,0.8871551334237902
901,4.188368984614499e-05,1.0,0.4084037244319916,0.8871551334237902
902,4.1790714021772146e-05,1.0,0.40846002101898193,0.8871551334237902
903,4.170369720668532e-05,1.0,0.40852561593055725,0.8871551334237902
904,4.161310425843112e-05,1.0,0.4085840582847595,0.8871551334237902
905,4.152966721449047e-05,1.0,0.40863800048828125,0.8871551334237902
906,4.1434308513998985e-05,1.0,0.4086947441101074,0.8871551334237902
907,4.133656693738885e-05,1.0,0.4087531864643097,0.8871551334237902
908,4.125312261749059e-05,1.0,0.40880849957466125,0.8871551334237902
909,4.116252966923639e-05,1.0,0.4088626801967621,0.8871551334237902
910,4.107670611119829e-05,1.0,0.40892112255096436,0.8871551334237902
911,4.0987310057971627e-05,1.0,0.40897902846336365,0.8871551334237902
912,4.090744550921954e-05,1.0,0.4090348780155182,0.8871551334237902
913,4.080970393260941e-05,1.0,0.4090903401374817,0.8871551334237902
914,4.07238767365925e-05,1.0,0.40914687514305115,0.8871551334237902
915,4.064043969265185e-05,1.0,0.4092072546482086,0.8871551334237902
916,4.055580575368367e-05,1.0,0.4092673361301422,0.8871551334237902
917,4.046282629133202e-05,1.0,0.4093165993690491,0.8871551334237902
918,4.0382965380558744e-05,1.0,0.409370094537735,0.8871551334237902
919,4.0299528336618096e-05,1.0,0.40943172574043274,0.8871551334237902
920,4.021251152153127e-05,1.0,0.40949058532714844,0.8871551334237902
921,4.0125491068465635e-05,1.0,0.409542977809906,0.8871551334237902
922,4.004324728157371e-05,1.0,0.40959179401397705,0.8871551334237902
923,3.9957420085556805e-05,1.0,0.40964677929878235,0.8871551334237902
924,3.987279342254624e-05,1.0,0.4097031056880951,0.8871551334237902
925,3.9789349102647975e-05,1.0,0.4097609519958496,0.8871551334237902
926,3.970233228756115e-05,1.0,0.40982046723365784,0.8871551334237902
927,3.9617701986571774e-05,1.0,0.4098822772502899,0.8871551334237902
928,3.953068517148495e-05,1.0,0.40993988513946533,0.8871551334237902
929,3.9453207136830315e-05,1.0,0.4099966287612915,0.8871551334237902
930,3.937095607398078e-05,1.0,0.41005903482437134,0.8871551334237902
931,3.9289901906158775e-05,1.0,0.4101245701313019,0.8871551334237902
932,3.92052716051694e-05,1.0,0.41018548607826233,0.8871551334237902
933,3.912063766620122e-05,1.0,0.4102427661418915,0.8871551334237902
934,3.904315599356778e-05,1.0,0.4102906286716461,0.8871551334237902
935,3.8958525692578405e-05,1.0,0.41033682227134705,0.8871551334237902
936,3.887985076289624e-05,1.0,0.41038480401039124,0.8871551334237902
937,3.879998985212296e-05,1.0,0.410439133644104,0.8871551334237902
938,3.872012530337088e-05,1.0,0.41050174832344055,0.8871551334237902
939,3.8640260754618794e-05,1.0,0.41056379675865173,0.8871551334237902
940,3.855682007269934e-05,1.0,0.41062602400779724,0.8871551334237902
941,3.84793384000659e-05,1.0,0.41068235039711,0.8871551334237902
942,3.8398284232243896e-05,1.0,0.41073355078697205,0.8871551334237902
943,3.831960930256173e-05,1.0,0.41078630089759827,0.8871551334237902
944,3.82421312679071e-05,1.0,0.4108421206474304,0.8871551334237902
945,3.8156307709869e-05,1.0,0.4108981192111969,0.8871551334237902
946,3.807882603723556e-05,1.0,0.41095203161239624,0.8871551334237902
947,3.800134436460212e-05,1.0,0.4110032618045807,0.8871551334237902
948,3.791909693973139e-05,1.0,0.41105133295059204,0.8871551334237902
949,3.783684951486066e-05,1.0,0.411101758480072,0.8871551334237902
950,3.776056109927595e-05,1.0,0.41115912795066833,0.8871551334237902
951,3.768665555980988e-05,1.0,0.4112215042114258,0.8871551334237902
952,3.761513653444126e-05,1.0,0.41127413511276245,0.8871551334237902
953,3.753050259547308e-05,1.0,0.4113178253173828,0.8871551334237902
954,3.7460173189174384e-05,1.0,0.4113585650920868,0.8871551334237902
955,3.73755392502062e-05,1.0,0.41141074895858765,0.8871551334237902
956,3.730640673893504e-05,1.0,0.41147053241729736,0.8871551334237902
957,3.7226542190182954e-05,1.0,0.4115276634693146,0.8871551334237902
958,3.71431015082635e-05,1.0,0.41158056259155273,0.8871551334237902
959,3.70775414921809e-05,1.0,0.41163089871406555,0.8871551334237902
960,3.699887020047754e-05,1.0,0.411680668592453,0.8871551334237902
961,3.6915429518558085e-05,1.0,0.411734938621521,0.8871551334237902
962,3.684867624542676e-05,1.0,0.41179466247558594,0.8871551334237902
963,3.677358108689077e-05,1.0,0.41185787320137024,0.8871551334237902
964,3.669848229037598e-05,1.0,0.4119175374507904,0.8871551334237902
965,3.662815652205609e-05,1.0,0.41196906566619873,0.8871551334237902
966,3.654948159237392e-05,1.0,0.41201895475387573,0.8871551334237902
967,3.6474386433837935e-05,1.0,0.4120648205280304,0.8871551334237902
968,3.6398094380274415e-05,1.0,0.4121163487434387,0.8871551334237902
969,3.632777224993333e-05,1.0,0.41217777132987976,0.8871551334237902
970,3.624790406320244e-05,1.0,0.4122365415096283,0.8871551334237902
971,3.6184726923238486e-05,1.0,0.41228750348091125,0.8871551334237902
972,3.610605199355632e-05,1.0,0.41233953833580017,0.8871551334237902
973,3.603691948228516e-05,1.0,0.4123939871788025,0.8871551334237902
974,3.595824455260299e-05,1.0,0.41245192289352417,0.8871551334237902
975,3.58926881744992e-05,1.0,0.4125049412250519,0.8871551334237902
976,3.581639612093568e-05,1.0,0.4125603437423706,0.8871551334237902
977,3.574607035261579e-05,1.0,0.41261592507362366,0.8871551334237902
978,3.567454405128956e-05,1.0,0.4126681387424469,0.8871551334237902
979,3.559110700734891e-05,1.0,0.4127207100391388,0.8871551334237902
980,3.552077760105021e-05,1.0,0.412777304649353,0.8871551334237902
981,3.5454027965897694e-05,1.0,0.4128342270851135,0.8871551334237902
982,3.538250530255027e-05,1.0,0.41289183497428894,0.8871551334237902
983,3.5307410144014284e-05,1.0,0.41294676065444946,0.8871551334237902
984,3.524542262312025e-05,1.0,0.4130038321018219,0.8871551334237902
985,3.5173899959772825e-05,1.0,0.4130592942237854,0.8871551334237902
986,3.510238093440421e-05,1.0,0.413114458322525,0.8871551334237902
987,3.502847903291695e-05,1.0,0.4131684899330139,0.8871551334237902
988,3.495933924568817e-05,1.0,0.41322943568229675,0.8871551334237902
989,3.4887820220319554e-05,1.0,0.41328656673431396,0.8871551334237902
990,3.482106694718823e-05,1.0,0.41334259510040283,0.8871551334237902
991,3.475074117886834e-05,1.0,0.4134024679660797,0.8871551334237902
992,3.468398790573701e-05,1.0,0.4134587049484253,0.8871551334237902
993,3.460888910922222e-05,1.0,0.41351476311683655,0.8871551334237902
994,3.454213583609089e-05,1.0,0.4135683476924896,0.8871551334237902
995,3.448611460044049e-05,1.0,0.4136215150356293,0.8871551334237902
996,3.441339868004434e-05,1.0,0.4136764109134674,0.8871551334237902
997,3.4341876016696915e-05,1.0,0.41373369097709656,0.8871551334237902
998,3.4275126381544396e-05,1.0,0.41378700733184814,0.8871551334237902
999,3.421194924158044e-05,1.0,0.41384246945381165,0.8871551334237902
