,loss,recall,val_loss,val_recall
0,0.5806407928466797,0.6472711811997526,0.6529850959777832,0.3125
1,0.24648693203926086,0.9092403628117912,0.5949610471725464,0.8545121545121546
2,0.1585227996110916,0.9492888064316636,0.482677161693573,0.8738095238095237
3,0.07366897165775299,1.0,0.3397105634212494,0.8863069470212327
4,0.03059352934360504,1.0,0.27494487166404724,0.8863069470212327
5,0.013532870449125767,1.0,0.29937323927879333,0.8946969696969697
6,0.008238490670919418,1.0,0.31882524490356445,0.8689909297052154
7,0.004754777532070875,1.0,0.3141466975212097,0.8766439909297052
8,0.0031433997210115194,1.0,0.3511013984680176,0.8761337868480725
9,0.0022379334550350904,1.0,0.3879144489765167,0.8863069470212327
10,0.0018004876328632236,1.0,0.3858092129230499,0.8761337868480725
11,0.0014961259439587593,1.0,0.3809508979320526,0.8689909297052154
12,0.0012963300105184317,1.0,0.3823178708553314,0.8689909297052154
13,0.0011528601171448827,1.0,0.3841438889503479,0.8627551020408164
14,0.0010421040933579206,1.0,0.38563284277915955,0.8863069470212327
15,0.0009522336767986417,1.0,0.3872718811035156,0.8863069470212327
16,0.0008769208216108382,1.0,0.3893348276615143,0.8863069470212327
17,0.0008119330159388483,1.0,0.3914782702922821,0.8863069470212327
18,0.000754950859118253,1.0,0.39365407824516296,0.8863069470212327
19,0.0007051838329061866,1.0,0.3960684835910797,0.8863069470212327
20,0.0006607050308957696,1.0,0.39847493171691895,0.8910688517831374
21,0.0006207519909366965,1.0,0.4006458818912506,0.8910688517831374
22,0.0005847918218933046,1.0,0.40263110399246216,0.8910688517831374
23,0.0005522329011000693,1.0,0.4044615924358368,0.8910688517831374
24,0.0005226154462434351,1.0,0.40624842047691345,0.8910688517831374
25,0.000495525193400681,1.0,0.4079597592353821,0.8910688517831374
26,0.0004706871113739908,1.0,0.40954476594924927,0.8910688517831374
27,0.0004478653718251735,1.0,0.4109962284564972,0.8910688517831374
28,0.00042684219079092145,1.0,0.4124089181423187,0.8910688517831374
29,0.00040744125726632774,1.0,0.413799911737442,0.8910688517831374
30,0.0003894765395671129,1.0,0.4152001738548279,0.8910688517831374
31,0.00037278866511769593,1.0,0.41658276319503784,0.8910688517831374
32,0.00035725225461646914,1.0,0.4178336262702942,0.8910688517831374
33,0.00034280988620594144,1.0,0.419121116399765,0.8910688517831374
34,0.00032926283893175423,1.0,0.42041680216789246,0.8910688517831374
35,0.00031661000684835017,1.0,0.42169901728630066,0.8910688517831374
36,0.00030474085360765457,1.0,0.42287540435791016,0.8910688517831374
37,0.0002935927186626941,1.0,0.42397546768188477,0.8910688517831374
38,0.0002831124293152243,1.0,0.4250846803188324,0.8910688517831374
39,0.0002732318826019764,1.0,0.4260841906070709,0.8910688517831374
40,0.000263921421719715,1.0,0.42711037397384644,0.8910688517831374
41,0.0002551171637605876,1.0,0.4280693829059601,0.8910688517831374
42,0.00024679998750798404,1.0,0.4290582537651062,0.8910688517831374
43,0.00023891359160188586,1.0,0.42999863624572754,0.8910688517831374
44,0.00023141966084949672,1.0,0.43091753125190735,0.8910688517831374
45,0.0002242979680886492,1.0,0.4318588674068451,0.8910688517831374
46,0.00021752409520559013,1.0,0.4328179955482483,0.8910688517831374
47,0.00021107996872160584,1.0,0.4337731897830963,0.8910688517831374
48,0.0002049315080512315,1.0,0.4347282350063324,0.8910688517831374
49,0.0001990766468225047,1.0,0.43563181161880493,0.8910688517831374
50,0.00019349301874171942,1.0,0.43648386001586914,0.8910688517831374
51,0.0001881551434053108,1.0,0.4372081756591797,0.8910688517831374
52,0.0001830534019973129,1.0,0.4380490481853485,0.8910688517831374
53,0.00017817292246036232,1.0,0.4387829005718231,0.8910688517831374
54,0.00017350944108329713,1.0,0.4395155906677246,0.8910688517831374
55,0.00016905875236261636,1.0,0.44027233123779297,0.8910688517831374
56,0.00016478354518767446,1.0,0.44105738401412964,0.8910688517831374
57,0.00016067965771071613,1.0,0.44182536005973816,0.8910688517831374
58,0.00015672996232751757,1.0,0.4425399899482727,0.8910688517831374
59,0.0001529430883238092,1.0,0.4433518350124359,0.8910688517831374
60,0.0001492891606176272,1.0,0.44405266642570496,0.8910688517831374
61,0.00014578632544726133,1.0,0.444847047328949,0.8910688517831374
62,0.00014241007738746703,1.0,0.44563549757003784,0.8910688517831374
63,0.000139170020702295,1.0,0.44645243883132935,0.8910688517831374
64,0.00013603207480628043,1.0,0.4470793306827545,0.8910688517831374
65,0.00013300373393576592,1.0,0.44783711433410645,0.8910688517831374
66,0.00013007858069613576,1.0,0.4485642910003662,0.8910688517831374
67,0.00012726512795779854,1.0,0.44930562376976013,0.8910688517831374
68,0.0001245442545041442,1.0,0.4500267803668976,0.8910688517831374
69,0.00012193615111755207,1.0,0.4507872760295868,0.8910688517831374
70,0.00011939083196921274,1.0,0.45142635703086853,0.8910688517831374
71,0.00011694869317580014,1.0,0.45225903391838074,0.8910688517831374
72,0.00011455870844656602,1.0,0.4528500437736511,0.8910688517831374
73,0.00011227085633436218,1.0,0.453517347574234,0.8910688517831374
74,0.00011005002306774259,1.0,0.45423707365989685,0.8910688517831374
75,0.00010788346116896719,1.0,0.4548802971839905,0.8910688517831374
76,0.00010580948583083227,1.0,0.45557427406311035,0.8910688517831374
77,0.00010378762090113014,1.0,0.4562671482563019,0.8910688517831374
78,0.00010182109690504149,1.0,0.456923246383667,0.8994588744588744
79,9.992373088607565e-05,1.0,0.45756033062934875,0.8994588744588744
80,9.807744208956137e-05,1.0,0.45815661549568176,0.8994588744588744
81,9.628007683204487e-05,1.0,0.4588046669960022,0.8994588744588744
82,9.454019163968042e-05,1.0,0.459376722574234,0.8994588744588744
83,9.285776468459517e-05,1.0,0.46001142263412476,0.8994588744588744
84,9.12040559342131e-05,1.0,0.46053770184516907,0.8994588744588744
85,8.960461855167523e-05,1.0,0.4612041413784027,0.8994588744588744
86,8.804773824522272e-05,1.0,0.4617175757884979,0.8994588744588744
87,8.653981058159843e-05,1.0,0.46228721737861633,0.8994588744588744
88,8.50744399940595e-05,1.0,0.4628683924674988,0.8994588744588744
89,8.363993401871994e-05,1.0,0.4634905159473419,0.8994588744588744
90,8.224904740927741e-05,1.0,0.4640040695667267,0.8994588744588744
91,8.090284973150119e-05,1.0,0.46444788575172424,0.8994588744588744
92,7.958857895573601e-05,1.0,0.46503356099128723,0.8994588744588744
93,7.829239621059969e-05,1.0,0.46549004316329956,0.8994588744588744
94,7.703666051384062e-05,1.0,0.4660664498806,0.8994588744588744
95,7.581283716717735e-05,1.0,0.46657222509384155,0.8994588744588744
96,7.461773930117488e-05,1.0,0.4670834243297577,0.8994588744588744
97,7.345989433815703e-05,1.0,0.46755552291870117,0.8994588744588744
98,7.232651114463806e-05,1.0,0.4680454730987549,0.8994588744588744
99,7.12144174030982e-05,1.0,0.4685509502887726,0.8994588744588744
100,7.013745198491961e-05,1.0,0.46905317902565,0.8994588744588744
101,6.908813520567492e-05,1.0,0.4696301817893982,0.8994588744588744
102,6.806330202380195e-05,1.0,0.4701579511165619,0.8994588744588744
103,6.705442501697689e-05,1.0,0.4705962836742401,0.8994588744588744
104,6.60764126223512e-05,1.0,0.47118496894836426,0.8994588744588744
105,6.511010724352673e-05,1.0,0.471591055393219,0.8994588744588744
106,6.41874285065569e-05,1.0,0.4721759259700775,0.8994588744588744
107,6.325836147880182e-05,1.0,0.47260862588882446,0.8994588744588744
108,6.23686719336547e-05,1.0,0.4731138348579407,0.8994588744588744
109,6.149600085336715e-05,1.0,0.4735882878303528,0.8994588744588744
110,6.064249464543536e-05,1.0,0.4741060137748718,0.8994588744588744
111,5.979323759675026e-05,1.0,0.47455719113349915,0.8994588744588744
112,5.898762174183503e-05,1.0,0.47510603070259094,0.8994588744588744
113,5.8170287957182154e-05,1.0,0.4754345118999481,0.8994588744588744
114,5.739765038015321e-05,1.0,0.4759733974933624,0.8994588744588744
115,5.663247429765761e-05,1.0,0.4764137864112854,0.8994588744588744
116,5.5872606026241556e-05,1.0,0.47685691714286804,0.8994588744588744
117,5.5138280004030094e-05,1.0,0.4773483872413635,0.8994588744588744
118,5.4423111578216776e-05,1.0,0.4779042601585388,0.8994588744588744
119,5.3721771109849215e-05,1.0,0.47832050919532776,0.8994588744588744
120,5.303534635459073e-05,1.0,0.4788448214530945,0.8994588744588744
121,5.234996569924988e-05,1.0,0.4791370928287506,0.8994588744588744
122,5.168374991626479e-05,1.0,0.4796643555164337,0.8994588744588744
123,5.103668445372023e-05,1.0,0.48009517788887024,0.8994588744588744
124,5.039388270233758e-05,1.0,0.4805689752101898,0.8994588744588744
125,4.97723558510188e-05,1.0,0.4810810387134552,0.8994588744588744
126,4.915083263767883e-05,1.0,0.4815995395183563,0.8994588744588744
127,4.854952931054868e-05,1.0,0.4820926785469055,0.8994588744588744
128,4.7956742491805926e-05,1.0,0.4826076626777649,0.8994588744588744
129,4.737459312309511e-05,1.0,0.48286861181259155,0.8994588744588744
130,4.680414713220671e-05,1.0,0.4833683967590332,0.8994588744588744
131,4.624648136086762e-05,1.0,0.4837939143180847,0.8994588744588744
132,4.5697317546000704e-05,1.0,0.484283983707428,0.8994588744588744
133,4.515561158768833e-05,1.0,0.48453864455223083,0.8994588744588744
134,4.4627733586821705e-05,1.0,0.4849853217601776,0.8994588744588744
135,4.409773464431055e-05,1.0,0.48554614186286926,0.8994588744588744
136,4.3583695514826104e-05,1.0,0.48596423864364624,0.8994588744588744
137,4.3088810343761e-05,1.0,0.4864030182361603,0.8994588744588744
138,4.2592866520863026e-05,1.0,0.48681148886680603,0.8994588744588744
139,4.210968836559914e-05,1.0,0.48727425932884216,0.8994588744588744
140,4.1635026718722656e-05,1.0,0.48779982328414917,0.8994588744588744
141,4.1163551941281185e-05,1.0,0.48817887902259827,0.8994588744588744
142,4.070591603522189e-05,1.0,0.4887276291847229,0.8994588744588744
143,4.025253656436689e-05,1.0,0.4889525771141052,0.8994588744588744
144,3.981086047133431e-05,1.0,0.4893617331981659,0.8994588744588744
145,3.937025394407101e-05,1.0,0.48971790075302124,0.8994588744588744
146,3.894560722983442e-05,1.0,0.49021244049072266,0.8994588744588744
147,3.853053931379691e-05,1.0,0.49063798785209656,0.8994588744588744
148,3.812079012277536e-05,1.0,0.49100229144096375,0.8994588744588744
149,3.770253169932403e-05,1.0,0.49150484800338745,0.8994588744588744
150,3.7304485886124894e-05,1.0,0.4918906092643738,0.8994588744588744
151,3.6914967495249584e-05,1.0,0.4923328757286072,0.8994588744588744
152,3.6520119465421885e-05,1.0,0.4926273226737976,0.8994588744588744
153,3.614655361161567e-05,1.0,0.4931391775608063,0.8994588744588744
154,3.576021845219657e-05,1.0,0.49347826838493347,0.8994588744588744
155,3.5393044527154416e-05,1.0,0.49387326836586,0.8994588744588744
156,3.5032247978961095e-05,1.0,0.4942884147167206,0.8994588744588744
157,3.467571877990849e-05,1.0,0.4946533739566803,0.8994588744588744
158,3.431492586969398e-05,1.0,0.495149165391922,0.8994588744588744
159,3.397647742531262e-05,1.0,0.49555978178977966,0.8994588744588744
160,3.362207280588336e-05,1.0,0.49600210785865784,0.8994588744588744
161,3.329640094307251e-05,1.0,0.49638813734054565,0.8994588744588744
162,3.2956890208879486e-05,1.0,0.4966886341571808,0.8994588744588744
163,3.263547478127293e-05,1.0,0.4971843659877777,0.8994588744588744
164,3.2305546483257785e-05,1.0,0.4973360598087311,0.8994588744588744
165,3.1986255635274574e-05,1.0,0.4978109300136566,0.8994588744588744
166,3.1681873224442825e-05,1.0,0.49831441044807434,0.8994588744588744
167,3.1373227102449164e-05,1.0,0.4987582564353943,0.8994588744588744
168,3.108054443146102e-05,1.0,0.4991816580295563,0.8994588744588744
169,3.076870780205354e-05,1.0,0.4995240569114685,0.8994588744588744
170,3.0482415240840055e-05,1.0,0.4999541938304901,0.8994588744588744
171,3.0189734388841316e-05,1.0,0.500139594078064,0.8994588744588744
172,2.9897051717853174e-05,1.0,0.5006011724472046,0.8994588744588744
173,2.9618207918247208e-05,1.0,0.5010151267051697,0.8994588744588744
174,2.9344681024667807e-05,1.0,0.5014191269874573,0.8994588744588744
175,2.9061580789857544e-05,1.0,0.5018516778945923,0.8994588744588744
176,2.8799762731068768e-05,1.0,0.5022146105766296,0.8994588744588744
177,2.853262412827462e-05,1.0,0.5026742219924927,0.8994588744588744
178,2.8275066142668948e-05,1.0,0.5031048059463501,0.8994588744588744
179,2.8011114409309812e-05,1.0,0.5033866763114929,0.8994588744588744
180,2.7762069294112734e-05,1.0,0.5038304924964905,0.8994588744588744
181,2.7501317163114436e-05,1.0,0.5040126442909241,0.8994588744588744
182,2.724694786593318e-05,1.0,0.5044201612472534,0.8994588744588744
183,2.699683500395622e-05,1.0,0.5049219727516174,0.8994588744588744
184,2.6764822905533947e-05,1.0,0.5053788423538208,0.8994588744588744
185,2.6528545276960358e-05,1.0,0.5056594014167786,0.8994588744588744
186,2.6289073502994142e-05,1.0,0.5059744119644165,0.8994588744588744
187,2.6059187803184614e-05,1.0,0.5063499808311462,0.8994588744588744
188,2.582929482741747e-05,1.0,0.5068114399909973,0.8994588744588744
189,2.5597275453037582e-05,1.0,0.5071068406105042,0.8994588744588744
190,2.5378030841238797e-05,1.0,0.5075360536575317,0.8994588744588744
191,2.5163040845654905e-05,1.0,0.5077522397041321,0.8994588744588744
192,2.4936345653259195e-05,1.0,0.5081450343132019,0.8994588744588744
193,2.4720289729884826e-05,1.0,0.5084562301635742,0.9071119356833642
194,2.4512748495908454e-05,1.0,0.5088735818862915,0.9071119356833642
195,2.430414497212041e-05,1.0,0.5092324614524841,0.9071119356833642
196,2.409660373814404e-05,1.0,0.5095712542533875,0.9071119356833642
197,2.3892256649560295e-05,1.0,0.5100859999656677,0.9071119356833642
198,2.3687911379965954e-05,1.0,0.5103148221969604,0.9071119356833642
199,2.348675661778543e-05,1.0,0.510682225227356,0.9071119356833642
200,2.329305061721243e-05,1.0,0.5107488036155701,0.9071119356833642
201,2.309189767402131e-05,1.0,0.5111466646194458,0.9071119356833642
202,2.290351221745368e-05,1.0,0.5116237998008728,0.9071119356833642
203,2.271619268867653e-05,1.0,0.5120255947113037,0.9071119356833642
204,2.2532069124281406e-05,1.0,0.512447714805603,0.9071119356833642
205,2.2340491341310553e-05,1.0,0.5127528309822083,0.9071119356833642
206,2.2159556465339847e-05,1.0,0.5131703615188599,0.9071119356833642
207,2.1976493371766992e-05,1.0,0.5133236050605774,0.9071119356833642
208,2.1795563952764496e-05,1.0,0.513713002204895,0.9071119356833642
209,2.161462907679379e-05,1.0,0.5140363574028015,0.9071119356833642
210,2.1451789507409558e-05,1.0,0.5143725275993347,0.9071119356833642
211,2.1281497538438998e-05,1.0,0.5147168636322021,0.9071119356833642
212,2.1101632228237577e-05,1.0,0.5151362419128418,0.9071119356833642
213,2.093879083986394e-05,1.0,0.5155538320541382,0.9071119356833642
214,2.0772757125087082e-05,1.0,0.5158111453056335,0.9071119356833642
215,2.060672159132082e-05,1.0,0.516204833984375,0.9071119356833642
216,2.044707434833981e-05,1.0,0.5162889957427979,0.9071119356833642
217,2.028210656135343e-05,1.0,0.5167445540428162,0.9071119356833642
218,2.0120331100770272e-05,1.0,0.5171147584915161,0.9071119356833642
219,1.9967066691606306e-05,1.0,0.5173984169960022,0.9071119356833642
220,1.981274181162007e-05,1.0,0.5177379846572876,0.9071119356833642
221,1.9654156858450733e-05,1.0,0.5181761980056763,0.9071119356833642
222,1.95040902326582e-05,1.0,0.5185914039611816,0.9071119356833642
223,1.9352954041096382e-05,1.0,0.5188410878181458,0.9071119356833642
224,1.921246621350292e-05,1.0,0.519123911857605,0.9071119356833642
225,1.906452416733373e-05,1.0,0.5194318890571594,0.9071119356833642
226,1.8926162738353014e-05,1.0,0.5198627710342407,0.9071119356833642
227,1.8777160221361555e-05,1.0,0.5201064944267273,0.9071119356833642
228,1.862495810200926e-05,1.0,0.5205095410346985,0.9071119356833642
229,1.849191903602332e-05,1.0,0.5206986665725708,0.9071119356833642
230,1.8351429389440455e-05,1.0,0.5210111141204834,0.9071119356833642
231,1.8213069779449143e-05,1.0,0.5213581919670105,0.9071119356833642
232,1.8077898857882246e-05,1.0,0.5217815041542053,0.9071119356833642
233,1.794805211829953e-05,1.0,0.5221043229103088,0.9071119356833642
234,1.7817141269915737e-05,1.0,0.522384762763977,0.9071119356833642
235,1.768197034834884e-05,1.0,0.5227975845336914,0.9071119356833642
236,1.755105949996505e-05,1.0,0.5229178667068481,0.9071119356833642
237,1.741482446959708e-05,1.0,0.5233113169670105,0.9071119356833642
238,1.7289235984208062e-05,1.0,0.5234570503234863,0.9071119356833642
239,1.7162581571028568e-05,1.0,0.5238498449325562,0.9071119356833642
240,1.702953886706382e-05,1.0,0.5243226885795593,0.9071119356833642
241,1.6915657397476025e-05,1.0,0.5246483087539673,0.9071119356833642
242,1.6787937056506053e-05,1.0,0.5249996185302734,0.9071119356833642
243,1.6658090316923335e-05,1.0,0.5250418782234192,0.9071119356833642
244,1.654101288295351e-05,1.0,0.5254673361778259,0.9071119356833642
245,1.6422873159172013e-05,1.0,0.5257630348205566,0.9071119356833642
246,1.629621874599252e-05,1.0,0.5259854197502136,0.9071119356833642
247,1.6185529602807947e-05,1.0,0.5263824462890625,0.9071119356833642
248,1.607058038644027e-05,1.0,0.526685357093811,0.9071119356833642
249,1.5950312445056625e-05,1.0,0.5269907116889954,0.9071119356833642
250,1.5840685591683723e-05,1.0,0.5273613333702087,0.9071119356833642
251,1.5733188774902374e-05,1.0,0.527818500995636,0.9071119356833642
252,1.5620371414115652e-05,1.0,0.5279468297958374,0.9071119356833642
253,1.551074456074275e-05,1.0,0.5283141732215881,0.9071119356833642
254,1.5397925380966626e-05,1.0,0.5285613536834717,0.9071119356833642
255,1.5288298527593724e-05,1.0,0.5288549661636353,0.9071119356833642
256,1.5186124983301852e-05,1.0,0.529105544090271,0.9071119356833642
257,1.5074368093337398e-05,1.0,0.5294587016105652,0.9071119356833642
258,1.4972193639550824e-05,1.0,0.5298818945884705,0.9071119356833642
259,1.4874275620968547e-05,1.0,0.5302413702011108,0.9071119356833642
260,1.4762520549993496e-05,1.0,0.5305994153022766,0.9071119356833642
261,1.4665665730717592e-05,1.0,0.5309646129608154,0.9071119356833642
262,1.4567747712135315e-05,1.0,0.5313548445701599,0.9071119356833642
263,1.4465572348854039e-05,1.0,0.5312879085540771,0.9071119356833642
264,1.4363396076078061e-05,1.0,0.5316148400306702,0.9071119356833642
265,1.4263349839893635e-05,1.0,0.5318976640701294,0.9071119356833642
266,1.417501061951043e-05,1.0,0.5322670340538025,0.9071119356833642
267,1.4079220818530302e-05,1.0,0.5326759219169617,0.9071119356833642
268,1.398555741616292e-05,1.0,0.5329509377479553,0.9071119356833642
269,1.3888704415876418e-05,1.0,0.5332332849502563,0.9071119356833642
270,1.3792915524390992e-05,1.0,0.5334548354148865,0.9071119356833642
271,1.3700318049814086e-05,1.0,0.5338274240493774,0.9071119356833642
272,1.3610913811135106e-05,1.0,0.5341213941574097,0.9071119356833642
273,1.3519379535864573e-05,1.0,0.5344589352607727,0.9071119356833642
274,1.3434234460873995e-05,1.0,0.5347240567207336,0.9071119356833642
275,1.3342701095098164e-05,1.0,0.5350474715232849,0.9071119356833642
276,1.3255426893010736e-05,1.0,0.5350720286369324,0.9071119356833642
277,1.3162828508939128e-05,1.0,0.5354952812194824,0.9071119356833642
278,1.3074488379061222e-05,1.0,0.5358498692512512,0.9071119356833642
279,1.2994662938581314e-05,1.0,0.536171555519104,0.9071119356833642
280,1.2908451935800258e-05,1.0,0.5363913774490356,0.9071119356833642
281,1.2822242752008606e-05,1.0,0.5368139147758484,0.9071119356833642
282,1.2740287274937145e-05,1.0,0.5372047424316406,0.9071119356833642
283,1.2659397725656163e-05,1.0,0.5371938943862915,0.9071119356833642
284,1.2575315849971958e-05,1.0,0.5375487804412842,0.9071119356833642
285,1.24933621918899e-05,1.0,0.5376868844032288,0.9071119356833642
286,1.2414601769705769e-05,1.0,0.5380377173423767,0.9071119356833642
287,1.2337970474618487e-05,1.0,0.5385012030601501,0.9071119356833642
288,1.2261337360541802e-05,1.0,0.5388147234916687,0.9071119356833642
289,1.218044781126082e-05,1.0,0.5391260981559753,0.9071119356833642
290,1.2099556442990433e-05,1.0,0.5392383337020874,0.9071119356833642
291,1.2023990166198928e-05,1.0,0.5395901799201965,0.9071119356833642
292,1.1947357052122243e-05,1.0,0.5397512912750244,0.9071119356833642
293,1.187285397463711e-05,1.0,0.5401036143302917,0.9071119356833642
294,1.1800478205259424e-05,1.0,0.5404487252235413,0.9071119356833642
295,1.1719588655978441e-05,1.0,0.5407906174659729,0.9071119356833642
296,1.1653601177386008e-05,1.0,0.5411165356636047,0.9071119356833642
297,1.1572709809115622e-05,1.0,0.5410001873970032,0.9071119356833642
298,1.1498207641125191e-05,1.0,0.5414713621139526,0.9071119356833642
299,1.1427960089349654e-05,1.0,0.5417056083679199,0.9071119356833642
300,1.1353456102369819e-05,1.0,0.5418973565101624,0.9071119356833642
301,1.1287467714282684e-05,1.0,0.542256236076355,0.9071119356833642
302,1.1212962817808148e-05,1.0,0.5424096584320068,0.9071119356833642
303,1.1145910320919938e-05,1.0,0.5427471995353699,0.9071119356833642
304,1.1077792805735953e-05,1.0,0.5431157350540161,0.9071119356833642
305,1.1006481145159341e-05,1.0,0.5434811115264893,0.9071119356833642
306,1.0940492757072207e-05,1.0,0.5436814427375793,0.9071119356833642
307,1.087237433239352e-05,1.0,0.5439080595970154,0.9071119356833642
308,1.0804256817209534e-05,1.0,0.5438526272773743,0.9071119356833642
309,1.0738267519627698e-05,1.0,0.5442012548446655,0.9071119356833642
310,1.0669085895642638e-05,1.0,0.5446673035621643,0.9071119356833642
311,1.0604161616356578e-05,1.0,0.5449816584587097,0.9071119356833642
312,1.0547752026468515e-05,1.0,0.5453252196311951,0.9071119356833642
313,1.0479633601789828e-05,1.0,0.5454798340797424,0.9071119356833642
314,1.0421093975310214e-05,1.0,0.5458105206489563,0.9071119356833642
315,1.0356169696024153e-05,1.0,0.5462115406990051,0.9071119356833642
316,1.0292309525539167e-05,1.0,0.5462707281112671,0.9071119356833642
317,1.0229513463855255e-05,1.0,0.5465778112411499,0.9071119356833642
318,1.016884471027879e-05,1.0,0.5464364290237427,0.9071119356833642
319,1.0108177775691729e-05,1.0,0.5467736124992371,0.9071119356833642
320,1.0047509931609966e-05,1.0,0.5472692847251892,0.9071119356833642
321,9.982585652323905e-06,1.0,0.5476561784744263,0.9071119356833642
322,9.931497515935916e-06,1.0,0.5479468703269958,0.9071119356833642
323,9.87189469014993e-06,1.0,0.5479970574378967,0.9071119356833642
324,9.809097718971316e-06,1.0,0.5483713150024414,0.9071119356833642
325,9.751623110787477e-06,1.0,0.5484264492988586,0.9071119356833642
326,9.698405847302638e-06,1.0,0.5487795472145081,0.9071119356833642
327,9.641997166909277e-06,1.0,0.5493026971817017,0.9071119356833642
328,9.583456630934961e-06,1.0,0.5494709014892578,0.9071119356833642
329,9.52491882344475e-06,1.0,0.5497384071350098,0.9071119356833642
330,9.472765668760985e-06,1.0,0.5497267842292786,0.9071119356833642
331,9.41422604228137e-06,1.0,0.5500484704971313,0.9071119356833642
332,9.363138815388083e-06,1.0,0.5504892468452454,0.9071119356833642
333,9.304598279413767e-06,1.0,0.550679624080658,0.9071119356833642
334,9.250317816622555e-06,1.0,0.5509482622146606,0.9071119356833642
335,9.19816466193879e-06,1.0,0.5509284734725952,0.9071119356833642
336,9.147076525550801e-06,1.0,0.5512816309928894,0.9071119356833642
337,9.087472790270112e-06,1.0,0.551609218120575,0.9071119356833642
338,9.042770216183271e-06,1.0,0.5519728064537048,0.9071119356833642
339,8.989553862193134e-06,1.0,0.5521565675735474,0.9071119356833642
340,8.938464816310443e-06,1.0,0.5525256395339966,0.9071119356833642
341,8.896954568626825e-06,1.0,0.5529356002807617,0.9071119356833642
342,8.834159416437615e-06,1.0,0.5526742339134216,0.9071119356833642
343,8.789456842350774e-06,1.0,0.5530293583869934,0.9071119356833642
344,8.736239578865934e-06,1.0,0.5531680583953857,0.9071119356833642
345,8.684086424182169e-06,1.0,0.5533148050308228,0.9071119356833642
346,8.63299828779418e-06,1.0,0.5537511110305786,0.9071119356833642
347,8.588295713707339e-06,1.0,0.5539424419403076,0.9071119356833642
348,8.538270776625723e-06,1.0,0.5542699694633484,0.9071119356833642
349,8.488246749038808e-06,1.0,0.5544565320014954,0.9071119356833642
350,8.441415047855116e-06,1.0,0.5547857880592346,0.9071119356833642
351,8.393520147365052e-06,1.0,0.5549771785736084,0.9071119356833642
352,8.35307491797721e-06,1.0,0.5552002191543579,0.9071119356833642
353,8.30198587209452e-06,1.0,0.5554637908935547,0.9071119356833642
354,8.25728420750238e-06,1.0,0.5558691024780273,0.9071119356833642
355,8.215773959818762e-06,1.0,0.5562808513641357,0.9071119356833642
356,8.165749932231847e-06,1.0,0.5560497045516968,0.9071119356833642
357,8.121046448650304e-06,1.0,0.5563034415245056,0.9071119356833642
358,8.072086529864464e-06,1.0,0.5564061999320984,0.9071119356833642
359,8.027384865272325e-06,1.0,0.556795060634613,0.9071119356833642
360,7.988003744685557e-06,1.0,0.5572049021720886,0.9071119356833642
361,7.945430297695566e-06,1.0,0.5574726462364197,0.9071119356833642
362,7.899662705312949e-06,1.0,0.5575637221336365,0.9071119356833642
363,7.858153367124032e-06,1.0,0.5576300621032715,0.9071119356833642
364,7.80919253884349e-06,1.0,0.5580455660820007,0.9071119356833642
365,7.770876436552498e-06,1.0,0.5581952929496765,0.9071119356833642
366,7.726173862465657e-06,1.0,0.5584676265716553,0.9071119356833642
367,7.680407179577742e-06,1.0,0.5585805177688599,0.9071119356833642
368,7.639961040695198e-06,1.0,0.558882474899292,0.9071119356833642
369,7.604838174302131e-06,1.0,0.5589843988418579,0.9071119356833642
370,7.559071491414215e-06,1.0,0.5592936873435974,0.9071119356833642
371,7.5196908255747985e-06,1.0,0.5595877170562744,0.9071119356833642
372,7.477116923837457e-06,1.0,0.5599045157432556,0.9071119356833642
373,7.446250947396038e-06,1.0,0.5599139332771301,0.9071119356833642
374,7.400483355013421e-06,1.0,0.5602266788482666,0.9071119356833642
375,7.358974016824504e-06,1.0,0.5606626272201538,0.9071119356833642
376,7.320657459786162e-06,1.0,0.5607218146324158,0.9071119356833642
377,7.2834050115488935e-06,1.0,0.5609685182571411,0.9071119356833642
378,7.246153018058976e-06,1.0,0.5607935786247253,0.9071119356833642
379,7.2035791163216345e-06,1.0,0.5610705018043518,0.9071119356833642
380,7.170584922278067e-06,1.0,0.5615997314453125,0.9071119356833642
381,7.129074674594449e-06,1.0,0.5618606209754944,0.9071119356833642
382,7.088629445206607e-06,1.0,0.5619356036186218,0.9071119356833642
383,7.052441105770413e-06,1.0,0.5623170137405396,0.9071119356833642
384,7.0194469117268454e-06,1.0,0.5627658367156982,0.9071119356833642
385,6.965164175198879e-06,1.0,0.56276535987854,0.9071119356833642
386,6.933234089956386e-06,1.0,0.5630772709846497,0.9071119356833642
387,6.9023672040202655e-06,1.0,0.5628699660301208,0.9071119356833642
388,6.861922429379774e-06,1.0,0.5631311535835266,0.9071119356833642
389,6.821477199991932e-06,1.0,0.5637450814247131,0.9071119356833642
390,6.789546660002088e-06,1.0,0.563805878162384,0.9071119356833642
391,6.759744337614393e-06,1.0,0.5638975501060486,0.9071119356833642
392,6.72355645292555e-06,1.0,0.5641785264015198,0.9071119356833642
393,6.690562258881982e-06,1.0,0.5646218061447144,0.9071119356833642
394,6.655438937741565e-06,1.0,0.5648784637451172,0.9071119356833642
395,6.62137927065487e-06,1.0,0.5648919343948364,0.9071119356833642
396,6.584127277164953e-06,1.0,0.5651604533195496,0.9071119356833642
397,6.544746156578185e-06,1.0,0.5649582743644714,0.9071119356833642
398,6.512815616588341e-06,1.0,0.5653090476989746,0.9071119356833642
399,6.4830142036953475e-06,1.0,0.5658274292945862,0.9071119356833642
400,6.451083208958153e-06,1.0,0.5661669373512268,0.9071119356833642
401,6.4106379795703106e-06,1.0,0.5663434267044067,0.9071119356833642
402,6.380836111929966e-06,1.0,0.5663104057312012,0.9071119356833642
403,6.351033789542271e-06,1.0,0.5666351914405823,0.9071119356833642
404,6.311653123702854e-06,1.0,0.5666271448135376,0.9071119356833642
405,6.271207439567661e-06,1.0,0.5668842196464539,0.9071119356833642
406,6.246727480174741e-06,1.0,0.5672867894172668,0.9071119356833642
407,6.214797849679599e-06,1.0,0.5675875544548035,0.9020098948670378
408,6.188188308442477e-06,1.0,0.5677582025527954,0.9020098948670378
409,6.1498717514041346e-06,1.0,0.5680788159370422,0.9020098948670378
410,6.12219855611329e-06,1.0,0.5684722065925598,0.9020098948670378
411,6.091332579671871e-06,1.0,0.5682139992713928,0.9071119356833642
412,6.056208803784102e-06,1.0,0.5685511231422424,0.9071119356833642
413,6.023213700245833e-06,1.0,0.568619430065155,0.9020098948670378
414,5.995540959702339e-06,1.0,0.5686873197555542,0.9071119356833642
415,5.972125109110493e-06,1.0,0.5693119168281555,0.9020098948670378
416,5.93806589677115e-06,1.0,0.5696365237236023,0.9020098948670378
417,5.908264029130805e-06,1.0,0.5696700811386108,0.9071119356833642
418,5.876333489140961e-06,1.0,0.5697661638259888,0.9071119356833642
419,5.842274276801618e-06,1.0,0.5698290467262268,0.9020098948670378
420,5.815665190311847e-06,1.0,0.5701937675476074,0.9020098948670378
421,5.783734650322003e-06,1.0,0.5704706907272339,0.9020098948670378
422,5.761382908531232e-06,1.0,0.5709762573242188,0.9020098948670378
423,5.7326460591866635e-06,1.0,0.5712939500808716,0.9020098948670378
424,5.698585937352618e-06,1.0,0.571296751499176,0.9020098948670378
425,5.675170996255474e-06,1.0,0.5716407895088196,0.9071119356833642
426,5.642175437969854e-06,1.0,0.5713604688644409,0.9020098948670378
427,5.6155668062274344e-06,1.0,0.5716795921325684,0.9020098948670378
428,5.585764483839739e-06,1.0,0.5721109509468079,0.9020098948670378
429,5.5676709962426685e-06,1.0,0.5722488164901733,0.9020098948670378
430,5.534675892704399e-06,1.0,0.5723379850387573,0.9020098948670378
431,5.510195933311479e-06,1.0,0.5727452635765076,0.9020098948670378
432,5.480394065671135e-06,1.0,0.5730900764465332,0.9020098948670378
433,5.452720415632939e-06,1.0,0.5731550455093384,0.9020098948670378
434,5.4229190027399454e-06,1.0,0.573453426361084,0.9020098948670378
435,5.394181243900675e-06,1.0,0.5733925700187683,0.9020098948670378
436,5.369701284507755e-06,1.0,0.573661744594574,0.9020098948670378
437,5.347349542716984e-06,1.0,0.574033796787262,0.9020098948670378
438,5.3186122386250645e-06,1.0,0.574296772480011,0.9020098948670378
439,5.287746262183646e-06,1.0,0.5744960904121399,0.9020098948670378
440,5.269651865091873e-06,1.0,0.5749090909957886,0.9020098948670378
441,5.240914560999954e-06,1.0,0.5752888917922974,0.9020098948670378
442,5.217498710408108e-06,1.0,0.5750533938407898,0.9020098948670378
443,5.193018751015188e-06,1.0,0.575408399105072,0.9020098948670378
444,5.161087756277993e-06,1.0,0.5754790306091309,0.9020098948670378
445,5.137672360433498e-06,1.0,0.5757288932800293,0.9020098948670378
446,5.112127837492153e-06,1.0,0.5761761665344238,0.9020098948670378
447,5.084454642201308e-06,1.0,0.5761308073997498,0.9020098948670378
448,5.061038791609462e-06,1.0,0.5763196349143982,0.9020098948670378
449,5.038687049818691e-06,1.0,0.5766168832778931,0.9020098948670378
450,5.004627837479347e-06,1.0,0.5768207907676697,0.9020098948670378
451,4.984404768038075e-06,1.0,0.5772098898887634,0.9020098948670378
452,4.959924808645155e-06,1.0,0.5774179100990295,0.9020098948670378
453,4.941830866300734e-06,1.0,0.5775960087776184,0.9020098948670378
454,4.915221779810963e-06,1.0,0.5778282284736633,0.9020098948670378
455,4.894999165117042e-06,1.0,0.5777729749679565,0.9020098948670378
456,4.867325969826197e-06,1.0,0.5780901312828064,0.9020098948670378
457,4.85029613628285e-06,1.0,0.5781832933425903,0.9020098948670378
458,4.822623395739356e-06,1.0,0.5785762071609497,0.9020098948670378
459,4.79707841805066e-06,1.0,0.578833281993866,0.9020098948670378
460,4.777919912157813e-06,1.0,0.5793526768684387,0.9020098948670378
461,4.750246716866968e-06,1.0,0.579721987247467,0.9020098948670378
462,4.732152774522547e-06,1.0,0.5794616937637329,0.9020098948670378
463,4.709801032731775e-06,1.0,0.5799018144607544,0.9020098948670378
464,4.686385182139929e-06,1.0,0.579692006111145,0.9020098948670378
465,4.665098003897583e-06,1.0,0.5797309875488281,0.9020098948670378
466,4.644875843951013e-06,1.0,0.5804067850112915,0.9020098948670378
467,4.6182663027138915e-06,1.0,0.5805287957191467,0.9020098948670378
468,4.601236923917895e-06,1.0,0.580714762210846,0.9020098948670378
469,4.572499619825976e-06,1.0,0.5810820460319519,0.9020098948670378
470,4.553341113933129e-06,1.0,0.5812812447547913,0.9020098948670378
471,4.533118044491857e-06,1.0,0.5814715027809143,0.9020098948670378
472,4.508638085098937e-06,1.0,0.5813960433006287,0.9020098948670378
473,4.490543688007165e-06,1.0,0.5819262862205505,0.9020098948670378
474,4.472450200410094e-06,1.0,0.5824450254440308,0.9020098948670378
475,4.450098458619323e-06,1.0,0.5823267102241516,0.9020098948670378
476,4.423489826876903e-06,1.0,0.5824829936027527,0.9020098948670378
477,4.40752410213463e-06,1.0,0.5822664499282837,0.9020098948670378
478,4.381979579193285e-06,1.0,0.5825887322425842,0.9020098948670378
479,4.359628746897215e-06,1.0,0.5831710696220398,0.9020098948670378
480,4.3372770051064435e-06,1.0,0.583396852016449,0.9020098948670378
481,4.324504516262095e-06,1.0,0.5834906697273254,0.9020098948670378
482,4.302152774471324e-06,1.0,0.5835558772087097,0.9020098948670378
483,4.284058832126902e-06,1.0,0.5837183594703674,0.9020098948670378
484,4.2638357626856305e-06,1.0,0.5841252207756042,0.9020098948670378
485,4.245741820341209e-06,1.0,0.5845262408256531,0.9020098948670378
486,4.226583314448362e-06,1.0,0.5847006440162659,0.9020098948670378
487,4.205296590953367e-06,1.0,0.5849059224128723,0.9020098948670378
488,4.182944849162595e-06,1.0,0.5844646692276001,0.9020098948670378
489,4.164850452070823e-06,1.0,0.5847856402397156,0.9020098948670378
490,4.144628292124253e-06,1.0,0.5852961540222168,0.9020098948670378
491,4.12653389503248e-06,1.0,0.5855821371078491,0.9020098948670378
492,4.10205393563956e-06,1.0,0.5856645703315735,0.9020098948670378
493,4.083959538547788e-06,1.0,0.5862184166908264,0.9020098948670378
494,4.070122940902365e-06,1.0,0.5866204500198364,0.9020098948670378
495,4.04883621740737e-06,1.0,0.5864577889442444,0.9020098948670378
496,4.030741820315598e-06,1.0,0.5868299603462219,0.9020098948670378
497,4.0062618609226774e-06,1.0,0.586645781993866,0.9020098948670378
498,3.996682607976254e-06,1.0,0.5868180394172668,0.9020098948670378
499,3.975395429733908e-06,1.0,0.5875387787818909,0.9020098948670378
500,3.953043687943136e-06,1.0,0.5875218510627747,0.9020098948670378
501,3.932821073249215e-06,1.0,0.5877266526222229,0.9020098948670378
502,3.918984475603793e-06,1.0,0.588118851184845,0.9020098948670378
503,3.899825969710946e-06,1.0,0.5883188843727112,0.9020098948670378
504,3.880667463818099e-06,1.0,0.5884557962417603,0.9020098948670378
505,3.8615094126726035e-06,1.0,0.588351845741272,0.9020098948670378
506,3.846608251478756e-06,1.0,0.5887693166732788,0.9020098948670378
507,3.830642526736483e-06,1.0,0.5891111493110657,0.9020098948670378
508,3.8125485843920615e-06,1.0,0.5892640948295593,0.9020098948670378
509,3.7933898511255393e-06,1.0,0.5894607305526733,0.9020098948670378
510,3.776360017582192e-06,1.0,0.5893108248710632,0.9020098948670378
511,3.7625238746841205e-06,1.0,0.589619517326355,0.9020098948670378
512,3.7412366964417743e-06,1.0,0.5899177193641663,0.9020098948670378
513,3.724206862898427e-06,1.0,0.5900264382362366,0.9020098948670378
514,3.70717702935508e-06,1.0,0.5905410051345825,0.9020098948670378
515,3.6933404317096574e-06,1.0,0.5908194184303284,0.9020098948670378
516,3.67737493434106e-06,1.0,0.5907958745956421,0.9020098948670378
517,3.6539588563755387e-06,1.0,0.5908545255661011,0.9020098948670378
518,3.636929704953218e-06,1.0,0.5909424424171448,0.9020098948670378
519,3.6220285437593702e-06,1.0,0.5913904309272766,0.9020098948670378
520,3.6028700378665235e-06,1.0,0.5916449427604675,0.9020098948670378
521,3.582647195798927e-06,1.0,0.5916738510131836,0.9020098948670378
522,3.5720040614251047e-06,1.0,0.592166543006897,0.9020098948670378
523,3.5539098917070078e-06,1.0,0.5924655199050903,0.9020098948670378
524,3.54007306668791e-06,1.0,0.592367947101593,0.9020098948670378
525,3.5251719054940622e-06,1.0,0.5928036570549011,0.9020098948670378
526,3.5134639801981393e-06,1.0,0.5930898785591125,0.9020098948670378
527,3.496434146654792e-06,1.0,0.5932108163833618,0.9020098948670378
528,3.4783402043103706e-06,1.0,0.5934956669807434,0.9020098948670378
529,3.461310143393348e-06,1.0,0.5934198498725891,0.9020098948670378
530,3.446409436946851e-06,1.0,0.5934370756149292,0.9020098948670378
531,3.4336371754761785e-06,1.0,0.5940284132957458,0.9020098948670378
532,3.418736014282331e-06,1.0,0.5945016741752625,0.9020098948670378
533,3.402770744287409e-06,1.0,0.594409167766571,0.9020098948670378
534,3.3878698104672367e-06,1.0,0.5946393013000488,0.9020098948670378
535,3.36871130457439e-06,1.0,0.5942564606666565,0.9020098948670378
536,3.3538103707542177e-06,1.0,0.5945679545402527,0.9020098948670378
537,3.33890920956037e-06,1.0,0.5951725244522095,0.9020098948670378
538,3.3272010568907717e-06,1.0,0.5954316258430481,0.9020098948670378
539,3.3059138786484255e-06,1.0,0.5955225229263306,0.9020098948670378
540,3.291012717454578e-06,1.0,0.5953284502029419,0.9020098948670378
541,3.2750472200859804e-06,1.0,0.5957527756690979,0.9020098948670378
542,3.2665323033143068e-06,1.0,0.5960750579833984,0.9020098948670378
543,3.2548246053920593e-06,1.0,0.5961742997169495,0.9020098948670378
544,3.2377949992223876e-06,1.0,0.5962305068969727,0.9020098948670378
545,3.2250225103780394e-06,1.0,0.5966144800186157,0.9020098948670378
546,3.2111856853589416e-06,1.0,0.5970541834831238,0.9020098948670378
547,3.1962847515387693e-06,1.0,0.5970939993858337,0.9020098948670378
548,3.1792551453690976e-06,1.0,0.5972684621810913,0.9020098948670378
549,3.1632896480005e-06,1.0,0.5969366431236267,0.9020098948670378
550,3.149453277728753e-06,1.0,0.5973573327064514,0.9020098948670378
551,3.1345521165349055e-06,1.0,0.5978415608406067,0.9020098948670378
552,3.124972863588482e-06,1.0,0.5978934168815613,0.9020098948670378
553,3.114329274467309e-06,1.0,0.5979906320571899,0.9020098948670378
554,3.098363549725036e-06,1.0,0.5980548858642578,0.9020098948670378
555,3.087720415351214e-06,1.0,0.5985555648803711,0.9020098948670378
556,3.068561909458367e-06,1.0,0.5988343358039856,0.9020098948670378
557,3.052596639463445e-06,1.0,0.5987738966941833,0.9020098948670378
558,3.047274731216021e-06,1.0,0.5988065600395203,0.9020098948670378
559,3.025987325599999e-06,1.0,0.5993549227714539,0.9020098948670378
560,3.0174724088283256e-06,1.0,0.599852442741394,0.9020098948670378
561,3.002571247634478e-06,1.0,0.600200355052948,0.9020098948670378
562,2.9887346499890555e-06,1.0,0.5997201204299927,0.9020098948670378
563,2.9780910608678823e-06,1.0,0.600225031375885,0.9020098948670378
564,2.9631898996740347e-06,1.0,0.6003360152244568,0.9020098948670378
565,2.9504178655770374e-06,1.0,0.6002246141433716,0.9020098948670378
566,2.9397742764558643e-06,1.0,0.6006075739860535,0.9020098948670378
567,2.923808779087267e-06,1.0,0.6007372140884399,0.9020098948670378
568,2.912100853791344e-06,1.0,0.6008782386779785,0.9020098948670378
569,2.894006684073247e-06,1.0,0.6010327339172363,0.9020098948670378
570,2.8822985314036487e-06,1.0,0.6011194586753845,0.9020098948670378
571,2.8727195058309007e-06,1.0,0.601585865020752,0.9020098948670378
572,2.859947244360228e-06,1.0,0.6017720103263855,0.9020098948670378
573,2.851432100214879e-06,1.0,0.6018323302268982,0.9020098948670378
574,2.843981519617955e-06,1.0,0.6019987463951111,0.9020098948670378
575,2.8226945687492844e-06,1.0,0.6024260520935059,0.9020098948670378
576,2.8173728878755355e-06,1.0,0.6027876138687134,0.9020098948670378
577,2.7992787181574386e-06,1.0,0.6031561493873596,0.9020098948670378
578,2.7896992378373398e-06,1.0,0.6035429239273071,0.9020098948670378
579,2.776926976366667e-06,1.0,0.6027568578720093,0.9020098948670378
580,2.7652188236970687e-06,1.0,0.603300929069519,0.9020098948670378
581,2.7535111257748213e-06,1.0,0.603782594203949,0.9020098948670378
582,2.738610191954649e-06,1.0,0.6036702990531921,0.9020098948670378
583,2.7237090307608014e-06,1.0,0.6039537787437439,0.9020098948670378
584,2.707743533392204e-06,1.0,0.6040320992469788,0.9020098948670378
585,2.702421852518455e-06,1.0,0.6042026281356812,0.9020098948670378
586,2.691778263397282e-06,1.0,0.6044489145278931,0.9020098948670378
587,2.677941438378184e-06,1.0,0.6049471497535706,0.9020098948670378
588,2.663040504558012e-06,1.0,0.6051651239395142,0.9020098948670378
589,2.6534612516115885e-06,1.0,0.6050368547439575,0.9020098948670378
590,2.6470750071894145e-06,1.0,0.6054535508155823,0.9020098948670378
591,2.632173845995567e-06,1.0,0.6052521467208862,0.9020098948670378
592,2.6194018118985696e-06,1.0,0.6054604649543762,0.9020098948670378
593,2.6140799036511453e-06,1.0,0.6060846447944641,0.9020098948670378
594,2.5981146336562233e-06,1.0,0.6061015129089355,0.9020098948670378
595,2.5885351533361245e-06,1.0,0.6061177849769592,0.9020098948670378
596,2.5746983283170266e-06,1.0,0.6065259575843811,0.9020098948670378
597,2.5693766474432778e-06,1.0,0.6066012978553772,0.9020098948670378
598,2.55553982242418e-06,1.0,0.6067414283752441,0.9020098948670378
599,2.5502183689241065e-06,1.0,0.6068118810653687,0.9020098948670378
600,2.5395747798029333e-06,1.0,0.6073406934738159,0.9020098948670378
601,2.523609282434336e-06,1.0,0.6077656745910645,0.9020098948670378
602,2.5129654659394873e-06,1.0,0.6078007817268372,0.9020098948670378
603,2.502321876818314e-06,1.0,0.6080983281135559,0.9020098948670378
604,2.4884852791728918e-06,1.0,0.607652485370636,0.9020098948670378
605,2.4778416900517186e-06,1.0,0.6080449223518372,0.9020098948670378
606,2.4682624371052952e-06,1.0,0.6086559891700745,0.9020098948670378
607,2.4608118565083714e-06,1.0,0.6088218092918396,0.9020098948670378
608,2.446975258862949e-06,1.0,0.6086755394935608,0.9020098948670378
609,2.434202770018601e-06,1.0,0.608964741230011,0.9020098948670378
610,2.4288808617711766e-06,1.0,0.6093912720680237,0.9020098948670378
611,2.411851255601505e-06,1.0,0.6093743443489075,0.9020098948670378
612,2.40865801970358e-06,1.0,0.6098151803016663,0.9020098948670378
613,2.396950094407657e-06,1.0,0.6098077893257141,0.9020098948670378
614,2.38311372413591e-06,1.0,0.6099101901054382,0.9020098948670378
615,2.3745983526168857e-06,1.0,0.6104286313056946,0.9020098948670378
616,2.3628906546946382e-06,1.0,0.6103993058204651,0.9020098948670378
617,2.35118250202504e-06,1.0,0.6103324890136719,0.9020098948670378
618,2.345860821151291e-06,1.0,0.6106159090995789,0.9020098948670378
619,2.3352170046564424e-06,1.0,0.610781729221344,0.9020098948670378
620,2.325637751710019e-06,1.0,0.6110866665840149,0.9020098948670378
621,2.3160584987635957e-06,1.0,0.6112489700317383,0.9020098948670378
622,2.3075438093655976e-06,1.0,0.6112068295478821,0.9020098948670378
623,2.2979643290454987e-06,1.0,0.6115356087684631,0.9020098948670378
624,2.2873207399243256e-06,1.0,0.6121090650558472,0.9020098948670378
625,2.2798701593274018e-06,1.0,0.612393319606781,0.9020098948670378
626,2.269226797579904e-06,1.0,0.6120156049728394,0.9020098948670378
627,2.255389972560806e-06,1.0,0.6124613881111145,0.9020098948670378
628,2.2479393919638824e-06,1.0,0.6127590537071228,0.9020098948670378
629,2.2341030216921354e-06,1.0,0.6129149794578552,0.9020098948670378
630,2.2277167772699613e-06,1.0,0.6131561994552612,0.9020098948670378
631,2.2149445157992886e-06,1.0,0.6132135987281799,0.9020098948670378
632,2.207493935202365e-06,1.0,0.6132844686508179,0.9020098948670378
633,2.192592774008517e-06,1.0,0.6135523915290833,0.9020098948670378
634,2.1893995381105924e-06,1.0,0.6137862205505371,0.9020098948670378
635,2.179820285164169e-06,1.0,0.6140614748001099,0.9020098948670378
636,2.167047796319821e-06,1.0,0.6141348481178284,0.9020098948670378
637,2.1564042071986478e-06,1.0,0.6145984530448914,0.9020098948670378
638,2.148953626601724e-06,1.0,0.6148122549057007,0.9020098948670378
639,2.1425676095532253e-06,1.0,0.6150034666061401,0.9020098948670378
640,2.130859456883627e-06,1.0,0.6150712966918945,0.9020098948670378
641,2.1287307845341275e-06,1.0,0.6152780652046204,0.9020098948670378
642,2.1138298507139552e-06,1.0,0.6158524751663208,0.9020098948670378
643,2.1085081698402064e-06,1.0,0.6155530214309692,0.9020098948670378
644,2.097864353345358e-06,1.0,0.6157222986221313,0.9020098948670378
645,2.0850918645010097e-06,1.0,0.6160349249839783,0.9020098948670378
646,2.079770183627261e-06,1.0,0.6161195635795593,0.9020098948670378
647,2.072319603030337e-06,1.0,0.6162973046302795,0.9020098948670378
648,2.061676013909164e-06,1.0,0.61628657579422,0.9020098948670378
649,2.0574184418364894e-06,1.0,0.6167512536048889,0.9020098948670378
650,2.0520967609627405e-06,1.0,0.6169294118881226,0.9020098948670378
651,2.0382599359436426e-06,1.0,0.6169255375862122,0.9020098948670378
652,2.0350671547930688e-06,1.0,0.6169306635856628,0.9020098948670378
653,2.021230329773971e-06,1.0,0.6173533797264099,0.9020098948670378
654,2.0105867406527977e-06,1.0,0.6176232695579529,0.9020098948670378
655,2.0042004962306237e-06,1.0,0.617821991443634,0.9020098948670378
656,1.9967499156337e-06,1.0,0.618086040019989,0.9020098948670378
657,1.989299335036776e-06,1.0,0.6181675791740417,0.9020098948670378
658,1.9839774267893517e-06,1.0,0.6188997030258179,0.9020098948670378
659,1.976526846192428e-06,1.0,0.6196991801261902,0.9020098948670378
660,1.964818920896505e-06,1.0,0.6189979910850525,0.9020098948670378
661,1.960561576197506e-06,1.0,0.6191972494125366,0.9020098948670378
662,1.948853650901583e-06,1.0,0.6192806363105774,0.9020098948670378
663,1.9445960788289085e-06,1.0,0.6193081736564636,0.9020098948670378
664,1.931823817358236e-06,1.0,0.6197299957275391,0.9020098948670378
665,1.9254375729360618e-06,1.0,0.6199862360954285,0.9020098948670378
666,1.9158583199896384e-06,1.0,0.6201422810554504,0.9020098948670378
667,1.90415016732004e-06,1.0,0.6202180981636047,0.9020098948670378
668,1.900957045108953e-06,1.0,0.6206222772598267,0.9020098948670378
669,1.8892491198130301e-06,1.0,0.6209833025932312,0.9020098948670378
670,1.8849916614271933e-06,1.0,0.6209414601325989,0.9020098948670378
671,1.8775410808302695e-06,1.0,0.6211996674537659,0.9020098948670378
672,1.8668977190827718e-06,1.0,0.6208439469337463,0.9020098948670378
673,1.862640260696935e-06,1.0,0.6209486126899719,0.9020098948670378
674,1.853060894063674e-06,1.0,0.6214851140975952,0.9020098948670378
675,1.842417191255663e-06,1.0,0.6217118501663208,0.9020098948670378
676,1.8339022744839895e-06,1.0,0.6217049360275269,0.9020098948670378
677,1.8243229078507284e-06,1.0,0.6218774914741516,0.9020098948670378
678,1.817936777115392e-06,1.0,0.6220431923866272,0.9020098948670378
679,1.8190011132901418e-06,1.0,0.6227477788925171,0.9020098948670378
680,1.8094217466568807e-06,1.0,0.6231255531311035,0.9020098948670378
681,1.8019711660599569e-06,1.0,0.6226473450660706,0.9020098948670378
682,1.798778384909383e-06,1.0,0.6230120658874512,0.9020098948670378
683,1.789199018276122e-06,1.0,0.6228764653205872,0.9020098948670378
684,1.7817485513660358e-06,1.0,0.623036801815033,0.9020098948670378
685,1.774297970769112e-06,1.0,0.6235973238945007,0.9020098948670378
686,1.7668475038590259e-06,1.0,0.6236740946769714,0.9020098948670378
687,1.759396923262102e-06,1.0,0.623884379863739,0.9020098948670378
688,1.7519463426651782e-06,1.0,0.6240993142127991,0.9020098948670378
689,1.7423670897187549e-06,1.0,0.6244613528251648,0.9020098948670378
690,1.7381097450197558e-06,1.0,0.6248337626457214,0.9020098948670378
691,1.7285304920733324e-06,1.0,0.624777615070343,0.9020098948670378
692,1.722144361337996e-06,1.0,0.6254096627235413,0.9020098948670378
693,1.718951239126909e-06,1.0,0.6255321502685547,0.9020098948670378
694,1.7104363223552355e-06,1.0,0.6254370808601379,0.9020098948670378
695,1.7040500779330614e-06,1.0,0.6256762146949768,0.9020098948670378
696,1.6934063751250505e-06,1.0,0.6254718899726868,0.9020098948670378
697,1.6859559082149644e-06,1.0,0.6257697343826294,0.9020098948670378
698,1.6795696637927904e-06,1.0,0.6260313391685486,0.9020098948670378
699,1.6710547470211168e-06,1.0,0.626428484916687,0.9020098948670378
700,1.669990410846367e-06,1.0,0.6266551613807678,0.9020098948670378
701,1.662539943936281e-06,1.0,0.6266089677810669,0.9020098948670378
702,1.6540250271646073e-06,1.0,0.6268523931503296,0.9020098948670378
703,1.645509996706096e-06,1.0,0.6270475387573242,0.9020098948670378
704,1.645509996706096e-06,1.0,0.6272584795951843,0.9020098948670378
705,1.6391238659707597e-06,1.0,0.6278155446052551,0.9020098948670378
706,1.6338019577233354e-06,1.0,0.6282263398170471,0.9020098948670378
707,1.621029582565825e-06,1.0,0.6276329755783081,0.9020098948670378
708,1.617836460354738e-06,1.0,0.628639280796051,0.9020098948670378
709,1.607192757546727e-06,1.0,0.6290003061294556,0.9020098948670378
710,1.5986779544618912e-06,1.0,0.6285409331321716,0.9020098948670378
711,1.5922917100397171e-06,1.0,0.6283946633338928,0.9020098948670378
712,1.5848411294427933e-06,1.0,0.6286102533340454,0.9020098948670378
713,1.5816482346053817e-06,1.0,0.6290118098258972,0.9020098948670378
714,1.574197654008458e-06,1.0,0.6289175152778625,0.9020098948670378
715,1.5720688679721206e-06,1.0,0.6288222074508667,0.9020098948670378
716,1.562489728712535e-06,1.0,0.6290619969367981,0.9020098948670378
717,1.556103484290361e-06,1.0,0.6292282342910767,0.9020098948670378
718,1.5454598951691878e-06,1.0,0.6292877197265625,0.9020098948670378
719,1.5433312228196883e-06,1.0,0.6294445991516113,0.9020098948670378
720,1.539073537060176e-06,1.0,0.6294324994087219,0.9020098948670378
721,1.5326875200116774e-06,1.0,0.6296964883804321,0.9020098948670378
722,1.5284300616258406e-06,1.0,0.6299601793289185,0.9020098948670378
723,1.5199150311673293e-06,1.0,0.6302312612533569,0.9020098948670378
724,1.5156575727814925e-06,1.0,0.6302075982093811,0.9020098948670378
725,1.5082069921845687e-06,1.0,0.6304667592048645,0.9020098948670378
726,1.5028853113108198e-06,1.0,0.6304439306259155,0.9020098948670378
727,1.5007564115876448e-06,1.0,0.6307173371315002,0.9020098948670378
728,1.4911772723280592e-06,1.0,0.6313134431838989,0.9020098948670378
729,1.4869198139422224e-06,1.0,0.6315078735351562,0.9020098948670378
730,1.475211661272624e-06,1.0,0.6312258839607239,0.9020098948670378
731,1.4688255305372877e-06,1.0,0.6318407654762268,0.9020098948670378
732,1.4592462775908643e-06,1.0,0.6319332122802734,0.9020098948670378
733,1.4581819414161146e-06,1.0,0.6319873929023743,0.9020098948670378
734,1.449667024644441e-06,1.0,0.631811261177063,0.9020098948670378
735,1.4475382386081037e-06,1.0,0.6321312189102173,0.9020098948670378
736,1.4454095662586042e-06,1.0,0.6324177384376526,0.9020098948670378
737,1.4305084050647565e-06,1.0,0.6323806047439575,0.9020098948670378
738,1.4315727412395063e-06,1.0,0.6329986453056335,0.9020098948670378
739,1.4251864968173322e-06,1.0,0.6329609155654907,0.9020098948670378
740,1.4219933746062452e-06,1.0,0.6329526305198669,0.9020098948670378
741,1.414542907696159e-06,1.0,0.6334453225135803,0.9020098948670378
742,1.4070925544729107e-06,1.0,0.6332845091819763,0.9020098948670378
743,1.3996419738759869e-06,1.0,0.6333786249160767,0.9020098948670378
744,1.3964488516648998e-06,1.0,0.633457601070404,0.9020098948670378
745,1.3900626072427258e-06,1.0,0.6334458589553833,0.9020098948670378
746,1.385805148856889e-06,1.0,0.6335974335670471,0.9020098948670378
747,1.379418904434715e-06,1.0,0.6336898803710938,0.9020098948670378
748,1.374097223560966e-06,1.0,0.6343080401420593,0.9020098948670378
749,1.368775201626704e-06,1.0,0.6347381472587585,0.9020098948670378
750,1.361324734716618e-06,1.0,0.6343685388565063,0.9020098948670378
751,1.3560029401560314e-06,1.0,0.6350498795509338,0.9020098948670378
752,1.3517454817701946e-06,1.0,0.6347994804382324,0.9020098948670378
753,1.3474880233843578e-06,1.0,0.6346337199211121,0.9020098948670378
754,1.3442949011732708e-06,1.0,0.6351466178894043,0.9020098948670378
755,1.3336513120520976e-06,1.0,0.6351906061172485,0.9020098948670378
756,1.331522639702598e-06,1.0,0.6353648900985718,0.9020098948670378
757,1.3262007314551738e-06,1.0,0.6356202960014343,0.9020098948670378
758,1.3198144870329998e-06,1.0,0.6354709267616272,0.9020098948670378
759,1.3144926924724132e-06,1.0,0.6355094313621521,0.9020098948670378
760,1.3112995702613262e-06,1.0,0.6360260248184204,0.9020098948670378
761,1.3070421118754894e-06,1.0,0.6362146139144897,0.9020098948670378
762,1.2942698504048167e-06,1.0,0.6358830332756042,0.9020098948670378
763,1.2910767281937297e-06,1.0,0.6364216804504395,0.9020098948670378
764,1.2846905974583933e-06,1.0,0.6371062994003296,0.9020098948670378
765,1.2804331390725565e-06,1.0,0.636570930480957,0.9020098948670378
766,1.2740468946503825e-06,1.0,0.6367570757865906,0.9020098948670378
767,1.2740468946503825e-06,1.0,0.6365464329719543,0.9020098948670378
768,1.2655319778787089e-06,1.0,0.6366949677467346,0.9020098948670378
769,1.2602101833181223e-06,1.0,0.637153685092926,0.9020098948670378
770,1.2591457334565348e-06,1.0,0.6371226906776428,0.9020098948670378
771,1.2453090221242746e-06,1.0,0.6372277140617371,0.9020098948670378
772,1.2431802360879374e-06,1.0,0.6372718811035156,0.9020098948670378
773,1.2389227777021006e-06,1.0,0.6376276016235352,0.9020098948670378
774,1.2367939916657633e-06,1.0,0.6377707123756409,0.9020098948670378
775,1.2304079746172647e-06,1.0,0.6377695798873901,0.9020098948670378
776,1.2240217301950906e-06,1.0,0.6384549140930176,0.9020098948670378
777,1.221893057845591e-06,1.0,0.638280987739563,0.9020098948670378
778,1.21231369121233e-06,1.0,0.6381850838661194,0.9020098948670378
779,1.2112493550375802e-06,1.0,0.638454794883728,0.9020098948670378
780,1.2069918966517434e-06,1.0,0.638593852519989,0.9020098948670378
781,1.2006057659164071e-06,1.0,0.6386660933494568,0.9020098948670378
782,1.1931551853194833e-06,1.0,0.6388037800788879,0.9020098948670378
783,1.1899620631083963e-06,1.0,0.6388119459152222,0.9020098948670378
784,1.1867689408973092e-06,1.0,0.6391066908836365,0.9020098948670378
785,1.1793183603003854e-06,1.0,0.6398078799247742,0.9020098948670378
786,1.1793184739872231e-06,1.0,0.6401304006576538,0.9020098948670378
787,1.1782540241256356e-06,1.0,0.6395996809005737,0.9020098948670378
788,1.1676104350044625e-06,1.0,0.6403223276138306,0.9020098948670378
789,1.1665460988297127e-06,1.0,0.6402140259742737,0.9020098948670378
790,1.165481762654963e-06,1.0,0.6401544213294983,0.9020098948670378
791,1.1590955182327889e-06,1.0,0.6405639052391052,0.9020098948670378
792,1.1580311820580391e-06,1.0,0.640717089176178,0.9020098948670378
793,1.1527092738106148e-06,1.0,0.6408935785293579,0.9020098948670378
794,1.1495161515995278e-06,1.0,0.6408985257148743,0.9020098948670378
795,1.145258693213691e-06,1.0,0.641061007976532,0.9020098948670378
796,1.1346152177793556e-06,1.0,0.6412726640701294,0.9020098948670378
797,1.1324864317430183e-06,1.0,0.6413311958312988,0.9020098948670378
798,1.1261001873208443e-06,1.0,0.6416354179382324,0.9020098948670378
799,1.1207783927602577e-06,1.0,0.6413947343826294,0.9020098948670378
800,1.1143921483380836e-06,1.0,0.6415247321128845,0.9020098948670378
801,1.1133278121633339e-06,1.0,0.6419559717178345,0.9020098948670378
802,1.112263475988584e-06,1.0,0.6420297026634216,0.9020098948670378
803,1.10587723156641e-06,1.0,0.642098605632782,0.9020098948670378
804,1.1026842230421607e-06,1.0,0.6422452330589294,0.9020098948670378
805,1.0962979786199867e-06,1.0,0.6424674391746521,0.9020098948670378
806,1.095233642445237e-06,1.0,0.642425000667572,0.9020098948670378
807,1.0899118478846503e-06,1.0,0.6428090333938599,0.9020098948670378
808,1.0835256034624763e-06,1.0,0.6433025598526001,0.9020098948670378
809,1.0792681450766395e-06,1.0,0.6434696912765503,0.9020098948670378
810,1.0739462368292152e-06,1.0,0.6437779664993286,0.9020098948670378
811,1.0675601060938789e-06,1.0,0.644345760345459,0.9020098948670378
812,1.0675601060938789e-06,1.0,0.6437211036682129,0.9020098948670378
813,1.0622381978464546e-06,1.0,0.643575131893158,0.9020098948670378
814,1.0547876172495307e-06,1.0,0.6442170143127441,0.9020098948670378
815,1.0505302725505317e-06,1.0,0.6447743773460388,0.9020098948670378
816,1.0462728141646949e-06,1.0,0.6446771621704102,0.9020098948670378
817,1.0452083643031074e-06,1.0,0.6446614265441895,0.9020098948670378
818,1.0377577837061835e-06,1.0,0.645205020904541,0.9020098948670378
819,1.0345646614950965e-06,1.0,0.6455662846565247,0.9020098948670378
820,1.0345647751819342e-06,1.0,0.6449257731437683,0.9020098948670378
821,1.0292429806213477e-06,1.0,0.6447495222091675,0.9020098948670378
822,1.0217924000244238e-06,1.0,0.6452725529670715,0.9020098948670378
823,1.0185992778133368e-06,1.0,0.6458598375320435,0.9020098948670378
824,1.0164706054638373e-06,1.0,0.6457023024559021,0.9020098948670378
825,1.0132774832527502e-06,1.0,0.6457386612892151,0.9020098948670378
826,1.0122131470780005e-06,1.0,0.6459937691688538,0.9020098948670378
827,1.0058269026558264e-06,1.0,0.6461178660392761,0.9020098948670378
828,1.0026337804447394e-06,1.0,0.6462024450302124,0.9020098948670378
829,9.973119858841528e-07,1.0,0.6463046669960022,0.9020098948670378
830,9.887970691124792e-07,1.0,0.6469498872756958,0.9020098948670378
831,9.909257414619788e-07,1.0,0.6473862528800964,0.9020098948670378
832,9.856039469013922e-07,1.0,0.6468302607536316,0.9020098948670378
833,9.781533663044684e-07,1.0,0.6473029851913452,0.9020098948670378
834,9.770890301297186e-07,1.0,0.6468827128410339,0.9020098948670378
835,9.717671218822943e-07,1.0,0.6469350457191467,0.9020098948670378
836,9.65380991146958e-07,1.0,0.647171676158905,0.9020098948670378
837,9.632522051106207e-07,1.0,0.6472277045249939,0.9020098948670378
838,9.536728953207785e-07,1.0,0.6473478078842163,0.9020098948670378
839,9.526085023026098e-07,1.0,0.6475201845169067,0.9020098948670378
840,9.483511007601919e-07,1.0,0.6476929783821106,0.9020098948670378
841,9.398361839885183e-07,1.0,0.6480101346969604,0.9020098948670378
842,9.377073979521811e-07,1.0,0.6485990881919861,0.9020098948670378
843,9.355786119158438e-07,1.0,0.6491481065750122,0.9020098948670378
844,9.323856033915945e-07,1.0,0.6489049196243286,0.9020098948670378
845,9.30256931042095e-07,1.0,0.6494852304458618,0.9020098948670378
846,9.238706866199209e-07,1.0,0.6493555903434753,0.9020098948670378
847,9.217419574270025e-07,1.0,0.6491666436195374,0.9020098948670378
848,9.174844990411657e-07,1.0,0.6495224237442017,0.9020098948670378
849,9.142913768300787e-07,1.0,0.6500605940818787,0.9020098948670378
850,9.1322698381191e-07,1.0,0.6504567861557007,0.9020098948670378
851,9.079051892513235e-07,1.0,0.6500903367996216,0.9020098948670378
852,9.015190016725683e-07,1.0,0.6497348546981812,0.9020098948670378
853,8.961971502685628e-07,1.0,0.6502299308776855,0.9020098948670378
854,8.930040849008947e-07,1.0,0.6505402326583862,0.9020098948670378
855,8.91939691882726e-07,1.0,0.6505612730979919,0.9020098948670378
856,8.898109626898076e-07,1.0,0.6509107351303101,0.9020098948670378
857,8.844891112858022e-07,1.0,0.6510936617851257,0.9020098948670378
858,8.791672598817968e-07,1.0,0.6512050628662109,0.9020098948670378
859,8.78102923707047e-07,1.0,0.6514267325401306,0.9020098948670378
860,8.738455221646291e-07,1.0,0.6515805125236511,0.9020098948670378
861,8.685236707606236e-07,1.0,0.6517845988273621,0.9020098948670378
862,8.632018193566182e-07,1.0,0.6519476175308228,0.9020098948670378
863,8.64266155531368e-07,1.0,0.6524955630302429,0.9020098948670378
864,8.610730901636998e-07,1.0,0.6529580354690552,0.9020098948670378
865,8.578799679526128e-07,1.0,0.6523712873458862,0.9020098948670378
866,8.589443609707814e-07,1.0,0.6532461047172546,0.9020098948670378
867,8.525581165486074e-07,1.0,0.6533445119857788,0.9020098948670378
868,8.483006581627706e-07,1.0,0.6530648469924927,0.9020098948670378
869,8.461719289698522e-07,1.0,0.6534662246704102,0.9020098948670378
870,8.429788067587651e-07,1.0,0.653744101524353,0.9020098948670378
871,8.333996106557606e-07,1.0,0.6539048552513123,0.9020098948670378
872,8.344640036739293e-07,1.0,0.6538307070732117,0.9020098948670378
873,8.323352744810109e-07,1.0,0.6539883017539978,0.9020098948670378
874,8.302064884446736e-07,1.0,0.6540993452072144,0.9020098948670378
875,8.270134230770054e-07,1.0,0.6548115015029907,0.9020098948670378
876,8.227559078477498e-07,1.0,0.6553518176078796,0.9020098948670378
877,8.238203008659184e-07,1.0,0.6553540825843811,0.9020098948670378
878,8.18498449461913e-07,1.0,0.6557618379592896,0.9020098948670378
879,8.14241047919495e-07,1.0,0.6557386517524719,0.9020098948670378
880,8.142409910760762e-07,1.0,0.6559774279594421,0.9020098948670378
881,8.057261879912403e-07,1.0,0.6560883522033691,0.9020098948670378
882,8.057261879912403e-07,1.0,0.6565171480178833,0.9020098948670378
883,7.993399435690662e-07,1.0,0.6565824747085571,0.9020098948670378
884,7.982756073943165e-07,1.0,0.6566215753555298,0.9020098948670378
885,7.961468213579792e-07,1.0,0.6567465662956238,0.9020098948670378
886,7.89760633779224e-07,1.0,0.6572641134262085,0.9020098948670378
887,7.86567511568137e-07,1.0,0.6575861573219299,0.9020098948670378
888,7.886962407610554e-07,1.0,0.6575577855110168,0.9020098948670378
889,7.844387823752186e-07,1.0,0.6580885648727417,0.9020098948670378
890,7.791169309712132e-07,1.0,0.657958984375,0.9020098948670378
891,7.748594725853764e-07,1.0,0.6580927968025208,0.9020098948670378
892,7.706020141995396e-07,1.0,0.6582208871841431,0.9020098948670378
893,7.684732850066212e-07,1.0,0.6583265066146851,0.9020098948670378
894,7.674088919884525e-07,1.0,0.6583504676818848,0.9020098948670378
895,7.674088919884525e-07,1.0,0.6586189270019531,0.9020098948670378
896,7.65280219638953e-07,1.0,0.6586421728134155,0.9020098948670378
897,7.631514904460346e-07,1.0,0.6590018272399902,0.9020098948670378
898,7.599584250783664e-07,1.0,0.6592740416526794,0.9020098948670378
899,7.567653597106982e-07,1.0,0.6597852110862732,0.9020098948670378
900,7.557009666925296e-07,1.0,0.6600577235221863,0.9020098948670378
901,7.557009666925296e-07,1.0,0.6600157618522644,0.9020098948670378
902,7.514435083066928e-07,1.0,0.6610383987426758,0.9020098948670378
903,7.439928708663501e-07,1.0,0.661051332950592,0.9020098948670378
904,7.461216569026874e-07,1.0,0.6610478758811951,0.9020098948670378
905,7.450572070410999e-07,1.0,0.661117434501648,0.9020098948670378
906,7.376066264441761e-07,1.0,0.6615187525749207,0.9020098948670378
907,7.376066264441761e-07,1.0,0.6622653007507324,0.9020098948670378
908,7.365422902694263e-07,1.0,0.6616987586021423,0.9020098948670378
909,7.376066264441761e-07,1.0,0.661369800567627,0.9020098948670378
910,7.280273166543338e-07,1.0,0.6616540551185608,0.9020098948670378
911,7.280273166543338e-07,1.0,0.6622951626777649,0.9020098948670378
912,7.269630373230029e-07,1.0,0.6623604893684387,0.9020098948670378
913,7.2057673605741e-07,1.0,0.6620869040489197,0.9020098948670378
914,7.141906053220737e-07,1.0,0.6621710062026978,0.9020098948670378
915,7.141906053220737e-07,1.0,0.662278950214386,0.9020098948670378
916,7.173836706897418e-07,1.0,0.6623693108558655,0.9020098948670378
917,7.09933090092818e-07,1.0,0.6627434492111206,0.9020098948670378
918,7.078043608998996e-07,1.0,0.6629568338394165,0.9020098948670378
919,7.067400247251499e-07,1.0,0.6628751754760742,0.9020098948670378
920,7.078043608998996e-07,1.0,0.6634729504585266,0.9020098948670378
921,7.003538371463947e-07,1.0,0.6633576154708862,0.9020098948670378
922,7.024825094958942e-07,1.0,0.6632876992225647,0.9020098948670378
923,7.003537803029758e-07,1.0,0.6637380719184875,0.9020098948670378
924,6.971607717787265e-07,1.0,0.6645578145980835,0.9020098948670378
925,6.929032565494708e-07,1.0,0.6648545265197754,0.9020098948670378
926,6.843883397777972e-07,1.0,0.6641551852226257,0.9020098948670378
927,6.88645798163634e-07,1.0,0.6637998819351196,0.9020098948670378
928,6.811952175667102e-07,1.0,0.6644734740257263,0.9020098948670378
929,6.811952175667102e-07,1.0,0.6650181412696838,0.9020098948670378
930,6.801308813919604e-07,1.0,0.6651586294174194,0.9020098948670378
931,6.758733661627048e-07,1.0,0.6652243733406067,0.9020098948670378
932,6.716159646202868e-07,1.0,0.6655007004737854,0.9020098948670378
933,6.726803576384555e-07,1.0,0.6658136248588562,0.9020098948670378
934,6.684228424091998e-07,1.0,0.6663680672645569,0.9020098948670378
935,6.599078687941073e-07,1.0,0.6667948365211487,0.9020098948670378
936,6.556504672516894e-07,1.0,0.6666879653930664,0.9020098948670378
937,6.535216812153521e-07,1.0,0.6673374176025391,0.9020098948670378
938,6.50328615847684e-07,1.0,0.6671142578125,0.9020098948670378
939,6.439424282689288e-07,1.0,0.667126476764679,0.9020098948670378
940,6.407493060578417e-07,1.0,0.6670750379562378,0.9020098948670378
941,6.439423714255099e-07,1.0,0.6675253510475159,0.9020098948670378
942,6.386206337083422e-07,1.0,0.6679655909538269,0.9020098948670378
943,6.375562406901736e-07,1.0,0.6673784852027893,0.9020098948670378
944,6.354275114972552e-07,1.0,0.667495846748352,0.9020098948670378
945,6.332987823043368e-07,1.0,0.6677230596542358,0.9020098948670378
946,6.301056600932498e-07,1.0,0.6680728793144226,0.9020098948670378
947,6.269125378821627e-07,1.0,0.6681503057479858,0.9020098948670378
948,6.205263503034075e-07,1.0,0.6679078340530396,0.9020098948670378
949,6.141402195680712e-07,1.0,0.6681009531021118,0.9020098948670378
950,6.141402195680712e-07,1.0,0.6681857109069824,0.9020098948670378
951,6.130758265499026e-07,1.0,0.6684419512748718,0.9020098948670378
952,6.024321237418917e-07,1.0,0.6687027215957642,0.9020098948670378
953,6.077539751458971e-07,1.0,0.6689557433128357,0.9020098948670378
954,6.056252459529787e-07,1.0,0.6694979071617126,0.9020098948670378
955,6.024321237418917e-07,1.0,0.6689592003822327,0.9020098948670378
956,5.981746653560549e-07,1.0,0.6698773503303528,0.9020098948670378
957,6.034965167600603e-07,1.0,0.6700800657272339,0.9020098948670378
958,5.960459361631365e-07,1.0,0.6697145700454712,0.9020098948670378
959,5.949815431449679e-07,1.0,0.6698538661003113,0.9020098948670378
960,5.928528139520495e-07,1.0,0.6705521941184998,0.9020098948670378
961,5.928528139520495e-07,1.0,0.6709860563278198,0.9020098948670378
962,5.896596917409624e-07,1.0,0.6703629493713379,0.9020098948670378
963,5.790160457763704e-07,1.0,0.6703290343284607,0.9020098948670378
964,5.758229235652834e-07,1.0,0.6707887649536133,0.9020098948670378
965,5.726298013541964e-07,1.0,0.671151340007782,0.9020098948670378
966,5.67307949950191e-07,1.0,0.6710643768310547,0.9020098948670378
967,5.70501072161278e-07,1.0,0.6710516810417175,0.9020098948670378
968,5.662436137754412e-07,1.0,0.671376645565033,0.9020098948670378
969,5.683723429683596e-07,1.0,0.6717352271080017,0.9020098948670378
970,5.641148845825228e-07,1.0,0.6722368001937866,0.9020098948670378
971,5.619861553896044e-07,1.0,0.6719869375228882,0.9020098948670378
972,5.587930331785174e-07,1.0,0.6721154451370239,0.9020098948670378
973,5.577286401603487e-07,1.0,0.6724749803543091,0.9020098948670378
974,5.56664303985599e-07,1.0,0.6727675795555115,0.9020098948670378
975,5.577286401603487e-07,1.0,0.6728696227073669,0.9020098948670378
976,5.524067887563433e-07,1.0,0.6731721758842468,0.9020098948670378
977,5.545355747926806e-07,1.0,0.6732543706893921,0.9020098948670378
978,5.513424525815935e-07,1.0,0.6735065579414368,0.9020098948670378
979,5.502780595634249e-07,1.0,0.6741715669631958,0.9020098948670378
980,5.470849941957567e-07,1.0,0.6734864115715027,0.9020098948670378
981,5.396344135988329e-07,1.0,0.6741682887077332,0.9020098948670378
982,5.428275358099199e-07,1.0,0.674343466758728,0.9020098948670378
983,5.385700774240831e-07,1.0,0.6741453409194946,0.9020098948670378
984,5.321838898453279e-07,1.0,0.6743598580360413,0.9020098948670378
985,5.353769552129961e-07,1.0,0.6744879484176636,0.9020098948670378
986,5.300551606524095e-07,1.0,0.6744348406791687,0.9020098948670378
987,5.268620384413225e-07,1.0,0.6747027635574341,0.9020098948670378
988,5.247333092484041e-07,1.0,0.6750065684318542,0.9020098948670378
989,5.204758508625673e-07,1.0,0.6750611662864685,0.9020098948670378
990,5.194114578443987e-07,1.0,0.6749569773674011,0.9020098948670378
991,5.162183924767305e-07,1.0,0.674939751625061,0.9020098948670378
992,5.151539994585619e-07,1.0,0.675549328327179,0.9020098948670378
993,5.098322048979753e-07,1.0,0.6754438281059265,0.9020098948670378
994,5.077034757050569e-07,1.0,0.6757455468177795,0.9020098948670378
995,5.077034757050569e-07,1.0,0.6758276224136353,0.9020098948670378
996,5.066390826868883e-07,1.0,0.6758164763450623,0.9020098948670378
997,5.055747465121385e-07,1.0,0.6759848594665527,0.9020098948670378
998,5.045103534939699e-07,1.0,0.6762262582778931,0.9020098948670378
999,5.002528951081331e-07,1.0,0.6763685941696167,0.9020098948670378
