,loss,recall,val_loss,val_recall
0,0.6462500095367432,0.7300000190734863,0.7233083844184875,0.36000001430511475
1,0.5728596448898315,0.7699999809265137,0.7221730947494507,0.36000001430511475
2,0.5097978711128235,0.7799999713897705,0.720832347869873,0.36000001430511475
3,0.44712844491004944,0.75,0.7194860577583313,0.36000001430511475
4,0.4281367063522339,0.7699999809265137,0.718353807926178,0.36000001430511475
5,0.3911530375480652,0.800000011920929,0.7176112532615662,0.36000001430511475
6,0.3787536323070526,0.8100000023841858,0.7166451811790466,0.36000001430511475
7,0.35662710666656494,0.8100000023841858,0.7157043218612671,0.36000001430511475
8,0.34189534187316895,0.8500000238418579,0.7152410745620728,0.36000001430511475
9,0.3221254050731659,0.8500000238418579,0.7146447896957397,0.36000001430511475
10,0.3051080107688904,0.8799999952316284,0.713965654373169,0.36000001430511475
11,0.3093648850917816,0.8600000143051147,0.7131916880607605,0.36000001430511475
12,0.28401267528533936,0.8999999761581421,0.7127435803413391,0.36000001430511475
13,0.2782374918460846,0.8799999952316284,0.7124289870262146,0.36000001430511475
14,0.26891759037971497,0.8899999856948853,0.711829423904419,0.36000001430511475
15,0.2625453472137451,0.8799999952316284,0.7113001346588135,0.36000001430511475
16,0.24751490354537964,0.8899999856948853,0.7105753421783447,0.36000001430511475
17,0.2378334105014801,0.8999999761581421,0.7098246812820435,0.36000001430511475
18,0.2307891994714737,0.8899999856948853,0.7091506719589233,0.36000001430511475
19,0.21836405992507935,0.9200000166893005,0.7084469795227051,0.36000001430511475
20,0.23335720598697662,0.8899999856948853,0.7076541185379028,0.36000001430511475
21,0.2108411192893982,0.9200000166893005,0.7068495154380798,0.36000001430511475
22,0.20193186402320862,0.9200000166893005,0.7060459852218628,0.36000001430511475
23,0.2040329873561859,0.9200000166893005,0.705051064491272,0.36000001430511475
24,0.19907015562057495,0.9200000166893005,0.7042007446289062,0.36000001430511475
25,0.16752038896083832,0.9399999976158142,0.7034006714820862,0.36000001430511475
26,0.1928219199180603,0.9300000071525574,0.7027209997177124,0.36000001430511475
27,0.181734099984169,0.9200000166893005,0.7021830081939697,0.36000001430511475
28,0.17220380902290344,0.949999988079071,0.7012953162193298,0.36000001430511475
29,0.16973529756069183,0.9300000071525574,0.7004979848861694,0.36000001430511475
30,0.1578078716993332,0.9599999785423279,0.6996391415596008,0.36000001430511475
31,0.15505275130271912,0.9599999785423279,0.6987106800079346,0.36000001430511475
32,0.16295748949050903,0.9399999976158142,0.6977599263191223,0.36000001430511475
33,0.15792249143123627,0.949999988079071,0.6967270374298096,0.36000001430511475
34,0.14316754043102264,0.9399999976158142,0.6957300305366516,0.36000001430511475
35,0.13203781843185425,0.9399999976158142,0.6947209239006042,0.36000001430511475
36,0.12490909546613693,0.9700000286102295,0.6935362219810486,0.36000001430511475
37,0.14235226809978485,0.949999988079071,0.6920854449272156,0.36000001430511475
38,0.12642601132392883,0.9700000286102295,0.6899369955062866,0.36000001430511475
39,0.11680401861667633,0.9700000286102295,0.6879791021347046,0.3799999952316284
40,0.11396210640668869,0.9700000286102295,0.6860217452049255,0.4399999976158142
41,0.1274518519639969,0.9599999785423279,0.6836833357810974,0.5600000023841858
42,0.11275738477706909,0.9700000286102295,0.6813932061195374,0.6299999952316284
43,0.10224255919456482,0.9800000190734863,0.6787778735160828,0.699999988079071
44,0.09771843254566193,0.9800000190734863,0.675566554069519,0.7099999785423279
45,0.10159549117088318,0.9700000286102295,0.6724169254302979,0.7400000095367432
46,0.09072712063789368,0.9900000095367432,0.6681530475616455,0.75
47,0.07669748365879059,0.9900000095367432,0.6633011698722839,0.7900000214576721
48,0.08921784162521362,0.9700000286102295,0.6584818363189697,0.800000011920929
49,0.07891074568033218,0.9900000095367432,0.6524333357810974,0.8399999737739563
50,0.07270117849111557,0.9800000190734863,0.646220862865448,0.8600000143051147
51,0.0703175887465477,0.9800000190734863,0.640798807144165,0.8600000143051147
52,0.08490041643381119,0.9800000190734863,0.6345615983009338,0.8600000143051147
53,0.08671195805072784,0.9800000190734863,0.6274078488349915,0.8600000143051147
54,0.0663992390036583,1.0,0.6195230484008789,0.8600000143051147
55,0.06819192320108414,1.0,0.6117678284645081,0.8600000143051147
56,0.056075986474752426,1.0,0.6025078296661377,0.8700000047683716
57,0.06146446615457535,0.9900000095367432,0.5942961573600769,0.8700000047683716
58,0.04900442063808441,1.0,0.5844300389289856,0.8700000047683716
59,0.056212760508060455,1.0,0.5745652914047241,0.8700000047683716
60,0.04697215557098389,0.9900000095367432,0.5628594160079956,0.8999999761581421
61,0.053705696016550064,1.0,0.5524442195892334,0.9100000262260437
62,0.05338344722986221,0.9900000095367432,0.5404703617095947,0.9100000262260437
63,0.04630349576473236,1.0,0.5283070206642151,0.8999999761581421
64,0.035423971712589264,1.0,0.5150482654571533,0.9100000262260437
65,0.06120914965867996,0.9800000190734863,0.5058275461196899,0.8999999761581421
66,0.0498846210539341,0.9900000095367432,0.49426621198654175,0.9100000262260437
67,0.05189443752169609,0.9900000095367432,0.48415568470954895,0.9100000262260437
68,0.05837499722838402,0.9900000095367432,0.4767228364944458,0.9100000262260437
69,0.04826252907514572,0.9900000095367432,0.46494466066360474,0.8999999761581421
70,0.04463731124997139,1.0,0.45381203293800354,0.8999999761581421
71,0.050392962992191315,0.9900000095367432,0.4423532485961914,0.8999999761581421
72,0.039052706211805344,1.0,0.42968490719795227,0.8999999761581421
73,0.04910264164209366,0.9900000095367432,0.41777098178863525,0.8999999761581421
74,0.042070791125297546,1.0,0.4113609194755554,0.8999999761581421
75,0.038558926433324814,0.9900000095367432,0.40160003304481506,0.9100000262260437
76,0.04603775963187218,1.0,0.39309707283973694,0.8999999761581421
77,0.04620509594678879,0.9900000095367432,0.3867248594760895,0.8999999761581421
78,0.03013262338936329,1.0,0.3785676658153534,0.8999999761581421
79,0.026395173743367195,1.0,0.36791449785232544,0.9100000262260437
80,0.03947027400135994,0.9800000190734863,0.3594253957271576,0.8999999761581421
81,0.03634437918663025,0.9900000095367432,0.35445308685302734,0.8999999761581421
82,0.037767913192510605,0.9900000095367432,0.34794244170188904,0.8999999761581421
83,0.03356243669986725,0.9900000095367432,0.34155774116516113,0.8999999761581421
84,0.019909894093871117,1.0,0.3377615213394165,0.8999999761581421
85,0.03632878139615059,0.9900000095367432,0.3344604969024658,0.8999999761581421
86,0.024968469515442848,1.0,0.33171185851097107,0.9100000262260437
87,0.020328225567936897,1.0,0.32668912410736084,0.9100000262260437
88,0.02313360758125782,1.0,0.3218967914581299,0.9100000262260437
89,0.0168464258313179,1.0,0.3159466087818146,0.8999999761581421
90,0.019785769283771515,1.0,0.31050387024879456,0.8999999761581421
91,0.016905652359128,1.0,0.3090015947818756,0.8999999761581421
92,0.03226102888584137,0.9900000095367432,0.30576175451278687,0.8999999761581421
93,0.026630671694874763,1.0,0.3021588623523712,0.8999999761581421
94,0.0223532821983099,1.0,0.3011973798274994,0.9100000262260437
95,0.02558187022805214,1.0,0.29807719588279724,0.8999999761581421
96,0.013090960681438446,1.0,0.29405835270881653,0.8999999761581421
97,0.014869722537696362,1.0,0.2909839451313019,0.8999999761581421
98,0.019690757617354393,1.0,0.28886014223098755,0.8999999761581421
99,0.017056787386536598,1.0,0.28615397214889526,0.8999999761581421
100,0.02161327190697193,1.0,0.2847215533256531,0.8999999761581421
101,0.016570620238780975,1.0,0.28289008140563965,0.8999999761581421
102,0.020667916163802147,1.0,0.28231075406074524,0.8999999761581421
103,0.0197744220495224,1.0,0.2820505201816559,0.8999999761581421
104,0.014501520432531834,1.0,0.28171002864837646,0.8999999761581421
105,0.02049066312611103,1.0,0.28156980872154236,0.8999999761581421
106,0.009692292660474777,1.0,0.2806803584098816,0.8999999761581421
107,0.029339490458369255,0.9900000095367432,0.282132625579834,0.8999999761581421
108,0.012954332865774632,1.0,0.2818082869052887,0.8999999761581421
109,0.011944890022277832,1.0,0.2821961045265198,0.8999999761581421
110,0.022084584459662437,1.0,0.27961403131484985,0.8999999761581421
111,0.013623417355120182,1.0,0.2766505777835846,0.8999999761581421
112,0.00951055996119976,1.0,0.27575162053108215,0.8999999761581421
113,0.008245568722486496,1.0,0.2745928466320038,0.8999999761581421
114,0.016448868438601494,1.0,0.27243056893348694,0.8999999761581421
115,0.015199976973235607,1.0,0.2716497480869293,0.8999999761581421
116,0.012552082538604736,1.0,0.2722223699092865,0.8999999761581421
117,0.020581191405653954,0.9900000095367432,0.27164363861083984,0.8999999761581421
118,0.013785075396299362,1.0,0.2713750898838043,0.8999999761581421
119,0.01409202441573143,1.0,0.269714891910553,0.8999999761581421
120,0.015227578580379486,1.0,0.26791515946388245,0.8999999761581421
121,0.010444135405123234,1.0,0.26655852794647217,0.8999999761581421
122,0.020178889855742455,1.0,0.26659369468688965,0.8999999761581421
123,0.027714816853404045,0.9800000190734863,0.26802363991737366,0.8999999761581421
124,0.011551023460924625,1.0,0.26664072275161743,0.8999999761581421
125,0.010688786394894123,1.0,0.2673192620277405,0.8999999761581421
126,0.01648973673582077,1.0,0.26776257157325745,0.8999999761581421
127,0.01931551657617092,1.0,0.26843753457069397,0.8999999761581421
128,0.007279832381755114,1.0,0.26894325017929077,0.8999999761581421
129,0.009911487810313702,1.0,0.26779040694236755,0.8999999761581421
130,0.00997489970177412,1.0,0.2672674059867859,0.8999999761581421
131,0.010023635812103748,1.0,0.26846036314964294,0.8999999761581421
132,0.009768919087946415,1.0,0.2694738805294037,0.8999999761581421
133,0.006835998967289925,1.0,0.26846134662628174,0.8999999761581421
134,0.018531614914536476,0.9900000095367432,0.2667398154735565,0.8999999761581421
135,0.021566739305853844,0.9900000095367432,0.265252947807312,0.8999999761581421
136,0.006380853708833456,1.0,0.26503002643585205,0.8999999761581421
137,0.010322889313101768,1.0,0.2621728479862213,0.8999999761581421
138,0.009531657211482525,1.0,0.2602557837963104,0.8999999761581421
139,0.011281694285571575,1.0,0.25989872217178345,0.8999999761581421
140,0.007683883886784315,1.0,0.2598423659801483,0.8999999761581421
141,0.008791365660727024,1.0,0.26199936866760254,0.8999999761581421
142,0.005503530614078045,1.0,0.2618829607963562,0.8999999761581421
143,0.006496450863778591,1.0,0.2622936964035034,0.8999999761581421
144,0.013976288959383965,1.0,0.26179981231689453,0.8999999761581421
145,0.004452688619494438,1.0,0.2605559527873993,0.8999999761581421
146,0.006159586366266012,1.0,0.26005619764328003,0.8999999761581421
147,0.00629882887005806,1.0,0.26143336296081543,0.8999999761581421
148,0.015906423330307007,1.0,0.2601083219051361,0.9100000262260437
149,0.003949298057705164,1.0,0.2599925696849823,0.9100000262260437
150,0.012552356347441673,0.9900000095367432,0.26058682799339294,0.9100000262260437
151,0.015169382095336914,0.9900000095367432,0.26651546359062195,0.8999999761581421
152,0.013164796866476536,1.0,0.26863038539886475,0.8999999761581421
153,0.007894359529018402,1.0,0.27053385972976685,0.8999999761581421
154,0.008364706300199032,1.0,0.269202321767807,0.8999999761581421
155,0.0037881440948694944,1.0,0.2665920555591583,0.8999999761581421
156,0.007365756202489138,1.0,0.2639627754688263,0.8999999761581421
157,0.005010044667869806,1.0,0.2606671154499054,0.8999999761581421
158,0.013071620836853981,1.0,0.26156020164489746,0.8999999761581421
159,0.010670111514627934,1.0,0.26078498363494873,0.8999999761581421
160,0.010869388468563557,1.0,0.26157447695732117,0.8999999761581421
161,0.011815449222922325,1.0,0.26134535670280457,0.8999999761581421
162,0.005735370330512524,1.0,0.2588752806186676,0.8999999761581421
163,0.010085836984217167,1.0,0.2558484375476837,0.8999999761581421
164,0.009370486252009869,1.0,0.25638094544410706,0.8999999761581421
165,0.00847470760345459,1.0,0.25718235969543457,0.8999999761581421
166,0.0022583238314837217,1.0,0.25746655464172363,0.8999999761581421
167,0.007220996078103781,1.0,0.25783711671829224,0.8999999761581421
168,0.004794416017830372,1.0,0.2573307156562805,0.8999999761581421
169,0.013242931105196476,1.0,0.25426486134529114,0.8999999761581421
170,0.003138375235721469,1.0,0.252916157245636,0.8999999761581421
171,0.005734608042985201,1.0,0.2532255947589874,0.8999999761581421
172,0.003791489638388157,1.0,0.2538980543613434,0.8999999761581421
173,0.009624495171010494,1.0,0.2535375654697418,0.8999999761581421
174,0.004447094164788723,1.0,0.25438392162323,0.8999999761581421
175,0.007462440524250269,1.0,0.25611138343811035,0.8999999761581421
176,0.005330368876457214,1.0,0.2567961812019348,0.8999999761581421
177,0.005824775900691748,1.0,0.25661709904670715,0.8999999761581421
178,0.005017162766307592,1.0,0.25771722197532654,0.8999999761581421
179,0.003515667049214244,1.0,0.2569590210914612,0.8999999761581421
180,0.004513239488005638,1.0,0.2557752728462219,0.8999999761581421
181,0.004100435879081488,1.0,0.25493133068084717,0.8999999761581421
182,0.002021352294832468,1.0,0.2536608874797821,0.8999999761581421
183,0.0043044062331318855,1.0,0.25271520018577576,0.8999999761581421
184,0.005221270956099033,1.0,0.25222453474998474,0.8999999761581421
185,0.0031173506285995245,1.0,0.2543603181838989,0.8999999761581421
186,0.010644140653312206,1.0,0.25357168912887573,0.8999999761581421
187,0.006201060488820076,1.0,0.25398170948028564,0.8999999761581421
188,0.009626932442188263,1.0,0.25147387385368347,0.8999999761581421
189,0.0022001871839165688,1.0,0.24933810532093048,0.8999999761581421
190,0.005388894118368626,1.0,0.25094932317733765,0.8999999761581421
191,0.003804542124271393,1.0,0.2505619525909424,0.8999999761581421
192,0.0022223331034183502,1.0,0.2500212788581848,0.8999999761581421
193,0.005371605046093464,1.0,0.24938459694385529,0.8999999761581421
194,0.0025720030535012484,1.0,0.24929042160511017,0.8999999761581421
195,0.005713633261620998,1.0,0.2501417100429535,0.8999999761581421
196,0.002038379665464163,1.0,0.25119543075561523,0.8999999761581421
197,0.006922782864421606,1.0,0.25263461470603943,0.8999999761581421
198,0.0038023977540433407,1.0,0.2530244290828705,0.8999999761581421
199,0.0024181075859814882,1.0,0.2531454563140869,0.8999999761581421
200,0.0038588538300246,1.0,0.25205615162849426,0.8999999761581421
201,0.003924276679754257,1.0,0.24980948865413666,0.8999999761581421
202,0.004415607079863548,1.0,0.24846361577510834,0.8999999761581421
203,0.004381496459245682,1.0,0.24747353792190552,0.8999999761581421
204,0.006600477732717991,1.0,0.2480015754699707,0.8999999761581421
205,0.0025622150860726833,1.0,0.25114068388938904,0.8999999761581421
206,0.007087430451065302,1.0,0.24932622909545898,0.8999999761581421
207,0.005901101045310497,1.0,0.24731944501399994,0.8999999761581421
208,0.007653712760657072,1.0,0.24609477818012238,0.8999999761581421
209,0.0023785794619470835,1.0,0.2448095828294754,0.9100000262260437
210,0.004676871467381716,1.0,0.24423763155937195,0.9100000262260437
211,0.0035643195733428,1.0,0.24392051994800568,0.9100000262260437
212,0.006354227662086487,1.0,0.2445921152830124,0.9100000262260437
213,0.004549054894596338,1.0,0.24371707439422607,0.9100000262260437
214,0.007694060914218426,1.0,0.24333369731903076,0.9100000262260437
215,0.009184525348246098,1.0,0.24215954542160034,0.9100000262260437
216,0.001654589083045721,1.0,0.24250005185604095,0.8999999761581421
217,0.0016201033722609282,1.0,0.24262844026088715,0.8999999761581421
218,0.002065510954707861,1.0,0.24230575561523438,0.8999999761581421
219,0.0019987612031400204,1.0,0.24248084425926208,0.8999999761581421
220,0.006878416519612074,1.0,0.24524155259132385,0.8999999761581421
221,0.008673998527228832,1.0,0.2444496601819992,0.8999999761581421
222,0.0086350217461586,1.0,0.24679476022720337,0.8999999761581421
223,0.0029693120159208775,1.0,0.24888929724693298,0.8999999761581421
224,0.0016099321655929089,1.0,0.24892334640026093,0.8999999761581421
225,0.001750833704136312,1.0,0.24883344769477844,0.8999999761581421
226,0.0027404073625802994,1.0,0.24898748099803925,0.8999999761581421
227,0.0028854759875684977,1.0,0.2492418736219406,0.8999999761581421
228,0.0033194192219525576,1.0,0.2493085116147995,0.8999999761581421
229,0.002608039416372776,1.0,0.24922025203704834,0.8999999761581421
230,0.004308221861720085,1.0,0.24867595732212067,0.8999999761581421
231,0.003428221680223942,1.0,0.24690867960453033,0.8999999761581421
232,0.005632152780890465,1.0,0.24436908960342407,0.9100000262260437
233,0.0028016245923936367,1.0,0.24292032420635223,0.9100000262260437
234,0.0038343218620866537,1.0,0.24215856194496155,0.9100000262260437
235,0.0023119370453059673,1.0,0.24232476949691772,0.9100000262260437
236,0.004572274163365364,1.0,0.24241980910301208,0.9100000262260437
237,0.0056494600139558315,1.0,0.24329012632369995,0.9100000262260437
238,0.002089242683723569,1.0,0.24426117539405823,0.8999999761581421
239,0.004223229829221964,1.0,0.2430141568183899,0.8999999761581421
240,0.001260775956325233,1.0,0.24165040254592896,0.9100000262260437
241,0.004317420534789562,1.0,0.23882947862148285,0.9200000166893005
242,0.010724945925176144,1.0,0.2404959499835968,0.9100000262260437
243,0.0021966362837702036,1.0,0.24260812997817993,0.8999999761581421
244,0.0012070268858224154,1.0,0.2434059977531433,0.8999999761581421
245,0.001545474398881197,1.0,0.24253962934017181,0.8999999761581421
246,0.002593883778899908,1.0,0.2413146048784256,0.9100000262260437
247,0.002624122193083167,1.0,0.24107074737548828,0.9100000262260437
248,0.001403085421770811,1.0,0.2405564934015274,0.9100000262260437
249,0.0031844922341406345,1.0,0.2408255934715271,0.9100000262260437
