,loss,recall,val_loss,val_recall
0,0.9241447448730469,0.33482142857142855,0.6742792129516602,0.3125
1,0.6786667704582214,0.33482142857142855,0.7134628891944885,0.3125
2,0.6479107737541199,0.33482142857142855,0.6619507670402527,0.3125
3,0.6527620553970337,0.33482142857142855,0.6884399056434631,0.3125
4,0.637762188911438,0.33482142857142855,0.6640703082084656,0.3125
5,0.6452865600585938,0.33482142857142855,0.6675266623497009,0.3125
6,0.6411539912223816,0.33482142857142855,0.6722412705421448,0.3125
7,0.6393826603889465,0.33482142857142855,0.6654195785522461,0.3125
8,0.6421089768409729,0.33482142857142855,0.6695538759231567,0.3125
9,0.6398410797119141,0.33482142857142855,0.6681070923805237,0.3125
10,0.6404586434364319,0.33482142857142855,0.6671267747879028,0.3125
11,0.6405034065246582,0.33482142857142855,0.6684289574623108,0.3125
12,0.6396034955978394,0.33482142857142855,0.6669950485229492,0.3125
13,0.6396102905273438,0.33482142857142855,0.6667884588241577,0.3125
14,0.6381446123123169,0.33482142857142855,0.6650333404541016,0.3125
15,0.6330503225326538,0.33482142857142855,0.639663577079773,0.3125
16,0.6000449061393738,0.33482142857142855,0.6212702393531799,0.3125
17,0.5931252837181091,0.40378401360544214,0.644199788570404,0.3125
18,0.5946967005729675,0.478954081632653,0.6092134714126587,0.38541666666666663
19,0.5583507418632507,0.5657738095238095,0.6447404026985168,0.7259637188208616
20,0.620123565196991,0.48490259740259745,0.6239811182022095,0.3125
21,0.5414469242095947,0.5946003401360543,0.6115970611572266,0.6893372500515359
22,0.5565860867500305,0.7160125588697017,0.5332054495811462,0.7451144094001236
23,0.5024594664573669,0.7152490366776082,0.5107764601707458,0.7639404246547103
24,0.4925706386566162,0.7208307565450423,0.5002134442329407,0.7653009688723974
25,0.4993794858455658,0.7568027210884354,0.46805673837661743,0.7990509490509491
26,0.451631098985672,0.7712311498025783,0.4495553970336914,0.8151360544217686
27,0.45939382910728455,0.8096938775510204,0.43036383390426636,0.7989272632129775
28,0.41740521788597107,0.8073670377241805,0.4236994683742523,0.8027821384964243
29,0.3780480921268463,0.8243197278911565,0.44793111085891724,0.8126623376623378
30,0.33389511704444885,0.8511904761904762,0.5612466931343079,0.75
31,0.447819322347641,0.7826617826617827,0.43293046951293945,0.7917931275074132
32,0.40077823400497437,0.7448412698412697,0.4516032040119171,0.7925041228612656
33,0.6502169966697693,0.6119654155368442,0.6181045770645142,0.3125
34,0.572997510433197,0.33482142857142855,0.6314013600349426,0.3125
35,0.5113537907600403,0.5335034013605442,0.4707460105419159,0.7800711193568336
36,0.4466135799884796,0.784104784104784,0.4274478554725647,0.8036891679748822
37,0.4193251430988312,0.7928650714365,0.48270514607429504,0.7902494331065759
38,0.39495420455932617,0.832321646607361,0.4620577394962311,0.7858974358974358
39,0.33186012506484985,0.8285121624407338,0.3885440528392792,0.8161608233036803
40,0.3757512867450714,0.8465367965367966,0.40626460313796997,0.822108843537415
41,0.338906854391098,0.8415816326530612,0.46210965514183044,0.8206959706959707
42,0.3870747983455658,0.8192830978545265,0.42804479598999023,0.7862803862803862
43,0.35888591408729553,0.8095317381031667,0.41936829686164856,0.7881975167689453
44,0.31284040212631226,0.8528344671201814,0.4680233895778656,0.809636395350681
45,0.29130658507347107,0.855777159348588,0.37991100549697876,0.8154761904761905
46,0.31492045521736145,0.8590346161774732,0.406755268573761,0.8338718820861678
47,0.38759416341781616,0.8379200164914451,0.6134390234947205,0.78992673992674
48,0.3880283236503601,0.8271825396825397,0.44752970337867737,0.8202939917225631
49,0.3457213342189789,0.8452460238174523,0.48163124918937683,0.7709183673469387
50,0.4120596945285797,0.8181689342403627,0.5124736428260803,0.8155320869606584
51,0.3279469311237335,0.8816096601810887,0.4165024161338806,0.8023286237571952
52,0.3753388524055481,0.8323386930529787,0.5512149930000305,0.7236787022501308
53,0.3894437253475189,0.8529478458049887,0.4135982096195221,0.8066885495456925
54,0.3330412209033966,0.8507405293119578,0.4938311278820038,0.8154298082869511
55,0.28517475724220276,0.8881493506493506,0.39971786737442017,0.8256846328274899
56,0.297598272562027,0.85590441304727,0.5868315100669861,0.8015686694258123
57,0.2946392893791199,0.864161433804291,0.40216609835624695,0.8053898482469911
58,0.24811573326587677,0.8990362811791383,0.6307129859924316,0.7804409875838447
59,0.3110532760620117,0.874234693877551,0.41738176345825195,0.7876409304980733
60,0.22637121379375458,0.9083333333333333,0.7277401685714722,0.7750535179106607
61,0.24931538105010986,0.889448051948052,0.5064316987991333,0.7914726146869003
62,0.41725626587867737,0.7893939393939393,0.5713486671447754,0.7863029827315542
63,0.40040794014930725,0.8399943310657596,0.40870794653892517,0.8155320869606584
64,0.2561711370944977,0.9100340136054422,0.5869415402412415,0.7817634746206175
65,0.26365962624549866,0.898495155638013,0.44419360160827637,0.7968864468864468
66,0.28463590145111084,0.8713976499690785,0.7693735361099243,0.7485086342229199
67,0.3598330318927765,0.8458791208791209,0.41437557339668274,0.7955259026687598
68,0.24662968516349792,0.8990362811791383,0.6243283152580261,0.8112435183863757
69,0.20193901658058167,0.9151927437641724,0.4317607581615448,0.7954331382902812
70,0.18212373554706573,0.9053803339517625,0.6335214376449585,0.7548883656026513
71,0.21317777037620544,0.8934240362811793,0.543544352054596,0.8354256854256855
72,0.2802544832229614,0.8912028447742734,0.9049986600875854,0.6118262689691261
73,0.5001319646835327,0.7165889665889666,0.7849298715591431,0.38690476190476186
74,0.29527583718299866,0.7920866831581117,0.44185566902160645,0.7968014128728415
75,0.25716960430145264,0.8907029478458052,0.683478832244873,0.7807299843014128
76,0.25778883695602417,0.8986343022057307,0.45481109619140625,0.7746539175110604
77,0.22792430222034454,0.9151927437641724,0.6207067370414734,0.7815184815184815
78,0.2790279984474182,0.8981851481851482,0.8887022733688354,0.7043367346938776
79,0.6435708999633789,0.7653933368219084,0.5553504228591919,0.7607142857142858
80,0.5077373385429382,0.5333333333333333,0.8353846669197083,0.3125
81,0.6282895803451538,0.645408163265306,0.6257675290107727,0.6230442176870747
82,0.5754111409187317,0.8000850340136054,0.5253467559814453,0.7780398173255316
83,0.4782726466655731,0.8213151927437642,0.7921919822692871,0.6619472789115646
84,0.7308660745620728,0.4092261904761904,0.6645117998123169,0.3125
85,0.6608954668045044,0.33482142857142855,0.6506678462028503,0.3125
86,0.6305798292160034,0.33482142857142855,0.6559204459190369,0.38690476190476186
87,0.5491942167282104,0.5721938775510205,0.5302323698997498,0.696771978021978
88,0.39233851432800293,0.8536487322201607,0.44143247604370117,0.7925170068027211
89,0.3424827754497528,0.857282400139543,0.5146698355674744,0.7538239538239537
90,0.4561252295970917,0.8160714285714287,0.6076247096061707,0.7964666286094858
91,0.31754356622695923,0.8772435897435897,0.4191317558288574,0.8308477237048665
92,0.28987953066825867,0.8901927437641722,0.556003987789154,0.8168284096855526
93,0.32926052808761597,0.8816096601810887,0.4035852551460266,0.8416186987615558
94,0.28383204340934753,0.8818594104308389,0.410264790058136,0.8416186987615558
95,0.24954792857170105,0.9049886621315194,0.40766897797584534,0.8385531135531136
96,0.3259323239326477,0.8811791383219955,0.7105830907821655,0.7510989010989011
97,0.4123445451259613,0.8532675657675658,0.5564128160476685,0.7864512471655328
98,0.38136956095695496,0.8574546485260771,0.40331214666366577,0.8416615130900845
99,0.3382469117641449,0.9023809523809524,1.1480540037155151,0.5727040816326531
100,0.7723087072372437,0.6425595238095239,0.6057014465332031,0.746677132391418
101,0.4440616965293884,0.8752826538540823,0.4848971962928772,0.8092138020709448
102,0.4039675295352936,0.8464002267573696,0.4184200167655945,0.8280655852084423
103,0.28013738989830017,0.8890022675736962,0.47110819816589355,0.8188157081014223
104,0.26062753796577454,0.8944135229849515,0.49136826395988464,0.8188157081014223
105,0.23804068565368652,0.9009070294784581,0.5033562779426575,0.8188157081014223
106,0.23520927131175995,0.9009070294784581,0.5043357610702515,0.8188157081014223
107,0.2327490597963333,0.9009070294784581,0.4987407326698303,0.8188157081014223
108,0.23106150329113007,0.9009070294784581,0.490468293428421,0.8188157081014223
109,0.22969385981559753,0.9009070294784581,0.478931725025177,0.8188157081014223
110,0.22970595955848694,0.9009070294784581,0.4695758819580078,0.8261853226138941
111,0.22823265194892883,0.9009070294784581,0.46733149886131287,0.8261853226138941
112,0.2274640053510666,0.9009070294784581,0.46386098861694336,0.8261853226138941
113,0.2230227142572403,0.9009070294784581,0.4768187701702118,0.8188157081014223
114,0.22425983846187592,0.9009070294784581,0.48434361815452576,0.8188157081014223
115,0.2267332375049591,0.9009070294784581,0.4768693745136261,0.8188157081014223
116,0.2343876212835312,0.9009070294784581,0.47992950677871704,0.8188157081014223
117,0.3268297016620636,0.8761904761904761,0.8558675050735474,0.7194662480376764
118,0.48252344131469727,0.780295299938157,0.39866116642951965,0.8627551020408164
119,0.26912492513656616,0.9009070294784581,0.4782528281211853,0.8337860552146266
120,0.27346178889274597,0.9031385281385281,0.47482720017433167,0.8337860552146266
121,0.23932671546936035,0.9009070294784581,0.44883987307548523,0.8204692133263561
122,0.7148520350456238,0.6504807692307691,1.0324357748031616,0.3125
123,0.6980494260787964,0.33482142857142855,0.6515870094299316,0.3125
124,0.6353522539138794,0.6661178107606679,0.6033586859703064,0.7467261904761905
125,0.6366134285926819,0.641454081632653,0.6924759149551392,0.3125
126,0.6443939208984375,0.3333333333333333,0.6660905480384827,0.3125
127,0.6401057243347168,0.33482142857142855,0.667448103427887,0.3125
128,0.6386130452156067,0.33482142857142855,0.668421745300293,0.3125
129,0.6377926468849182,0.33482142857142855,0.6668166518211365,0.3125
130,0.638077437877655,0.33482142857142855,0.6668442487716675,0.3125
131,0.6379502415657043,0.33482142857142855,0.6674163937568665,0.3125
132,0.637617290019989,0.33482142857142855,0.667144775390625,0.3125
133,0.6375719308853149,0.33482142857142855,0.6668846011161804,0.3125
134,0.6375832557678223,0.33482142857142855,0.6670128703117371,0.3125
135,0.6374723315238953,0.33482142857142855,0.6670638918876648,0.3125
136,0.6373752355575562,0.33482142857142855,0.6669548153877258,0.3125
137,0.6373410820960999,0.33482142857142855,0.666911780834198,0.3125
138,0.6373000144958496,0.33482142857142855,0.6669359803199768,0.3125
139,0.6372379064559937,0.33482142857142855,0.6669241786003113,0.3125
140,0.6371870040893555,0.33482142857142855,0.6668868660926819,0.3125
141,0.6371496915817261,0.33482142857142855,0.6668701171875,0.3125
142,0.6371105313301086,0.33482142857142855,0.6668654084205627,0.3125
143,0.637069046497345,0.33482142857142855,0.6668518781661987,0.3125
144,0.6370317339897156,0.33482142857142855,0.6668341755867004,0.3125
145,0.6369984745979309,0.33482142857142855,0.6668216586112976,0.3125
146,0.636965811252594,0.33482142857142855,0.6668119430541992,0.3125
147,0.6369337439537048,0.33482142857142855,0.6668007969856262,0.3125
148,0.6369035840034485,0.33482142857142855,0.6667888760566711,0.3125
149,0.6368750929832458,0.33482142857142855,0.6667783856391907,0.3125
150,0.6368476748466492,0.33482142857142855,0.6667688488960266,0.3125
151,0.6368209719657898,0.33482142857142855,0.6667591333389282,0.3125
152,0.6367955803871155,0.33482142857142855,0.6667495369911194,0.3125
153,0.6367710828781128,0.33482142857142855,0.6667404770851135,0.3125
154,0.6367474794387817,0.33482142857142855,0.6667317748069763,0.3125
155,0.636724591255188,0.33482142857142855,0.6667231917381287,0.3125
156,0.6367024183273315,0.33482142857142855,0.6667147874832153,0.3125
157,0.6366810202598572,0.33482142857142855,0.6667066812515259,0.3125
158,0.6366602182388306,0.33482142857142855,0.6666987538337708,0.3125
159,0.6366400122642517,0.33482142857142855,0.6666909456253052,0.3125
160,0.6366204619407654,0.33482142857142855,0.6666831970214844,0.3125
161,0.6366011500358582,0.33482142857142855,0.6666756868362427,0.3125
162,0.6365825533866882,0.33482142857142855,0.6666682958602905,0.3125
163,0.6365642547607422,0.33482142857142855,0.6666608452796936,0.3125
164,0.6365465521812439,0.33482142857142855,0.666653573513031,0.3125
165,0.6365289688110352,0.33482142857142855,0.6666463017463684,0.3125
166,0.6365118026733398,0.33482142857142855,0.666638970375061,0.3125
167,0.6364949345588684,0.33482142857142855,0.6666316986083984,0.3125
168,0.6364783644676208,0.33482142857142855,0.6666243672370911,0.3125
169,0.6364618539810181,0.33482142857142855,0.6666168570518494,0.3125
170,0.6364456415176392,0.33482142857142855,0.6666092276573181,0.3125
171,0.6364294290542603,0.33482142857142855,0.6666013598442078,0.3125
172,0.6364133954048157,0.33482142857142855,0.6665932536125183,0.3125
173,0.6363972425460815,0.33482142857142855,0.666584849357605,0.3125
174,0.6363810896873474,0.33482142857142855,0.6665759086608887,0.3125
175,0.6363646388053894,0.33482142857142855,0.6665663719177246,0.3125
176,0.6363480687141418,0.33482142857142855,0.6665560603141785,0.3125
177,0.6363310217857361,0.33482142857142855,0.6665448546409607,0.3125
178,0.6363134980201721,0.33482142857142855,0.6665322184562683,0.3125
179,0.6362951993942261,0.33482142857142855,0.6665179133415222,0.3125
180,0.6362758278846741,0.33482142857142855,0.6665014624595642,0.3125
181,0.6362552046775818,0.33482142857142855,0.6664815545082092,0.3125
182,0.6362325549125671,0.33482142857142855,0.6664570569992065,0.3125
183,0.6362074613571167,0.33482142857142855,0.6664254069328308,0.3125
184,0.6361785531044006,0.33482142857142855,0.6663824319839478,0.3125
185,0.6361445784568787,0.33482142857142855,0.6663202047348022,0.3125
186,0.6361039280891418,0.33482142857142855,0.6662226915359497,0.3125
187,0.6360575556755066,0.33482142857142855,0.6660547852516174,0.3125
188,0.6360349655151367,0.33482142857142855,0.6657580137252808,0.3125
189,0.6363360285758972,0.33482142857142855,0.6658318638801575,0.3125
190,0.6381615996360779,0.33482142857142855,0.6694103479385376,0.3125
191,0.6358113288879395,0.33482142857142855,0.6681968569755554,0.3125
192,0.6355060338973999,0.33482142857142855,0.6655217409133911,0.3125
193,0.6362165808677673,0.33482142857142855,0.6653661131858826,0.3125
194,0.6363802552223206,0.33482142857142855,0.6664596199989319,0.3125
195,0.6360786557197571,0.33482142857142855,0.6668893694877625,0.3125
196,0.6358295679092407,0.33482142857142855,0.6663896441459656,0.3125
197,0.6357991099357605,0.33482142857142855,0.6659063100814819,0.3125
198,0.6357843279838562,0.33482142857142855,0.6657244563102722,0.3125
199,0.6355000138282776,0.33482142857142855,0.6650606393814087,0.3125
200,0.635010302066803,0.33482142857142855,0.6592068672180176,0.3125
201,0.6955986022949219,0.4220238095238095,0.7361520528793335,0.1875
202,0.6913541555404663,0.28125,0.6834607720375061,0.3125
203,0.6600543856620789,0.33482142857142855,0.7195481061935425,0.3125
204,0.6445064544677734,0.33482142857142855,0.6707806587219238,0.3125
205,0.6351483464241028,0.33482142857142855,0.661566436290741,0.3125
206,0.6416459083557129,0.33482142857142855,0.6625083088874817,0.3125
207,0.6383752822875977,0.33482142857142855,0.668861985206604,0.3125
208,0.636692464351654,0.33482142857142855,0.6708029508590698,0.3125
209,0.6355357766151428,0.33482142857142855,0.6672425866127014,0.3125
210,0.6356137990951538,0.33482142857142855,0.6652106642723083,0.3125
211,0.6362968683242798,0.33482142857142855,0.6655517220497131,0.3125
212,0.636322021484375,0.33482142857142855,0.6666856408119202,0.3125
213,0.6360663175582886,0.33482142857142855,0.6670812964439392,0.3125
214,0.6358924508094788,0.33482142857142855,0.6666868925094604,0.3125
215,0.635913074016571,0.33482142857142855,0.666318416595459,0.3125
216,0.6360074281692505,0.33482142857142855,0.6663181185722351,0.3125
217,0.6360332369804382,0.33482142857142855,0.6664904952049255,0.3125
218,0.6359982490539551,0.33482142857142855,0.6665752530097961,0.3125
219,0.6359646916389465,0.33482142857142855,0.6665325164794922,0.3125
220,0.635960578918457,0.33482142857142855,0.6664698719978333,0.3125
221,0.635971188545227,0.33482142857142855,0.6664576530456543,0.3125
222,0.6359748840332031,0.33482142857142855,0.6664800643920898,0.3125
223,0.6359682679176331,0.33482142857142855,0.6664959788322449,0.3125
224,0.6359599232673645,0.33482142857142855,0.6664921641349792,0.3125
225,0.6359555125236511,0.33482142857142855,0.6664814949035645,0.3125
226,0.6359542012214661,0.33482142857142855,0.6664767265319824,0.3125
227,0.6359524726867676,0.33482142857142855,0.6664783358573914,0.3125
228,0.6359491944313049,0.33482142857142855,0.6664803624153137,0.3125
229,0.6359452605247498,0.33482142857142855,0.6664795279502869,0.3125
230,0.6359419822692871,0.33482142857142855,0.6664770841598511,0.3125
231,0.6359391212463379,0.33482142857142855,0.6664751768112183,0.3125
232,0.635936439037323,0.33482142857142855,0.6664744019508362,0.3125
233,0.6359335780143738,0.33482142857142855,0.6664738655090332,0.3125
234,0.635930597782135,0.33482142857142855,0.6664730310440063,0.3125
235,0.6359277367591858,0.33482142857142855,0.6664718389511108,0.3125
236,0.6359249353408813,0.33482142857142855,0.6664706468582153,0.3125
237,0.6359223127365112,0.33482142857142855,0.6664697527885437,0.3125
238,0.6359195113182068,0.33482142857142855,0.6664687991142273,0.3125
239,0.6359168291091919,0.33482142857142855,0.6664678454399109,0.3125
240,0.6359142065048218,0.33482142857142855,0.666467010974884,0.3125
241,0.6359115839004517,0.33482142857142855,0.6664659380912781,0.3125
242,0.6359090209007263,0.33482142857142855,0.6664649844169617,0.3125
243,0.6359063982963562,0.33482142857142855,0.6664642095565796,0.3125
244,0.6359038949012756,0.33482142857142855,0.666463315486908,0.3125
245,0.6359014511108398,0.33482142857142855,0.6664624214172363,0.3125
246,0.635899007320404,0.33482142857142855,0.6664615273475647,0.3125
247,0.6358965635299683,0.33482142857142855,0.6664606332778931,0.3125
248,0.6358941197395325,0.33482142857142855,0.666459858417511,0.3125
249,0.6358917355537415,0.33482142857142855,0.6664590239524841,0.3125
250,0.6358893513679504,0.33482142857142855,0.6664581298828125,0.3125
251,0.6358870267868042,0.33482142857142855,0.6664572954177856,0.3125
252,0.6358846426010132,0.33482142857142855,0.666456401348114,0.3125
253,0.6358823776245117,0.33482142857142855,0.6664556860923767,0.3125
254,0.6358801126480103,0.33482142857142855,0.6664549112319946,0.3125
255,0.635877788066864,0.33482142857142855,0.6664541363716125,0.3125
256,0.6358755826950073,0.33482142857142855,0.6664533019065857,0.3125
257,0.6358733177185059,0.33482142857142855,0.6664525270462036,0.3125
258,0.6358712315559387,0.33482142857142855,0.666451632976532,0.3125
259,0.6358689665794373,0.33482142857142855,0.6664509177207947,0.3125
260,0.6358667612075806,0.33482142857142855,0.6664501428604126,0.3125
261,0.6358646750450134,0.33482142857142855,0.6664494276046753,0.3125
262,0.6358624696731567,0.33482142857142855,0.6664486527442932,0.3125
263,0.6358603239059448,0.33482142857142855,0.6664479374885559,0.3125
264,0.6358582377433777,0.33482142857142855,0.6664471626281738,0.3125
265,0.6358561515808105,0.33482142857142855,0.6664463877677917,0.3125
266,0.6358539462089539,0.33482142857142855,0.6664457321166992,0.3125
267,0.6358519792556763,0.33482142857142855,0.6664449572563171,0.3125
268,0.6358499526977539,0.33482142857142855,0.6664442420005798,0.3125
269,0.6358479261398315,0.33482142857142855,0.6664435267448425,0.3125
270,0.6358458399772644,0.33482142857142855,0.6664428114891052,0.3125
271,0.635843813419342,0.33482142857142855,0.6664420962333679,0.3125
272,0.6358419060707092,0.33482142857142855,0.6664414405822754,0.3125
273,0.6358398795127869,0.33482142857142855,0.6664406657218933,0.3125
274,0.6358379125595093,0.33482142857142855,0.6664400696754456,0.3125
275,0.6358359456062317,0.33482142857142855,0.6664393544197083,0.3125
276,0.6358339190483093,0.33482142857142855,0.666438639163971,0.3125
277,0.6358319520950317,0.33482142857142855,0.6664379835128784,0.3125
278,0.6358299851417542,0.33482142857142855,0.6664372682571411,0.3125
279,0.6358281373977661,0.33482142857142855,0.6664365530014038,0.3125
280,0.6358262300491333,0.33482142857142855,0.6664358973503113,0.3125
281,0.6358243227005005,0.33482142857142855,0.666435182094574,0.3125
282,0.6358224153518677,0.33482142857142855,0.666434645652771,0.3125
283,0.6358205080032349,0.33482142857142855,0.6664339303970337,0.3125
284,0.6358186602592468,0.33482142857142855,0.6664332151412964,0.3125
285,0.6358166933059692,0.33482142857142855,0.6664325594902039,0.3125
286,0.6358149647712708,0.33482142857142855,0.6664319634437561,0.3125
287,0.6358130574226379,0.33482142857142855,0.6664313077926636,0.3125
288,0.6358111500740051,0.33482142857142855,0.6664305925369263,0.3125
289,0.6358093619346619,0.33482142857142855,0.6664299964904785,0.3125
290,0.6358075141906738,0.33482142857142855,0.6664294004440308,0.3125
291,0.6358056664466858,0.33482142857142855,0.6664286851882935,0.3125
292,0.6358038187026978,0.33482142857142855,0.6664280891418457,0.3125
293,0.6358020901679993,0.33482142857142855,0.6664274334907532,0.3125
294,0.6358002424240112,0.33482142857142855,0.6664267778396606,0.3125
295,0.6357983946800232,0.33482142857142855,0.6664261221885681,0.3125
296,0.6357966065406799,0.33482142857142855,0.6664255857467651,0.3125
297,0.6357947587966919,0.33482142857142855,0.6664248704910278,0.3125
298,0.6357930302619934,0.33482142857142855,0.6664242744445801,0.3125
299,0.6357912421226501,0.33482142857142855,0.6664236783981323,0.3125
300,0.6357894539833069,0.33482142857142855,0.666422963142395,0.3125
301,0.6357876658439636,0.33482142857142855,0.666422426700592,0.3125
302,0.6357859373092651,0.33482142857142855,0.6664217710494995,0.3125
303,0.6357842087745667,0.33482142857142855,0.666421115398407,0.3125
304,0.6357824206352234,0.33482142857142855,0.6664205193519592,0.3125
305,0.6357807517051697,0.33482142857142855,0.6664199829101562,0.3125
306,0.6357788443565369,0.33482142857142855,0.6664193272590637,0.3125
307,0.6357771754264832,0.33482142857142855,0.6664186716079712,0.3125
308,0.6357754468917847,0.33482142857142855,0.6664180755615234,0.3125
309,0.6357737183570862,0.33482142857142855,0.6664174795150757,0.3125
310,0.6357720494270325,0.33482142857142855,0.6664169430732727,0.3125
311,0.6357702016830444,0.33482142857142855,0.6664162278175354,0.3125
312,0.6357685327529907,0.33482142857142855,0.6664156913757324,0.3125
313,0.6357668042182922,0.33482142857142855,0.6664150953292847,0.3125
314,0.6357650756835938,0.33482142857142855,0.6664143800735474,0.3125
315,0.6357633471488953,0.33482142857142855,0.6664138436317444,0.3125
316,0.6357616782188416,0.33482142857142855,0.6664132475852966,0.3125
317,0.6357599496841431,0.33482142857142855,0.6664126515388489,0.3125
318,0.6357582807540894,0.33482142857142855,0.6664119958877563,0.3125
319,0.6357565522193909,0.33482142857142855,0.6664113998413086,0.3125
320,0.6357549428939819,0.33482142857142855,0.6664108633995056,0.3125
321,0.6357532143592834,0.33482142857142855,0.6664102673530579,0.3125
322,0.6357515454292297,0.33482142857142855,0.6664096713066101,0.3125
323,0.6357498168945312,0.33482142857142855,0.6664090752601624,0.3125
324,0.6357482075691223,0.33482142857142855,0.6664085388183594,0.3125
325,0.6357464790344238,0.33482142857142855,0.6664078831672668,0.3125
326,0.6357447504997253,0.33482142857142855,0.6664072871208191,0.3125
327,0.6357431411743164,0.33482142857142855,0.6664067506790161,0.3125
328,0.6357414126396179,0.33482142857142855,0.6664061546325684,0.3125
329,0.635739803314209,0.33482142857142855,0.6664056181907654,0.3125
330,0.6357381939888,0.33482142857142855,0.6664050221443176,0.3125
331,0.6357364654541016,0.33482142857142855,0.6664043068885803,0.3125
332,0.6357347369194031,0.33482142857142855,0.6664037704467773,0.3125
333,0.6357331275939941,0.33482142857142855,0.6664032340049744,0.3125
334,0.6357315182685852,0.33482142857142855,0.6664026379585266,0.3125
335,0.6357297897338867,0.33482142857142855,0.6664020419120789,0.3125
336,0.6357281804084778,0.33482142857142855,0.6664014458656311,0.3125
337,0.6357265114784241,0.33482142857142855,0.6664009094238281,0.3125
338,0.6357249021530151,0.33482142857142855,0.6664003133773804,0.3125
339,0.6357232332229614,0.33482142857142855,0.6663996577262878,0.3125
340,0.6357216238975525,0.33482142857142855,0.6663991212844849,0.3125
341,0.635719895362854,0.33482142857142855,0.6663985848426819,0.3125
342,0.6357182860374451,0.33482142857142855,0.6663979887962341,0.3125
343,0.6357167363166809,0.33482142857142855,0.6663974523544312,0.3125
344,0.6357150673866272,0.33482142857142855,0.6663967967033386,0.3125
345,0.6357133984565735,0.33482142857142855,0.6663962602615356,0.3125
346,0.6357117295265198,0.33482142857142855,0.6663956642150879,0.3125
347,0.6357101798057556,0.33482142857142855,0.6663951277732849,0.3125
348,0.6357085108757019,0.33482142857142855,0.6663945913314819,0.3125
349,0.635706901550293,0.33482142857142855,0.6663939356803894,0.3125
350,0.635705292224884,0.33482142857142855,0.6663933992385864,0.3125
351,0.6357036232948303,0.33482142857142855,0.6663928031921387,0.3125
352,0.6357020735740662,0.33482142857142855,0.6663922667503357,0.3125
353,0.6357003450393677,0.33482142857142855,0.6663916707038879,0.3125
354,0.6356987953186035,0.33482142857142855,0.6663910746574402,0.3125
355,0.6356971859931946,0.33482142857142855,0.6663905382156372,0.3125
356,0.6356955170631409,0.33482142857142855,0.6663900017738342,0.3125
357,0.6356939077377319,0.33482142857142855,0.6663894057273865,0.3125
358,0.635692298412323,0.33482142857142855,0.6663889288902283,0.3125
359,0.6356906890869141,0.33482142857142855,0.666388213634491,0.3125
360,0.6356891393661499,0.33482142857142855,0.666387677192688,0.3125
361,0.6356874704360962,0.33482142857142855,0.6663870811462402,0.3125
362,0.6356858611106873,0.33482142857142855,0.6663865447044373,0.3125
363,0.6356843113899231,0.33482142857142855,0.6663860082626343,0.3125
364,0.6356826424598694,0.33482142857142855,0.6663853526115417,0.3125
365,0.6356810927391052,0.33482142857142855,0.6663848161697388,0.3125
366,0.6356795430183411,0.33482142857142855,0.6663842797279358,0.3125
367,0.6356778144836426,0.33482142857142855,0.666383683681488,0.3125
368,0.6356762647628784,0.33482142857142855,0.6663832068443298,0.3125
369,0.6356745958328247,0.33482142857142855,0.6663826704025269,0.3125
370,0.6356730461120605,0.33482142857142855,0.6663820147514343,0.3125
371,0.6356714963912964,0.33482142857142855,0.6663814187049866,0.3125
372,0.6356698870658875,0.33482142857142855,0.6663808822631836,0.3125
373,0.6356683373451233,0.33482142857142855,0.6663803458213806,0.3125
374,0.6356666684150696,0.33482142857142855,0.6663798093795776,0.3125
375,0.6356651186943054,0.33482142857142855,0.6663791537284851,0.3125
376,0.6356635093688965,0.33482142857142855,0.6663786768913269,0.3125
377,0.6356619000434875,0.33482142857142855,0.6663780212402344,0.3125
378,0.6356603503227234,0.33482142857142855,0.6663774847984314,0.3125
379,0.6356587409973145,0.33482142857142855,0.6663769483566284,0.3125
380,0.6356571912765503,0.33482142857142855,0.6663764715194702,0.3125
381,0.6356555819511414,0.33482142857142855,0.6663758158683777,0.3125
382,0.6356539726257324,0.33482142857142855,0.6663752198219299,0.3125
383,0.635652482509613,0.33482142857142855,0.666374683380127,0.3125
384,0.6356508135795593,0.33482142857142855,0.666374146938324,0.3125
385,0.6356493234634399,0.33482142857142855,0.666373610496521,0.3125
386,0.6356476545333862,0.33482142857142855,0.6663729548454285,0.3125
387,0.6356461644172668,0.33482142857142855,0.6663724780082703,0.3125
388,0.6356445550918579,0.33482142857142855,0.6663718819618225,0.3125
389,0.635642945766449,0.33482142857142855,0.6663713455200195,0.3125
390,0.6356413960456848,0.33482142857142855,0.6663708090782166,0.3125
391,0.6356398463249207,0.33482142857142855,0.6663702726364136,0.3125
392,0.6356382966041565,0.33482142857142855,0.6663697361946106,0.3125
393,0.6356366872787476,0.33482142857142855,0.6663690209388733,0.3125
394,0.6356350779533386,0.33482142857142855,0.6663685441017151,0.3125
395,0.6356335282325745,0.33482142857142855,0.6663679480552673,0.3125
396,0.6356319785118103,0.33482142857142855,0.6663674712181091,0.3125
397,0.6356304287910461,0.33482142857142855,0.6663669347763062,0.3125
398,0.6356288194656372,0.33482142857142855,0.6663662791252136,0.3125
399,0.635627269744873,0.33482142857142855,0.6663658022880554,0.3125
400,0.6356257200241089,0.33482142857142855,0.6663652062416077,0.3125
401,0.6356241106987,0.33482142857142855,0.6663646697998047,0.3125
402,0.6356226205825806,0.33482142857142855,0.6663640737533569,0.3125
403,0.6356210708618164,0.33482142857142855,0.6663635969161987,0.3125
404,0.6356195211410522,0.33482142857142855,0.6663629412651062,0.3125
405,0.6356178522109985,0.33482142857142855,0.6663624048233032,0.3125
406,0.6356163620948792,0.33482142857142855,0.6663618683815002,0.3125
407,0.635614812374115,0.33482142857142855,0.666361391544342,0.3125
408,0.6356132626533508,0.33482142857142855,0.6663607954978943,0.3125
409,0.6356116533279419,0.33482142857142855,0.6663602590560913,0.3125
410,0.6356101632118225,0.33482142857142855,0.6663597226142883,0.3125
411,0.6356086134910583,0.33482142857142855,0.6663590669631958,0.3125
412,0.6356070637702942,0.33482142857142855,0.6663585305213928,0.3125
413,0.63560551404953,0.33482142857142855,0.6663580536842346,0.3125
414,0.6356039643287659,0.33482142857142855,0.6663574576377869,0.3125
415,0.6356024146080017,0.33482142857142855,0.6663569211959839,0.3125
416,0.6356009244918823,0.33482142857142855,0.6663563847541809,0.3125
417,0.6355993151664734,0.33482142857142855,0.6663557887077332,0.3125
418,0.6355977654457092,0.33482142857142855,0.6663552522659302,0.3125
419,0.6355962753295898,0.33482142857142855,0.6663547158241272,0.3125
420,0.6355947256088257,0.33482142857142855,0.6663541793823242,0.3125
421,0.6355931162834167,0.33482142857142855,0.6663536429405212,0.3125
422,0.6355916261672974,0.33482142857142855,0.6663531064987183,0.3125
423,0.6355900764465332,0.33482142857142855,0.6663524508476257,0.3125
424,0.635588526725769,0.33482142857142855,0.6663519740104675,0.3125
425,0.6355870366096497,0.33482142857142855,0.6663514375686646,0.3125
426,0.6355854868888855,0.33482142857142855,0.6663508415222168,0.3125
427,0.6355838775634766,0.33482142857142855,0.6663503646850586,0.3125
428,0.635582447052002,0.33482142857142855,0.6663497686386108,0.3125
429,0.6355808973312378,0.33482142857142855,0.6663492918014526,0.3125
430,0.6355794072151184,0.33482142857142855,0.6663487553596497,0.3125
431,0.6355777978897095,0.33482142857142855,0.6663481593132019,0.3125
432,0.6355763077735901,0.33482142857142855,0.6663476824760437,0.3125
433,0.6355748176574707,0.33482142857142855,0.666347086429596,0.3125
434,0.6355732679367065,0.33482142857142855,0.666346549987793,0.3125
435,0.6355717778205872,0.33482142857142855,0.6663460731506348,0.3125
436,0.635570228099823,0.33482142857142855,0.666345477104187,0.3125
437,0.6355686783790588,0.33482142857142855,0.666344940662384,0.3125
438,0.6355671882629395,0.33482142857142855,0.6663444638252258,0.3125
439,0.6355656981468201,0.33482142857142855,0.6663438081741333,0.3125
440,0.6355641484260559,0.33482142857142855,0.6663432717323303,0.3125
441,0.6355625987052917,0.33482142857142855,0.6663427948951721,0.3125
442,0.6355611085891724,0.33482142857142855,0.6663421988487244,0.3125
443,0.635559618473053,0.33482142857142855,0.6663417220115662,0.3125
444,0.6355580687522888,0.33482142857142855,0.6663411855697632,0.3125
445,0.6355566382408142,0.33482142857142855,0.6663405299186707,0.3125
446,0.63555508852005,0.33482142857142855,0.6663400530815125,0.3125
447,0.6355535387992859,0.33482142857142855,0.6663394570350647,0.3125
448,0.6355521082878113,0.33482142857142855,0.6663389801979065,0.3125
449,0.6355505585670471,0.33482142857142855,0.6663385033607483,0.3125
450,0.6355490684509277,0.33482142857142855,0.6663379669189453,0.3125
451,0.6355475783348083,0.33482142857142855,0.6663374304771423,0.3125
452,0.635546088218689,0.33482142857142855,0.6663368940353394,0.3125
453,0.63554447889328,0.33482142857142855,0.6663363575935364,0.3125
454,0.6355429887771606,0.33482142857142855,0.6663357615470886,0.3125
455,0.635541558265686,0.33482142857142855,0.6663352251052856,0.3125
456,0.6355400681495667,0.33482142857142855,0.6663347482681274,0.3125
457,0.6355385780334473,0.33482142857142855,0.6663342118263245,0.3125
458,0.6355370879173279,0.33482142857142855,0.6663336753845215,0.3125
459,0.6355355978012085,0.33482142857142855,0.6663331389427185,0.3125
460,0.6355341672897339,0.33482142857142855,0.6663326025009155,0.3125
461,0.6355326771736145,0.33482142857142855,0.6663321256637573,0.3125
462,0.6355311274528503,0.33482142857142855,0.6663314700126648,0.3125
463,0.6355295777320862,0.33482142857142855,0.6663309931755066,0.3125
464,0.6355281472206116,0.33482142857142855,0.6663304567337036,0.3125
465,0.6355266571044922,0.33482142857142855,0.6663299798965454,0.3125
466,0.6355251669883728,0.33482142857142855,0.6663293838500977,0.3125
467,0.6355236768722534,0.33482142857142855,0.6663288474082947,0.3125
468,0.6355222463607788,0.33482142857142855,0.6663283705711365,0.3125
469,0.6355208158493042,0.33482142857142855,0.6663278341293335,0.3125
470,0.6355192065238953,0.33482142857142855,0.6663273572921753,0.3125
471,0.6355177760124207,0.33482142857142855,0.6663268804550171,0.3125
472,0.6355162858963013,0.33482142857142855,0.6663262248039246,0.3125
473,0.6355147957801819,0.33482142857142855,0.6663257479667664,0.3125
474,0.6355133652687073,0.33482142857142855,0.6663252115249634,0.3125
475,0.6355118751525879,0.33482142857142855,0.6663246750831604,0.3125
476,0.6355103850364685,0.33482142857142855,0.6663241982460022,0.3125
477,0.6355089545249939,0.33482142857142855,0.6663236618041992,0.3125
478,0.6355074644088745,0.33482142857142855,0.6663231253623962,0.3125
479,0.6355060338973999,0.33482142857142855,0.666322648525238,0.3125
480,0.6355046033859253,0.33482142857142855,0.6663221120834351,0.3125
481,0.6355031132698059,0.33482142857142855,0.6663216352462769,0.3125
482,0.6355016827583313,0.33482142857142855,0.6663209795951843,0.3125
483,0.6355001330375671,0.33482142857142855,0.6663205027580261,0.3125
484,0.6354987025260925,0.33482142857142855,0.6663200259208679,0.3125
485,0.6354972124099731,0.33482142857142855,0.6663195490837097,0.3125
486,0.6354957818984985,0.33482142857142855,0.6663190126419067,0.3125
487,0.6354943513870239,0.33482142857142855,0.666318416595459,0.3125
488,0.6354928612709045,0.33482142857142855,0.6663179993629456,0.3125
489,0.6354914307594299,0.33482142857142855,0.6663174629211426,0.3125
490,0.6354899406433105,0.33482142857142855,0.6663169264793396,0.3125
491,0.6354885101318359,0.33482142857142855,0.6663164496421814,0.3125
492,0.6354870200157166,0.33482142857142855,0.6663159132003784,0.3125
493,0.6354856491088867,0.33482142857142855,0.6663154363632202,0.3125
494,0.6354841589927673,0.33482142857142855,0.6663148999214172,0.3125
495,0.6354827284812927,0.33482142857142855,0.666314423084259,0.3125
496,0.6354812979698181,0.33482142857142855,0.6663139462471008,0.3125
497,0.6354798674583435,0.33482142857142855,0.6663134694099426,0.3125
498,0.6354783773422241,0.33482142857142855,0.6663128733634949,0.3125
499,0.6354769468307495,0.33482142857142855,0.6663123369216919,0.3125
500,0.6354755163192749,0.33482142857142855,0.6663118004798889,0.3125
501,0.6354740858078003,0.33482142857142855,0.6663113236427307,0.3125
502,0.6354727149009705,0.33482142857142855,0.6663108468055725,0.3125
503,0.6354711651802063,0.33482142857142855,0.6663103103637695,0.3125
504,0.6354697942733765,0.33482142857142855,0.6663098335266113,0.3125
505,0.6354683637619019,0.33482142857142855,0.6663093566894531,0.3125
506,0.6354669332504272,0.33482142857142855,0.6663088202476501,0.3125
507,0.6354655027389526,0.33482142857142855,0.6663082838058472,0.3125
508,0.6354641318321228,0.33482142857142855,0.6663078665733337,0.3125
509,0.6354627013206482,0.33482142857142855,0.6663073301315308,0.3125
510,0.6354612708091736,0.33482142857142855,0.6663067936897278,0.3125
511,0.635459840297699,0.33482142857142855,0.6663063168525696,0.3125
512,0.6354584097862244,0.33482142857142855,0.6663058400154114,0.3125
513,0.6354569792747498,0.33482142857142855,0.6663053631782532,0.3125
514,0.6354555487632751,0.33482142857142855,0.666304886341095,0.3125
515,0.6354541778564453,0.33482142857142855,0.6663042902946472,0.3125
516,0.6354527473449707,0.33482142857142855,0.666303813457489,0.3125
517,0.6354513168334961,0.33482142857142855,0.6663033366203308,0.3125
518,0.6354498863220215,0.33482142857142855,0.6663028001785278,0.3125
519,0.6354485154151917,0.33482142857142855,0.6663023233413696,0.3125
520,0.635447084903717,0.33482142857142855,0.6663018465042114,0.3125
521,0.6354457139968872,0.33482142857142855,0.6663013696670532,0.3125
522,0.6354443430900574,0.33482142857142855,0.666300892829895,0.3125
523,0.635442852973938,0.33482142857142855,0.666300356388092,0.3125
524,0.6354414224624634,0.33482142857142855,0.6662998199462891,0.3125
525,0.6354401707649231,0.33482142857142855,0.6662994027137756,0.3125
526,0.6354387402534485,0.33482142857142855,0.6662989258766174,0.3125
527,0.6354373097419739,0.33482142857142855,0.6662983894348145,0.3125
528,0.635435938835144,0.33482142857142855,0.6662979125976562,0.3125
529,0.6354345679283142,0.33482142857142855,0.6662973761558533,0.3125
530,0.6354331374168396,0.33482142857142855,0.6662969589233398,0.3125
531,0.6354317665100098,0.33482142857142855,0.6662964224815369,0.3125
532,0.6354303956031799,0.33482142857142855,0.6662959456443787,0.3125
533,0.6354289650917053,0.33482142857142855,0.6662954688072205,0.3125
534,0.6354275941848755,0.33482142857142855,0.666295051574707,0.3125
535,0.6354261636734009,0.33482142857142855,0.666294515132904,0.3125
536,0.6354249119758606,0.33482142857142855,0.6662940382957458,0.3125
537,0.635423481464386,0.33482142857142855,0.6662935614585876,0.3125
538,0.6354221105575562,0.33482142857142855,0.6662931442260742,0.3125
539,0.6354207396507263,0.33482142857142855,0.6662926077842712,0.3125
540,0.6354193091392517,0.33482142857142855,0.666292130947113,0.3125
541,0.6354179382324219,0.33482142857142855,0.6662916541099548,0.3125
542,0.635416567325592,0.33482142857142855,0.6662911176681519,0.3125
543,0.6354151964187622,0.33482142857142855,0.6662906408309937,0.3125
544,0.6354138255119324,0.33482142857142855,0.6662901639938354,0.3125
545,0.6354125142097473,0.33482142857142855,0.666289746761322,0.3125
546,0.6354111433029175,0.33482142857142855,0.6662892699241638,0.3125
547,0.6354097723960876,0.33482142857142855,0.6662887930870056,0.3125
548,0.6354084014892578,0.33482142857142855,0.6662882566452026,0.3125
549,0.635407030582428,0.33482142857142855,0.6662877798080444,0.3125
550,0.6354056596755981,0.33482142857142855,0.666287362575531,0.3125
551,0.6354042887687683,0.33482142857142855,0.666286826133728,0.3125
552,0.635403037071228,0.33482142857142855,0.6662864089012146,0.3125
553,0.6354016661643982,0.33482142857142855,0.6662859320640564,0.3125
554,0.6354002952575684,0.33482142857142855,0.6662853956222534,0.3125
555,0.6353989839553833,0.33482142857142855,0.6662849187850952,0.3125
556,0.6353975534439087,0.33482142857142855,0.6662845015525818,0.3125
557,0.6353963017463684,0.33482142857142855,0.6662840247154236,0.3125
558,0.6353949904441833,0.33482142857142855,0.6662836074829102,0.3125
559,0.6353935599327087,0.33482142857142855,0.6662830114364624,0.3125
560,0.6353921890258789,0.33482142857142855,0.6662825345993042,0.3125
561,0.6353908777236938,0.33482142857142855,0.6662821173667908,0.3125
562,0.6353896260261536,0.33482142857142855,0.6662816405296326,0.3125
563,0.6353882551193237,0.33482142857142855,0.6662812232971191,0.3125
564,0.6353869438171387,0.33482142857142855,0.6662807464599609,0.3125
565,0.6353855729103088,0.33482142857142855,0.6662802696228027,0.3125
566,0.6353842616081238,0.33482142857142855,0.6662797927856445,0.3125
567,0.6353829503059387,0.33482142857142855,0.6662793159484863,0.3125
568,0.6353816390037537,0.33482142857142855,0.6662788391113281,0.3125
569,0.6353802680969238,0.33482142857142855,0.6662784218788147,0.3125
570,0.6353789567947388,0.33482142857142855,0.6662778854370117,0.3125
571,0.6353775858879089,0.33482142857142855,0.6662774682044983,0.3125
572,0.6353763341903687,0.33482142857142855,0.6662769317626953,0.3125
573,0.6353750228881836,0.33482142857142855,0.6662765145301819,0.3125
574,0.6353736519813538,0.33482142857142855,0.6662759780883789,0.3125
575,0.6353723406791687,0.33482142857142855,0.6662755608558655,0.3125
576,0.6353710293769836,0.33482142857142855,0.6662750840187073,0.3125
577,0.6353697180747986,0.33482142857142855,0.6662746071815491,0.3125
578,0.6353684663772583,0.33482142857142855,0.6662741303443909,0.3125
579,0.6353670954704285,0.33482142857142855,0.6662737131118774,0.3125
580,0.6353657841682434,0.33482142857142855,0.6662731766700745,0.3125
581,0.6353645324707031,0.33482142857142855,0.6662726998329163,0.3125
582,0.6353631615638733,0.33482142857142855,0.6662722229957581,0.3125
583,0.6353618502616882,0.33482142857142855,0.6662717461585999,0.3125
584,0.635360598564148,0.33482142857142855,0.6662712693214417,0.3125
585,0.6353592872619629,0.33482142857142855,0.6662707924842834,0.3125
586,0.6353579163551331,0.33482142857142855,0.6662703156471252,0.3125
587,0.635356605052948,0.33482142857142855,0.6662699580192566,0.3125
588,0.6353554129600525,0.33482142857142855,0.6662694215774536,0.3125
589,0.6353540420532227,0.33482142857142855,0.6662688851356506,0.3125
590,0.6353526711463928,0.33482142857142855,0.6662684679031372,0.3125
591,0.6353514790534973,0.33482142857142855,0.6662679314613342,0.3125
592,0.6353501677513123,0.33482142857142855,0.666267454624176,0.3125
593,0.6353488564491272,0.33482142857142855,0.6662669777870178,0.3125
594,0.6353475451469421,0.33482142857142855,0.6662665009498596,0.3125
595,0.6353462934494019,0.33482142857142855,0.6662660241127014,0.3125
596,0.6353449821472168,0.33482142857142855,0.666265606880188,0.3125
597,0.635343611240387,0.33482142857142855,0.666265070438385,0.3125
598,0.6353422999382019,0.33482142857142855,0.6662645936012268,0.3125
599,0.6353411078453064,0.33482142857142855,0.666263997554779,0.3125
600,0.6353397369384766,0.33482142857142855,0.6662635803222656,0.3125
601,0.6353383660316467,0.33482142857142855,0.6662630438804626,0.3125
602,0.6353370547294617,0.33482142857142855,0.6662625670433044,0.3125
603,0.6353358030319214,0.33482142857142855,0.6662620902061462,0.3125
604,0.6353344917297363,0.33482142857142855,0.6662615537643433,0.3125
605,0.635333240032196,0.33482142857142855,0.6662610173225403,0.3125
606,0.635331928730011,0.33482142857142855,0.6662605404853821,0.3125
607,0.6353304982185364,0.33482142857142855,0.6662600636482239,0.3125
608,0.6353292465209961,0.33482142857142855,0.6662594079971313,0.3125
609,0.6353278756141663,0.33482142857142855,0.6662589311599731,0.3125
610,0.6353265047073364,0.33482142857142855,0.6662583947181702,0.3125
611,0.6353251338005066,0.33482142857142855,0.6662577986717224,0.3125
612,0.6353238821029663,0.33482142857142855,0.6662572026252747,0.3125
613,0.6353224515914917,0.33482142857142855,0.6662566065788269,0.3125
614,0.6353211402893066,0.33482142857142855,0.6662560105323792,0.3125
615,0.635319709777832,0.33482142857142855,0.6662554144859314,0.3125
616,0.6353182792663574,0.33482142857142855,0.6662548184394836,0.3125
617,0.6353168487548828,0.33482142857142855,0.6662541031837463,0.3125
618,0.6353154182434082,0.33482142857142855,0.6662535071372986,0.3125
619,0.6353139281272888,0.33482142857142855,0.6662527322769165,0.3125
620,0.6353124976158142,0.33482142857142855,0.6662520170211792,0.3125
621,0.6353108286857605,0.33482142857142855,0.6662511825561523,0.3125
622,0.6353093385696411,0.33482142857142855,0.6662503480911255,0.3125
623,0.6353076696395874,0.33482142857142855,0.6662493944168091,0.3125
624,0.6353059411048889,0.33482142857142855,0.6662484407424927,0.3125
625,0.6353040933609009,0.33482142857142855,0.6662473678588867,0.3125
626,0.6353021264076233,0.33482142857142855,0.6662459373474121,0.3125
627,0.6352999806404114,0.33482142857142855,0.6662445068359375,0.3125
628,0.6352974772453308,0.33482142857142855,0.6662424802780151,0.3125
629,0.635294497013092,0.33482142857142855,0.6662399172782898,0.3125
630,0.6352905631065369,0.33482142857142855,0.6662360429763794,0.3125
631,0.635284423828125,0.33482142857142855,0.6662288308143616,0.3125
632,0.6352723836898804,0.33482142857142855,0.6662102937698364,0.3125
633,0.635233998298645,0.33482142857142855,0.6660855412483215,0.3125
634,0.6741538643836975,0.32916666666666666,0.6640521287918091,0.3125
635,0.6656137704849243,0.33482142857142855,0.7103870511054993,0.3125
636,0.6384032368659973,0.33482142857142855,0.6616525650024414,0.3125
637,0.6443518996238708,0.33482142857142855,0.6674408316612244,0.3125
638,0.6389927268028259,0.33482142857142855,0.6719650626182556,0.3125
639,0.636233389377594,0.33482142857142855,0.665278971195221,0.3125
640,0.6375681161880493,0.33482142857142855,0.6650854349136353,0.3125
641,0.6376358866691589,0.33482142857142855,0.6673890948295593,0.3125
642,0.6368136405944824,0.33482142857142855,0.6674900650978088,0.3125
643,0.6364534497261047,0.33482142857142855,0.6663463711738586,0.3125
644,0.63663250207901,0.33482142857142855,0.6661534905433655,0.3125
645,0.6366825103759766,0.33482142857142855,0.6665878891944885,0.3125
646,0.6365193128585815,0.33482142857142855,0.6667523980140686,0.3125
647,0.6363828778266907,0.33482142857142855,0.6665658950805664,0.3125
648,0.6363586783409119,0.33482142857142855,0.6664308905601501,0.3125
649,0.636355459690094,0.33482142857142855,0.6664657592773438,0.3125
650,0.6363140940666199,0.33482142857142855,0.6665295362472534,0.3125
651,0.6362568140029907,0.33482142857142855,0.6665245890617371,0.3125
652,0.6362162828445435,0.33482142857142855,0.666485607624054,0.3125
653,0.6361933946609497,0.33482142857142855,0.6664636731147766,0.3125
654,0.6361607313156128,0.33482142857142855,0.666464626789093,0.3125
655,0.6361311078071594,0.33482142857142855,0.6664671897888184,0.3125
656,0.6361033320426941,0.33482142857142855,0.6664584279060364,0.3125
657,0.6360803842544556,0.33482142857142855,0.6664472818374634,0.3125
658,0.6360575556755066,0.33482142857142855,0.6664410829544067,0.3125
659,0.6360365152359009,0.33482142857142855,0.6664370894432068,0.3125
660,0.6360166668891907,0.33482142857142855,0.666432797908783,0.3125
661,0.6359967589378357,0.33482142857142855,0.6664285659790039,0.3125
662,0.6359767317771912,0.33482142857142855,0.6664230227470398,0.3125
663,0.6359595656394958,0.33482142857142855,0.6664199233055115,0.3125
664,0.6359405517578125,0.33482142857142855,0.6664164662361145,0.3125
665,0.6359285712242126,0.33482142857142855,0.6664150357246399,0.3125
666,0.6359157562255859,0.33482142857142855,0.6664108037948608,0.3125
667,0.6359031796455383,0.33482142857142855,0.6664066910743713,0.3125
668,0.6358895301818848,0.33482142857142855,0.6664037108421326,0.3125
669,0.6358761191368103,0.33482142857142855,0.6663994193077087,0.3125
670,0.6358629465103149,0.33482142857142855,0.6663962006568909,0.3125
671,0.6358502507209778,0.33482142857142855,0.6663933992385864,0.3125
672,0.6358376741409302,0.33482142857142855,0.6663902401924133,0.3125
673,0.6358255743980408,0.33482142857142855,0.6663870215415955,0.3125
674,0.63581383228302,0.33482142857142855,0.6663838624954224,0.3125
675,0.6358024477958679,0.33482142857142855,0.6663812398910522,0.3125
676,0.6357914805412292,0.33482142857142855,0.6663786768913269,0.3125
677,0.6357811093330383,0.33482142857142855,0.6663755774497986,0.3125
678,0.6357707381248474,0.33482142857142855,0.6663729548454285,0.3125
679,0.6357609629631042,0.33482142857142855,0.6663703918457031,0.3125
680,0.6357511281967163,0.33482142857142855,0.6663678884506226,0.3125
681,0.6357415914535522,0.33482142857142855,0.6663653254508972,0.3125
682,0.6357322335243225,0.33482142857142855,0.6663629412651062,0.3125
683,0.6357231736183167,0.33482142857142855,0.6663605570793152,0.3125
684,0.6357144117355347,0.33482142857142855,0.6663582921028137,0.3125
685,0.635705828666687,0.33482142857142855,0.666356086730957,0.3125
686,0.6356973648071289,0.33482142857142855,0.6663538217544556,0.3125
687,0.6356891989707947,0.33482142857142855,0.6663516759872437,0.3125
688,0.6356812715530396,0.33482142857142855,0.6663495898246765,0.3125
689,0.635673463344574,0.33482142857142855,0.6663475036621094,0.3125
690,0.6356658339500427,0.33482142857142855,0.6663455963134766,0.3125
691,0.6356582641601562,0.33482142857142855,0.666343629360199,0.3125
692,0.6356509923934937,0.33482142857142855,0.6663416624069214,0.3125
693,0.6356439590454102,0.33482142857142855,0.6663397550582886,0.3125
694,0.6356368660926819,0.33482142857142855,0.6663379669189453,0.3125
695,0.6356300711631775,0.33482142857142855,0.6663361191749573,0.3125
696,0.6356233358383179,0.33482142857142855,0.666334331035614,0.3125
697,0.6356167793273926,0.33482142857142855,0.6663326621055603,0.3125
698,0.6356102824211121,0.33482142857142855,0.666330873966217,0.3125
699,0.6356039643287659,0.33482142857142855,0.6663292050361633,0.3125
700,0.6355977654457092,0.33482142857142855,0.6663275957107544,0.3125
701,0.6355916857719421,0.33482142857142855,0.6663270592689514,0.3125
702,0.6355857849121094,0.33482142857142855,0.6663256883621216,0.3125
703,0.6355799436569214,0.33482142857142855,0.6663241982460022,0.3125
704,0.6355741620063782,0.33482142857142855,0.6663227081298828,0.3125
705,0.6355684995651245,0.33482142857142855,0.6663212776184082,0.3125
706,0.6355628967285156,0.33482142857142855,0.6663197875022888,0.3125
707,0.6355574727058411,0.33482142857142855,0.666318416595459,0.3125
708,0.6355521082878113,0.33482142857142855,0.6663169860839844,0.3125
709,0.6355467438697815,0.33482142857142855,0.6663155555725098,0.3125
710,0.635541558265686,0.33482142857142855,0.6663141846656799,0.3125
711,0.6355364918708801,0.33482142857142855,0.6663128733634949,0.3125
712,0.635530948638916,0.33482142857142855,0.6663089394569397,0.3125
713,0.6355195641517639,0.33482142857142855,0.6663083434104919,0.3125
714,0.6355105638504028,0.33482142857142855,0.6663069128990173,0.3125
715,0.6355042457580566,0.33482142857142855,0.6663061380386353,0.3125
716,0.6354991793632507,0.33482142857142855,0.6663050055503845,0.3125
717,0.6354940533638,0.33482142857142855,0.666304886341095,0.3125
718,0.6354869604110718,0.33482142857142855,0.6663035154342651,0.3125
719,0.6354799866676331,0.33482142857142855,0.6662999391555786,0.3125
720,0.635477602481842,0.33482142857142855,0.6662987470626831,0.3125
721,0.6354728937149048,0.33482142857142855,0.6662972569465637,0.3125
722,0.6354678869247437,0.33482142857142855,0.6662979125976562,0.3125
723,0.6354631185531616,0.33482142857142855,0.6662972569465637,0.3125
724,0.6354584097862244,0.33482142857142855,0.6662973165512085,0.3125
725,0.6354536414146423,0.33482142857142855,0.6662964224815369,0.3125
726,0.6354489922523499,0.33482142857142855,0.66629558801651,0.3125
727,0.6354444622993469,0.33482142857142855,0.6662949919700623,0.3125
728,0.635439395904541,0.33482142857142855,0.666294515132904,0.3125
729,0.6354349851608276,0.33482142857142855,0.6662949323654175,0.3125
730,0.635430634021759,0.33482142857142855,0.666295051574707,0.3125
731,0.6354261636734009,0.33482142857142855,0.6662946939468384,0.3125
732,0.635421872138977,0.33482142857142855,0.6662937998771667,0.3125
733,0.6354174613952637,0.33482142857142855,0.6662934422492981,0.3125
734,0.6354143023490906,0.33482142857142855,0.666292667388916,0.3125
735,0.6354081034660339,0.33482142857142855,0.6662933230400085,0.3125
736,0.6354123950004578,0.33482142857142855,0.6662915945053101,0.3125
737,0.6354123950004578,0.33482142857142855,0.6662911176681519,0.3125
738,0.6354103684425354,0.33482142857142855,0.6662899851799011,0.3125
739,0.6354053616523743,0.33482142857142855,0.6662861108779907,0.3125
740,0.6354299187660217,0.33482142857142855,0.6662976145744324,0.3125
741,0.6354351043701172,0.33482142857142855,0.6662948727607727,0.3125
742,0.635456919670105,0.33482142857142855,0.6663094758987427,0.3125
743,0.6354635953903198,0.33482142857142855,0.6663188338279724,0.3125
744,0.6354621648788452,0.33482142857142855,0.6663146018981934,0.3125
745,0.6354552507400513,0.33482142857142855,0.6663071513175964,0.3125
746,0.6354499459266663,0.33482142857142855,0.6662999987602234,0.3125
747,0.6354419589042664,0.33482142857142855,0.666294515132904,0.3125
748,0.6354370713233948,0.33482142857142855,0.666291356086731,0.3125
749,0.6354316473007202,0.33482142857142855,0.6662888526916504,0.3125
750,0.6354264616966248,0.33482142857142855,0.666286826133728,0.3125
751,0.6354284286499023,0.33482142857142855,0.6662934422492981,0.3125
752,0.6354112029075623,0.33482142857142855,0.6663115620613098,0.3125
753,0.6354163289070129,0.33482142857142855,0.6663097143173218,0.3125
754,0.6354032754898071,0.33482142857142855,0.6663135886192322,0.3125
755,0.6353977918624878,0.33482142857142855,0.6663131713867188,0.3125
756,0.6353920698165894,0.33482142857142855,0.666310727596283,0.3125
757,0.6353892087936401,0.33482142857142855,0.6663074493408203,0.3125
758,0.6353865265846252,0.33482142857142855,0.6663041114807129,0.3125
759,0.6353834867477417,0.33482142857142855,0.6663031578063965,0.3125
760,0.6353805661201477,0.33482142857142855,0.6663020849227905,0.3125
761,0.6353773474693298,0.33482142857142855,0.6663008332252502,0.3125
762,0.6353742480278015,0.33482142857142855,0.6662993431091309,0.3125
763,0.635370671749115,0.33482142857142855,0.6662980318069458,0.3125
764,0.635367751121521,0.33482142857142855,0.6662972569465637,0.3125
765,0.6353639960289001,0.33482142857142855,0.666294276714325,0.3125
766,0.6353617906570435,0.33482142857142855,0.666293203830719,0.3125
767,0.6353588104248047,0.33482142857142855,0.6662923097610474,0.3125
768,0.635352611541748,0.33482142857142855,0.6662916541099548,0.3125
769,0.6353499293327332,0.33482142857142855,0.666291356086731,0.3125
770,0.6353503465652466,0.33482142857142855,0.6662899851799011,0.3125
771,0.6353435516357422,0.33482142857142855,0.6662870645523071,0.3125
772,0.6353394389152527,0.33482142857142855,0.6662877202033997,0.3125
773,0.6353362798690796,0.33482142857142855,0.6662870049476624,0.3125
774,0.6353349685668945,0.33482142857142855,0.6662909388542175,0.3125
775,0.6353304982185364,0.33482142857142855,0.6662898063659668,0.3125
776,0.6353273987770081,0.33482142857142855,0.666288435459137,0.3125
777,0.6353245973587036,0.33482142857142855,0.6662802696228027,0.3125
778,0.6353232264518738,0.33482142857142855,0.6662762761116028,0.3125
779,0.6353197693824768,0.33482142857142855,0.666275143623352,0.3125
780,0.6353157162666321,0.33482142857142855,0.666274905204773,0.3125
781,0.6352599263191223,0.33482142857142855,0.6662374138832092,0.3125
782,0.6350082159042358,0.33482142857142855,0.6657915115356445,0.3125
783,0.6347061395645142,0.33482142857142855,0.665634036064148,0.3125
784,0.6342196464538574,0.33482142857142855,0.6650758981704712,0.3125
785,0.6298564672470093,0.33482142857142855,0.6912804245948792,0.3125
786,0.6728506684303284,0.33482142857142855,0.6698951125144958,0.3125
787,0.6423832178115845,0.33482142857142855,0.6789420247077942,0.3125
788,0.6357593536376953,0.33482142857142855,0.6652539968490601,0.3125
789,0.6377195715904236,0.33482142857142855,0.6662381887435913,0.3125
790,0.6367411613464355,0.33482142857142855,0.6674687266349792,0.3125
791,0.63609379529953,0.33482142857142855,0.6671870350837708,0.3125
792,0.6358703374862671,0.33482142857142855,0.6664602160453796,0.3125
793,0.635909914970398,0.33482142857142855,0.6662054061889648,0.3125
794,0.6359311938285828,0.33482142857142855,0.6663464903831482,0.3125
795,0.6358650922775269,0.33482142857142855,0.6665076017379761,0.3125
796,0.6357800364494324,0.33482142857142855,0.6665108799934387,0.3125
797,0.6357263326644897,0.33482142857142855,0.6664227247238159,0.3125
798,0.6357050538063049,0.33482142857142855,0.6663559675216675,0.3125
799,0.6356931924819946,0.33482142857142855,0.6663447022438049,0.3125
800,0.6356754899024963,0.33482142857142855,0.6663597226142883,0.3125
801,0.6356524229049683,0.33482142857142855,0.6663675308227539,0.3125
802,0.6356304287910461,0.33482142857142855,0.6663594841957092,0.3125
803,0.6356129050254822,0.33482142857142855,0.6663451194763184,0.3125
804,0.6355992555618286,0.33482142857142855,0.6663344502449036,0.3125
805,0.635587215423584,0.33482142857142855,0.666329562664032,0.3125
806,0.6355752348899841,0.33482142857142855,0.6663277745246887,0.3125
807,0.6355634331703186,0.33482142857142855,0.6663254499435425,0.3125
808,0.6355522871017456,0.33482142857142855,0.6663217544555664,0.3125
809,0.6355422139167786,0.33482142857142855,0.6663176417350769,0.3125
810,0.6355328559875488,0.33482142857142855,0.6663140654563904,0.3125
811,0.6355240941047668,0.33482142857142855,0.6663111448287964,0.3125
812,0.6355157494544983,0.33482142857142855,0.6663087606430054,0.3125
813,0.6355077624320984,0.33482142857142855,0.6663064956665039,0.3125
814,0.6355001330375671,0.33482142857142855,0.6663042902946472,0.3125
815,0.6354929804801941,0.33482142857142855,0.6663020849227905,0.3125
816,0.6354861259460449,0.33482142857142855,0.6662999987602234,0.3125
817,0.6354795694351196,0.33482142857142855,0.6662980318069458,0.3125
818,0.6354732513427734,0.33482142857142855,0.6662963032722473,0.3125
819,0.6354671716690063,0.33482142857142855,0.6662946343421936,0.3125
820,0.6354613900184631,0.33482142857142855,0.6662930250167847,0.3125
821,0.6354557871818542,0.33482142857142855,0.6662914156913757,0.3125
822,0.6354503631591797,0.33482142857142855,0.6662899255752563,0.3125
823,0.6354451775550842,0.33482142857142855,0.6662884950637817,0.3125
824,0.6354401707649231,0.33482142857142855,0.6662871241569519,0.3125
825,0.6354352235794067,0.33482142857142855,0.6662858128547668,0.3125
826,0.6354305148124695,0.33482142857142855,0.6662845611572266,0.3125
827,0.635425865650177,0.33482142857142855,0.6662833094596863,0.3125
828,0.6354213953018188,0.33482142857142855,0.6662821173667908,0.3125
829,0.6354170441627502,0.33482142857142855,0.6662809252738953,0.3125
830,0.6354128122329712,0.33482142857142855,0.6662797927856445,0.3125
831,0.6354088187217712,0.33482142857142855,0.6662787795066833,0.3125
832,0.6354047060012817,0.33482142857142855,0.6662775874137878,0.3125
833,0.6354008316993713,0.33482142857142855,0.6662766337394714,0.3125
834,0.6353970170021057,0.33482142857142855,0.6662756204605103,0.3125
835,0.6353932619094849,0.33482142857142855,0.6662746667861938,0.3125
836,0.6353896856307983,0.33482142857142855,0.6662737131118774,0.3125
837,0.6353861093521118,0.33482142857142855,0.666272759437561,0.3125
838,0.6353825926780701,0.33482142857142855,0.6662718653678894,0.3125
839,0.6353792548179626,0.33482142857142855,0.6662710309028625,0.3125
840,0.6353758573532104,0.33482142857142855,0.6662700772285461,0.3125
841,0.6353725790977478,0.33482142857142855,0.6662692427635193,0.3125
842,0.6353693604469299,0.33482142857142855,0.6662684082984924,0.3125
843,0.6353663206100464,0.33482142857142855,0.6662675738334656,0.3125
844,0.6353631615638733,0.33482142857142855,0.6662667393684387,0.3125
845,0.6353601813316345,0.33482142857142855,0.6662659049034119,0.3125
846,0.6353572607040405,0.33482142857142855,0.6662651300430298,0.3125
847,0.6353543400764465,0.33482142857142855,0.6662644147872925,0.3125
848,0.6353514790534973,0.33482142857142855,0.6662635803222656,0.3125
849,0.6353487372398376,0.33482142857142855,0.6662629246711731,0.3125
850,0.6353459358215332,0.33482142857142855,0.666262149810791,0.3125
851,0.6353431940078735,0.33482142857142855,0.6662613749504089,0.3125
852,0.6353405714035034,0.33482142857142855,0.6662607192993164,0.3125
853,0.6353379487991333,0.33482142857142855,0.6662599444389343,0.3125
854,0.635335385799408,0.33482142857142855,0.6662593483924866,0.3125
855,0.6353328824043274,0.33482142857142855,0.666258692741394,0.3125
856,0.635330319404602,0.33482142857142855,0.6662579774856567,0.3125
857,0.6353278756141663,0.33482142857142855,0.6662573218345642,0.3125
858,0.6353254914283752,0.33482142857142855,0.6662566065788269,0.3125
859,0.6353231072425842,0.33482142857142855,0.6662560105323792,0.3125
860,0.6353207230567932,0.33482142857142855,0.6662554144859314,0.3125
861,0.6353184580802917,0.33482142857142855,0.6662546992301941,0.3125
862,0.6353161931037903,0.33482142857142855,0.6662541627883911,0.3125
863,0.6353139877319336,0.33482142857142855,0.6662535071372986,0.3125
864,0.6353117227554321,0.33482142857142855,0.6662529110908508,0.3125
865,0.6353095173835754,0.33482142857142855,0.6662523150444031,0.3125
866,0.6353074312210083,0.33482142857142855,0.6662517189979553,0.3125
867,0.6353052854537964,0.33482142857142855,0.6662511825561523,0.3125
868,0.6353031992912292,0.33482142857142855,0.6662505865097046,0.3125
869,0.6353011131286621,0.33482142857142855,0.6662500500679016,0.3125
870,0.6352990865707397,0.33482142857142855,0.6662494540214539,0.3125
871,0.6352970004081726,0.33482142857142855,0.6662489175796509,0.3125
872,0.635295033454895,0.33482142857142855,0.6662483215332031,0.3125
873,0.6352931261062622,0.33482142857142855,0.6662478446960449,0.3125
874,0.6352911591529846,0.33482142857142855,0.6662472486495972,0.3125
875,0.6352892518043518,0.33482142857142855,0.666246771812439,0.3125
876,0.635287344455719,0.33482142857142855,0.666246235370636,0.3125
877,0.635285496711731,0.33482142857142855,0.6662457585334778,0.3125
878,0.6352835893630981,0.33482142857142855,0.66624516248703,0.3125
879,0.6352818608283997,0.33482142857142855,0.666244626045227,0.3125
880,0.6352800726890564,0.33482142857142855,0.6662441492080688,0.3125
881,0.6352782249450684,0.33482142857142855,0.6662436723709106,0.3125
882,0.6352764368057251,0.33482142857142855,0.6662431955337524,0.3125
883,0.6352747678756714,0.33482142857142855,0.6662426590919495,0.3125
884,0.6352730393409729,0.33482142857142855,0.6662421822547913,0.3125
885,0.6352712512016296,0.33482142857142855,0.6662416458129883,0.3125
886,0.6352696418762207,0.33482142857142855,0.6662412285804749,0.3125
887,0.6352679133415222,0.33482142857142855,0.6662408113479614,0.3125
888,0.6352663040161133,0.33482142857142855,0.6662402749061584,0.3125
889,0.6352645754814148,0.33482142857142855,0.666239857673645,0.3125
890,0.6352630257606506,0.33482142857142855,0.6662393808364868,0.3125
891,0.6352614760398865,0.33482142857142855,0.6662389039993286,0.3125
892,0.6352598071098328,0.33482142857142855,0.6662384867668152,0.3125
893,0.6352583169937134,0.33482142857142855,0.666238009929657,0.3125
894,0.6352567672729492,0.33482142857142855,0.6662375330924988,0.3125
895,0.6352551579475403,0.33482142857142855,0.6662371754646301,0.3125
896,0.6352537274360657,0.33482142857142855,0.6662366986274719,0.3125
897,0.6352521777153015,0.33482142857142855,0.6662363409996033,0.3125
898,0.6352506875991821,0.33482142857142855,0.6662358641624451,0.3125
899,0.6352491974830627,0.33482142857142855,0.6662354469299316,0.3125
900,0.6352477073669434,0.33482142857142855,0.6662350296974182,0.3125
901,0.6352462768554688,0.33482142857142855,0.6662346124649048,0.3125
902,0.6352449059486389,0.33482142857142855,0.6662341356277466,0.3125
903,0.6352434754371643,0.33482142857142855,0.6662338376045227,0.3125
904,0.6352420449256897,0.33482142857142855,0.6662333607673645,0.3125
905,0.6352406144142151,0.33482142857142855,0.6662330031394958,0.3125
906,0.6352391839027405,0.33482142857142855,0.6662325859069824,0.3125
907,0.6352378129959106,0.33482142857142855,0.6662321090698242,0.3125
908,0.6352364420890808,0.33482142857142855,0.6662317514419556,0.3125
909,0.6352351903915405,0.33482142857142855,0.6662313342094421,0.3125
910,0.6352338194847107,0.33482142857142855,0.6662310361862183,0.3125
911,0.6352325081825256,0.33482142857142855,0.6662305593490601,0.3125
912,0.6352311372756958,0.33482142857142855,0.6662302017211914,0.3125
913,0.6352299451828003,0.33482142857142855,0.6662298440933228,0.3125
914,0.6352285742759705,0.33482142857142855,0.6662293672561646,0.3125
915,0.6352273225784302,0.33482142857142855,0.6662290692329407,0.3125
916,0.6352260708808899,0.33482142857142855,0.666228711605072,0.3125
917,0.6352247595787048,0.33482142857142855,0.6662282943725586,0.3125
918,0.6352235078811646,0.33482142857142855,0.6662278771400452,0.3125
919,0.6352222561836243,0.33482142857142855,0.6662275195121765,0.3125
920,0.6352210640907288,0.33482142857142855,0.6662272214889526,0.3125
921,0.6352198719978333,0.33482142857142855,0.666226863861084,0.3125
922,0.635218620300293,0.33482142857142855,0.6662265062332153,0.3125
923,0.6352174878120422,0.33482142857142855,0.6662260890007019,0.3125
924,0.635216236114502,0.33482142857142855,0.666225790977478,0.3125
925,0.6352149844169617,0.33482142857142855,0.6662253737449646,0.3125
926,0.6352137923240662,0.33482142857142855,0.6662250757217407,0.3125
927,0.6352127194404602,0.33482142857142855,0.6662247776985168,0.3125
928,0.6352115273475647,0.33482142857142855,0.6662244200706482,0.3125
929,0.635210394859314,0.33482142857142855,0.6662240624427795,0.3125
930,0.6352092027664185,0.33482142857142855,0.6662237048149109,0.3125
931,0.6352081298828125,0.33482142857142855,0.666223406791687,0.3125
932,0.6352068781852722,0.33482142857142855,0.6662229895591736,0.3125
933,0.635205864906311,0.33482142857142855,0.6662226915359497,0.3125
934,0.6352047324180603,0.33482142857142855,0.6662222743034363,0.3125
935,0.6352036595344543,0.33482142857142855,0.6662220358848572,0.3125
936,0.6352025270462036,0.33482142857142855,0.6662216782569885,0.3125
937,0.6352014541625977,0.33482142857142855,0.6662213206291199,0.3125
938,0.6352003812789917,0.33482142857142855,0.666221022605896,0.3125
939,0.635199248790741,0.33482142857142855,0.6662206649780273,0.3125
940,0.635198175907135,0.33482142857142855,0.6662203669548035,0.3125
941,0.6351971626281738,0.33482142857142855,0.6662201285362244,0.3125
942,0.6351961493492126,0.33482142857142855,0.6662197113037109,0.3125
943,0.6351950764656067,0.33482142857142855,0.6662194132804871,0.3125
944,0.6351940035820007,0.33482142857142855,0.666219174861908,0.3125
945,0.6351929903030396,0.33482142857142855,0.6662188172340393,0.3125
946,0.6351919770240784,0.33482142857142855,0.6662184000015259,0.3125
947,0.6351909637451172,0.33482142857142855,0.6662182211875916,0.3125
948,0.635189950466156,0.33482142857142855,0.6662178039550781,0.3125
949,0.6351889371871948,0.33482142857142855,0.6662175059318542,0.3125
950,0.6351879239082336,0.33482142857142855,0.6662172079086304,0.3125
951,0.635187029838562,0.33482142857142855,0.6662169694900513,0.3125
952,0.6351858973503113,0.33482142857142855,0.6662165522575378,0.3125
953,0.6351848840713501,0.33482142857142855,0.6662163138389587,0.3125
954,0.6351839900016785,0.33482142857142855,0.6662160158157349,0.3125
955,0.6351829767227173,0.33482142857142855,0.6662157773971558,0.3125
956,0.6351820826530457,0.33482142857142855,0.6662154197692871,0.3125
957,0.6351810693740845,0.33482142857142855,0.6662151217460632,0.3125
958,0.6351801156997681,0.33482142857142855,0.6662148237228394,0.3125
959,0.6351791024208069,0.33482142857142855,0.6662145256996155,0.3125
960,0.63517826795578,0.33482142857142855,0.6662142872810364,0.3125
961,0.6351771950721741,0.33482142857142855,0.6662139296531677,0.3125
962,0.6351763606071472,0.33482142857142855,0.6662136912345886,0.3125
963,0.635175347328186,0.33482142857142855,0.6662133932113647,0.3125
964,0.6351744532585144,0.33482142857142855,0.6662130355834961,0.3125
965,0.6351736187934875,0.33482142857142855,0.6662127375602722,0.3125
966,0.6351726651191711,0.33482142857142855,0.6662124991416931,0.3125
967,0.6351717710494995,0.33482142857142855,0.6662122011184692,0.3125
968,0.6351709365844727,0.33482142857142855,0.6662120223045349,0.3125
969,0.6351699829101562,0.33482142857142855,0.6662116646766663,0.3125
970,0.6351690888404846,0.33482142857142855,0.6662113070487976,0.3125
971,0.6351681351661682,0.33482142857142855,0.6662111282348633,0.3125
972,0.6351672410964966,0.33482142857142855,0.6662108302116394,0.3125
973,0.635166347026825,0.33482142857142855,0.6662105917930603,0.3125
974,0.6351655125617981,0.33482142857142855,0.6662102937698364,0.3125
975,0.6351646780967712,0.33482142857142855,0.6662099957466125,0.3125
976,0.6351637840270996,0.33482142857142855,0.6662096977233887,0.3125
977,0.635162889957428,0.33482142857142855,0.6662095189094543,0.3125
978,0.6351619958877563,0.33482142857142855,0.6662091612815857,0.3125
979,0.6351612210273743,0.33482142857142855,0.6662089228630066,0.3125
980,0.6351603865623474,0.33482142857142855,0.6662086844444275,0.3125
981,0.6351594924926758,0.33482142857142855,0.6662083864212036,0.3125
982,0.6351586580276489,0.33482142857142855,0.6662081480026245,0.3125
983,0.6351577639579773,0.33482142857142855,0.6662078499794006,0.3125
984,0.6351569890975952,0.33482142857142855,0.6662076115608215,0.3125
985,0.6351561546325684,0.33482142857142855,0.6662073135375977,0.3125
986,0.6351553201675415,0.33482142857142855,0.6662070155143738,0.3125
987,0.6351544260978699,0.33482142857142855,0.6662067770957947,0.3125
988,0.6351536512374878,0.33482142857142855,0.6662065386772156,0.3125
989,0.6351528763771057,0.33482142857142855,0.6662063002586365,0.3125
990,0.6351519823074341,0.33482142857142855,0.6662060022354126,0.3125
991,0.6351513266563416,0.33482142857142855,0.6662057638168335,0.3125
992,0.6351504921913147,0.33482142857142855,0.6662055253982544,0.3125
993,0.6351496577262878,0.33482142857142855,0.6662052869796753,0.3125
994,0.635148823261261,0.33482142857142855,0.6662049889564514,0.3125
995,0.6351480484008789,0.33482142857142855,0.6662046313285828,0.3125
996,0.635147213935852,0.33482142857142855,0.6662044525146484,0.3125
997,0.63514643907547,0.33482142857142855,0.6662042737007141,0.3125
998,0.6351456642150879,0.33482142857142855,0.6662039160728455,0.3125
999,0.635144829750061,0.33482142857142855,0.6662036776542664,0.3125
