,loss,recall,val_loss,val_recall
0,0.6892179846763611,0.49061390157280566,0.6903080344200134,0.5864497328800389
1,0.6082922220230103,0.592156862745098,0.6809254288673401,0.7063329928498467
2,0.5479928255081177,0.7098039215686274,0.6696344017982483,0.8333333333333333
3,0.50417160987854,0.7639257294429709,0.65834641456604,0.8232323232323233
4,0.47120940685272217,0.776578073089701,0.6474817991256714,0.8232323232323233
5,0.44502225518226624,0.776578073089701,0.6369566321372986,0.8232323232323233
6,0.42402228713035583,0.7991071428571428,0.6265092492103577,0.8232323232323233
7,0.4063549041748047,0.7852303523035231,0.616259753704071,0.8232323232323233
8,0.3906285762786865,0.7852303523035231,0.6058070063591003,0.8232323232323233
9,0.37619468569755554,0.8191056910569106,0.5950639247894287,0.8232323232323233
10,0.3626421391963959,0.8191056910569106,0.5840713977813721,0.8232323232323233
11,0.3496958911418915,0.8374999999999999,0.5728548765182495,0.6580756013745704
12,0.3374102711677551,0.8462929475587704,0.561296284198761,0.75177304964539
13,0.3253737688064575,0.8717105263157895,0.5494786500930786,0.768939393939394
14,0.31374242901802063,0.8533333333333333,0.5372471213340759,0.8224932249322493
15,0.3021509051322937,0.8622661122661123,0.5248120427131653,0.8447860156720917
16,0.2908216118812561,0.8711314053779807,0.5122421979904175,0.8519813519813519
17,0.28003767132759094,0.8799603174603174,0.49945276975631714,0.8466666666666667
18,0.26989150047302246,0.8799603174603174,0.4865652322769165,0.8452380952380952
19,0.26034408807754517,0.906498363721365,0.47371068596839905,0.8535696940262263
20,0.25097715854644775,0.906498363721365,0.4608159065246582,0.8468910705937354
21,0.24173228442668915,0.906498363721365,0.4481128454208374,0.8419267299864315
22,0.23264282941818237,0.906498363721365,0.4356519877910614,0.8419267299864315
23,0.22395721077919006,0.9154411764705883,0.42339909076690674,0.8288770053475936
24,0.21534694731235504,0.924468566259611,0.411591112613678,0.8288770053475936
25,0.20685604214668274,0.924468566259611,0.40024062991142273,0.8164835164835165
26,0.19851766526699066,0.9336007130124777,0.3894762396812439,0.8164835164835165
27,0.19032958149909973,0.9336007130124777,0.3795485496520996,0.8046875
28,0.18229538202285767,0.9470827679782903,0.37042921781539917,0.8046875
29,0.1744409203529358,0.9470827679782903,0.36221709847450256,0.8039049235993209
30,0.16673369705677032,0.9613970588235294,0.35456711053848267,0.7934005884825557
31,0.15910273790359497,0.9613970588235294,0.347532719373703,0.7934005884825557
32,0.15152589976787567,0.9613970588235294,0.34096571803092957,0.8039049235993209
33,0.14396882057189941,0.9613970588235294,0.33471065759658813,0.814417822614544
34,0.13653896749019623,0.9613970588235294,0.3286454677581787,0.8251273344651953
35,0.12923330068588257,0.9613970588235294,0.32257819175720215,0.8354350567465322
36,0.12216028571128845,0.9766245909303413,0.3169163763523102,0.8577863577863578
37,0.11537619680166245,0.984375,0.3113641142845154,0.8577863577863578
38,0.10885471105575562,0.984375,0.30641937255859375,0.8604395604395605
39,0.10261546820402145,0.984375,0.3017675280570984,0.8604395604395605
40,0.0965900868177414,0.984375,0.29765820503234863,0.8734402852049911
41,0.0908639058470726,1.0,0.29416340589523315,0.8734402852049911
42,0.08537451922893524,1.0,0.2914029359817505,0.8734402852049911
43,0.08020047843456268,1.0,0.2891784906387329,0.8734402852049911
44,0.07530517876148224,1.0,0.2876262664794922,0.9016544117647058
45,0.07066497951745987,1.0,0.28656911849975586,0.9016544117647058
46,0.06621547788381577,1.0,0.28592449426651,0.9170172978027116
47,0.06199968233704567,1.0,0.2855588495731354,0.9170172978027116
48,0.058036841452121735,1.0,0.285125195980072,0.9170172978027116
49,0.05427423492074013,1.0,0.28467485308647156,0.9170172978027116
50,0.050717201083898544,1.0,0.28380125761032104,0.9170172978027116
51,0.0473383329808712,1.0,0.2827424705028534,0.9170172978027116
52,0.04420410841703415,1.0,0.2821471691131592,0.9095238095238095
53,0.041303131729364395,1.0,0.28195860981941223,0.9095238095238095
54,0.03858891502022743,1.0,0.2827138304710388,0.8936418887330528
55,0.03606496378779411,1.0,0.28385722637176514,0.8936418887330528
56,0.033678241074085236,1.0,0.28569090366363525,0.8936418887330528
57,0.03142396733164787,1.0,0.2873487174510956,0.8936418887330528
58,0.02929370291531086,1.0,0.28899917006492615,0.8936418887330528
59,0.027308160439133644,1.0,0.2902784049510956,0.8936418887330528
60,0.025463156402111053,1.0,0.2913985550403595,0.9095238095238095
61,0.023759521543979645,1.0,0.2923174202442169,0.9264205925206411
62,0.022195670753717422,1.0,0.2934572994709015,0.9264205925206411
63,0.020753035321831703,1.0,0.2946271300315857,0.9264205925206411
64,0.019431212916970253,1.0,0.2954975962638855,0.9264205925206411
65,0.018204135820269585,1.0,0.29615122079849243,0.9333333333333333
66,0.017061330378055573,1.0,0.2965625524520874,0.9170172978027116
67,0.016009092330932617,1.0,0.2970961630344391,0.9170172978027116
68,0.015034634619951248,1.0,0.29781606793403625,0.9170172978027116
69,0.014137038961052895,1.0,0.298947274684906,0.9170172978027116
70,0.01331050880253315,1.0,0.30044811964035034,0.9170172978027116
71,0.012547466903924942,1.0,0.30228427052497864,0.9170172978027116
72,0.011837081983685493,1.0,0.3043498992919922,0.9170172978027116
73,0.011181619018316269,1.0,0.3065662384033203,0.9170172978027116
74,0.010573756881058216,1.0,0.3087539076805115,0.9170172978027116
75,0.010009097866714,1.0,0.31078365445137024,0.9170172978027116
76,0.009486833587288857,1.0,0.3126746714115143,0.9170172978027116
77,0.009005259722471237,1.0,0.31456369161605835,0.9170172978027116
78,0.008560577407479286,1.0,0.31653279066085815,0.9170172978027116
79,0.008147690445184708,1.0,0.3183009922504425,0.9170172978027116
80,0.007762510795146227,1.0,0.3195990324020386,0.9170172978027116
81,0.0074035609140992165,1.0,0.3205275535583496,0.9170172978027116
82,0.00706927664577961,1.0,0.3211776316165924,0.9170172978027116
83,0.0067587862722575665,1.0,0.32152441143989563,0.9246323529411764
84,0.006469018757343292,1.0,0.3217375576496124,0.9246323529411764
85,0.006198056973516941,1.0,0.3221563696861267,0.9097693351424694
86,0.00594477029517293,1.0,0.3228501081466675,0.9097693351424694
87,0.00570675078779459,1.0,0.32385313510894775,0.9097693351424694
88,0.005483376327902079,1.0,0.3251378536224365,0.9097693351424694
89,0.0052729821763932705,1.0,0.32664236426353455,0.9097693351424694
90,0.005075943190604448,1.0,0.32799097895622253,0.9097693351424694
91,0.004891107324510813,1.0,0.3291630446910858,0.9097693351424694
92,0.004716593772172928,1.0,0.33022135496139526,0.8957219251336899
93,0.004551625810563564,1.0,0.3311794102191925,0.8957219251336899
94,0.0043951366096735,1.0,0.3321093022823334,0.8957219251336899
95,0.004248582758009434,1.0,0.3330523669719696,0.8957219251336899
96,0.004110730718821287,1.0,0.3340695798397064,0.8957219251336899
97,0.0039802733808755875,1.0,0.33523502945899963,0.9097693351424694
98,0.0038570647593587637,1.0,0.33654892444610596,0.9097693351424694
99,0.0037405025213956833,1.0,0.3378763496875763,0.9097693351424694
100,0.0036297617480158806,1.0,0.33910831809043884,0.9097693351424694
101,0.0035245614126324654,1.0,0.3402760922908783,0.9097693351424694
102,0.003425135277211666,1.0,0.3413221538066864,0.9097693351424694
103,0.003330573905259371,1.0,0.3422895669937134,0.9097693351424694
104,0.003240199526771903,1.0,0.3431568741798401,0.9097693351424694
105,0.0031536458991467953,1.0,0.34399184584617615,0.9097693351424694
106,0.0030709276907145977,1.0,0.3447900414466858,0.8957219251336899
107,0.0029921208042651415,1.0,0.3456066846847534,0.8957219251336899
108,0.0029171002097427845,1.0,0.3464367687702179,0.8957219251336899
109,0.002845361130312085,1.0,0.34723302721977234,0.8957219251336899
110,0.002776816952973604,1.0,0.3480588495731354,0.8957219251336899
111,0.002711505861952901,1.0,0.3489955961704254,0.8957219251336899
112,0.0026490448508411646,1.0,0.34999778866767883,0.8957219251336899
113,0.0025889223907142878,1.0,0.35094472765922546,0.8957219251336899
114,0.002531413920223713,1.0,0.3518389165401459,0.8957219251336899
115,0.0024763422552496195,1.0,0.3526279330253601,0.8957219251336899
116,0.002423137193545699,1.0,0.35333743691444397,0.8957219251336899
117,0.002371752867475152,1.0,0.35406461358070374,0.8957219251336899
118,0.002322474727407098,1.0,0.35489752888679504,0.8957219251336899
119,0.002275084611028433,1.0,0.3557954430580139,0.8957219251336899
120,0.0022293822839856148,1.0,0.3568398952484131,0.8957219251336899
121,0.002185236196964979,1.0,0.3579714000225067,0.9097693351424694
122,0.0021425734739750624,1.0,0.35916265845298767,0.9097693351424694
123,0.0021013813093304634,1.0,0.3602770268917084,0.9097693351424694
124,0.0020616641268134117,1.0,0.36123552918434143,0.9097693351424694
125,0.0020231236703693867,1.0,0.36203834414482117,0.9097693351424694
126,0.0019856912549585104,1.0,0.3625914752483368,0.9097693351424694
127,0.001949398429132998,1.0,0.36292052268981934,0.9097693351424694
128,0.001914288499392569,1.0,0.3631380796432495,0.9097693351424694
129,0.0018803259590640664,1.0,0.36337608098983765,0.8957219251336899
130,0.0018474420066922903,1.0,0.3636411130428314,0.8957219251336899
131,0.0018154161516577005,1.0,0.3639221787452698,0.8957219251336899
132,0.0017843273235484958,1.0,0.36427950859069824,0.8957219251336899
133,0.0017541390843689442,1.0,0.36474478244781494,0.8957219251336899
134,0.0017248446820303798,1.0,0.36535215377807617,0.8824175824175824
135,0.0016964059323072433,1.0,0.36593666672706604,0.8824175824175824
136,0.0016687216702848673,1.0,0.36656010150909424,0.8824175824175824
137,0.0016417127335444093,1.0,0.3671891391277313,0.8824175824175824
138,0.0016154468758031726,1.0,0.36776137351989746,0.8824175824175824
139,0.001589875086210668,1.0,0.3683151602745056,0.8824175824175824
140,0.001564915175549686,1.0,0.3688252866268158,0.8824175824175824
141,0.0015406449092552066,1.0,0.3694254159927368,0.8824175824175824
142,0.0015169911785051227,1.0,0.3701035976409912,0.8824175824175824
143,0.0014938765671104193,1.0,0.3707752227783203,0.8824175824175824
144,0.0014714152785018086,1.0,0.37135085463523865,0.8824175824175824
145,0.0014494587667286396,1.0,0.37181711196899414,0.8824175824175824
146,0.0014280524337664247,1.0,0.3722039461135864,0.8824175824175824
147,0.0014071506448090076,1.0,0.3725479543209076,0.8824175824175824
148,0.0013868098612874746,1.0,0.3728443682193756,0.8824175824175824
149,0.0013669561594724655,1.0,0.3732132017612457,0.8824175824175824
150,0.0013475321466103196,1.0,0.373575896024704,0.8824175824175824
151,0.001328621176071465,1.0,0.3739353120326996,0.8824175824175824
152,0.0013102146331220865,1.0,0.37428393959999084,0.8824175824175824
153,0.0012921958696097136,1.0,0.37463492155075073,0.8824175824175824
154,0.0012745350832119584,1.0,0.3750694990158081,0.8824175824175824
155,0.0012572633568197489,1.0,0.3755733072757721,0.8824175824175824
156,0.001240363111719489,1.0,0.3761495053768158,0.8824175824175824
157,0.001223830389790237,1.0,0.3767392933368683,0.8824175824175824
158,0.0012076172279193997,1.0,0.37725478410720825,0.8824175824175824
159,0.0011917357333004475,1.0,0.37766844034194946,0.8824175824175824
160,0.0011761606438085437,1.0,0.37804892659187317,0.8824175824175824
161,0.001160920481197536,1.0,0.37842467427253723,0.8824175824175824
162,0.00114596972707659,1.0,0.37878820300102234,0.8824175824175824
163,0.001131347962655127,1.0,0.3791903555393219,0.8824175824175824
164,0.0011170405196025968,1.0,0.37956666946411133,0.8824175824175824
165,0.001103001181036234,1.0,0.3799762725830078,0.8824175824175824
166,0.001089206663891673,1.0,0.3803434669971466,0.8824175824175824
167,0.0010756546398624778,1.0,0.38068774342536926,0.8824175824175824
168,0.001062378054484725,1.0,0.3810758888721466,0.8824175824175824
169,0.0010493993759155273,1.0,0.3814481198787689,0.8824175824175824
170,0.0010366301285102963,1.0,0.38189050555229187,0.8824175824175824
171,0.0010240969713777304,1.0,0.38236457109451294,0.8824175824175824
172,0.0010117832571268082,1.0,0.3827729821205139,0.8824175824175824
173,0.0009997108718380332,1.0,0.38311249017715454,0.8824175824175824
174,0.0009878884302452207,1.0,0.3834190368652344,0.8824175824175824
175,0.0009762857807800174,1.0,0.38371652364730835,0.8824175824175824
176,0.0009649228886701167,1.0,0.38408246636390686,0.8824175824175824
177,0.0009537654696032405,1.0,0.38445743918418884,0.8824175824175824
178,0.0009427886107005179,1.0,0.3848167955875397,0.8824175824175824
179,0.0009320519748143852,1.0,0.38517001271247864,0.8824175824175824
180,0.0009214867604896426,1.0,0.38552677631378174,0.8824175824175824
181,0.0009111236431635916,1.0,0.38600048422813416,0.8824175824175824
182,0.0009009732166305184,1.0,0.386539489030838,0.8824175824175824
183,0.000891001895070076,1.0,0.38711655139923096,0.8824175824175824
184,0.0008812110754661262,1.0,0.3876262605190277,0.8824175824175824
185,0.0008715948788449168,1.0,0.38807111978530884,0.8824175824175824
186,0.00086214643670246,1.0,0.38848429918289185,0.8824175824175824
187,0.0008528669131919742,1.0,0.3888404071331024,0.8824175824175824
188,0.0008437716169282794,1.0,0.3892867863178253,0.8824175824175824
189,0.0008348175906576216,1.0,0.3898133635520935,0.8824175824175824
190,0.0008260096656158566,1.0,0.39029964804649353,0.8824175824175824
191,0.0008173431269824505,1.0,0.39071258902549744,0.8824175824175824
192,0.0008088326430879533,1.0,0.3910922110080719,0.8824175824175824
193,0.0008004257106222212,1.0,0.39156225323677063,0.8824175824175824
194,0.0007921992219053209,1.0,0.3920324146747589,0.8824175824175824
195,0.0007840925827622414,1.0,0.392476350069046,0.8824175824175824
196,0.000776135828346014,1.0,0.39294740557670593,0.8824175824175824
197,0.0007682969444431365,1.0,0.3934025168418884,0.8824175824175824
198,0.0007605830323882401,1.0,0.3938702940940857,0.8824175824175824
199,0.0007529903668910265,1.0,0.3942403197288513,0.8824175824175824
200,0.0007455286104232073,1.0,0.39466413855552673,0.8824175824175824
201,0.0007381701143458486,1.0,0.395097941160202,0.8824175824175824
202,0.0007309316424652934,1.0,0.39553749561309814,0.8824175824175824
203,0.0007238132529892027,1.0,0.3959485590457916,0.8824175824175824
204,0.0007167817675508559,1.0,0.3963024914264679,0.8824175824175824
205,0.0007098575006239116,1.0,0.3966760039329529,0.8824175824175824
206,0.0007030365522950888,1.0,0.39700740575790405,0.8824175824175824
207,0.0006963060586713254,1.0,0.39737075567245483,0.8824175824175824
208,0.0006896884297020733,1.0,0.3978324830532074,0.8824175824175824
209,0.0006831575883552432,1.0,0.3982912003993988,0.8824175824175824
210,0.0006767325103282928,1.0,0.3986797332763672,0.8824175824175824
211,0.0006704014376737177,1.0,0.3990258574485779,0.8824175824175824
212,0.0006641560466960073,1.0,0.3993222415447235,0.8824175824175824
213,0.0006579833570867777,1.0,0.39969778060913086,0.8824175824175824
214,0.0006519117159768939,1.0,0.4001666307449341,0.8824175824175824
215,0.0006459292490035295,1.0,0.400655597448349,0.8824175824175824
216,0.0006400419515557587,1.0,0.4010832905769348,0.8824175824175824
217,0.0006342331762425601,1.0,0.401455819606781,0.8824175824175824
218,0.0006285089766606688,1.0,0.4017837941646576,0.8824175824175824
219,0.0006228715647011995,1.0,0.402104914188385,0.8824175824175824
220,0.0006173065630719066,1.0,0.40249186754226685,0.8824175824175824
221,0.0006118201417848468,1.0,0.40291181206703186,0.8824175824175824
222,0.0006064133485779166,1.0,0.40331655740737915,0.8824175824175824
223,0.000601072097197175,1.0,0.4037761688232422,0.8824175824175824
224,0.0005958069232292473,1.0,0.4041929543018341,0.8824175824175824
225,0.0005906202713958919,1.0,0.4046102464199066,0.8824175824175824
226,0.0005854966584593058,1.0,0.4049910008907318,0.8824175824175824
227,0.0005804491811431944,1.0,0.40539485216140747,0.8824175824175824
228,0.0005754575249738991,1.0,0.4057847857475281,0.8824175824175824
229,0.000570549163967371,1.0,0.4060639441013336,0.8824175824175824
230,0.0005657052388414741,1.0,0.40636518597602844,0.8824175824175824
231,0.0005609064246527851,1.0,0.40672773122787476,0.8824175824175824
232,0.0005561873549595475,1.0,0.40714025497436523,0.8824175824175824
233,0.0005515468656085432,1.0,0.40755578875541687,0.8824175824175824
234,0.0005469514871947467,1.0,0.40793704986572266,0.8824175824175824
235,0.0005424085538834333,1.0,0.4083055853843689,0.8824175824175824
236,0.0005379323265515268,1.0,0.408700555562973,0.8824175824175824
237,0.0005335155874490738,1.0,0.4090876579284668,0.8824175824175824
238,0.0005291331908665597,1.0,0.40944162011146545,0.8824175824175824
239,0.0005248187226243317,1.0,0.409665584564209,0.8824175824175824
240,0.0005205650231800973,1.0,0.40989506244659424,0.8824175824175824
241,0.0005163612077012658,1.0,0.4102155268192291,0.8824175824175824
242,0.0005122132715769112,1.0,0.4105750322341919,0.8824175824175824
243,0.0005081070121377707,1.0,0.4108988046646118,0.8824175824175824
244,0.0005040507530793548,1.0,0.4112420678138733,0.8824175824175824
245,0.0005000492674298584,1.0,0.41150712966918945,0.8824175824175824
246,0.0004960918449796736,1.0,0.411798894405365,0.8824175824175824
247,0.0004921879735775292,1.0,0.41209670901298523,0.8824175824175824
248,0.000488320947624743,1.0,0.41234564781188965,0.8824175824175824
249,0.00048449801397509873,1.0,0.4126063585281372,0.8824175824175824
250,0.0004807238292414695,1.0,0.41294044256210327,0.8824175824175824
251,0.00047697583795525134,1.0,0.4133392870426178,0.8824175824175824
252,0.0004732932720798999,1.0,0.41375938057899475,0.8824175824175824
253,0.00046965121873654425,1.0,0.4140768051147461,0.8824175824175824
254,0.000466042518382892,1.0,0.41437217593193054,0.8824175824175824
255,0.00046249214210547507,1.0,0.41468727588653564,0.8824175824175824
256,0.00045896790106780827,1.0,0.41504019498825073,0.8824175824175824
257,0.0004554840852506459,1.0,0.4153228998184204,0.8824175824175824
258,0.00045204078196547925,1.0,0.41551241278648376,0.8824175824175824
259,0.00044864873052574694,1.0,0.4158265292644501,0.8824175824175824
260,0.00044528639409691095,1.0,0.416188508272171,0.8824175824175824
261,0.000441957323346287,1.0,0.41656938195228577,0.8824175824175824
262,0.00043866876512765884,1.0,0.4168746769428253,0.8824175824175824
263,0.000435418332926929,1.0,0.4170829653739929,0.8824175824175824
264,0.00043220713268965483,1.0,0.41742274165153503,0.8824175824175824
265,0.00042904235306195915,1.0,0.41784271597862244,0.8824175824175824
266,0.00042588706128299236,1.0,0.41820430755615234,0.8824175824175824
267,0.0004227793833706528,1.0,0.41840416193008423,0.8824175824175824
268,0.0004196991794742644,1.0,0.418637752532959,0.8824175824175824
269,0.00041667252662591636,1.0,0.4189796447753906,0.8824175824175824
270,0.00041366249206475914,1.0,0.41927459836006165,0.8824175824175824
271,0.00041069291182793677,1.0,0.41957342624664307,0.8824175824175824
272,0.0004077424528077245,1.0,0.41986387968063354,0.8824175824175824
273,0.00040483716293238103,1.0,0.42012840509414673,0.8824175824175824
274,0.00040194971370510757,1.0,0.4203740656375885,0.8824175824175824
275,0.00039911112980917096,1.0,0.42059874534606934,0.8824175824175824
276,0.0003962951013818383,1.0,0.4209131598472595,0.8824175824175824
277,0.00039351251325570047,1.0,0.4212375283241272,0.8824175824175824
278,0.00039075606036931276,1.0,0.4215399920940399,0.8824175824175824
279,0.00038802457856945693,1.0,0.4218273162841797,0.8824175824175824
280,0.00038532415055669844,1.0,0.4221406579017639,0.8824175824175824
281,0.0003826558531727642,1.0,0.422477662563324,0.8824175824175824
282,0.00038000891800038517,1.0,0.42284807562828064,0.8824175824175824
283,0.00037740010884590447,1.0,0.4231608808040619,0.8824175824175824
284,0.0003748091112356633,1.0,0.4233779013156891,0.8824175824175824
285,0.0003722432302311063,1.0,0.42364734411239624,0.8824175824175824
286,0.00036970703513361514,1.0,0.42397189140319824,0.8824175824175824
287,0.0003671994782052934,1.0,0.42430558800697327,0.8824175824175824
288,0.00036472169449552894,1.0,0.42462190985679626,0.8824175824175824
289,0.00036226765951141715,1.0,0.42487668991088867,0.8824175824175824
290,0.00035982675035484135,1.0,0.42516496777534485,0.8824175824175824
291,0.0003574215807020664,1.0,0.42544761300086975,0.8824175824175824
292,0.00035504496190696955,1.0,0.42568260431289673,0.8824175824175824
293,0.00035268269130028784,1.0,0.4259292483329773,0.8824175824175824
294,0.00035035013570450246,1.0,0.4261910915374756,0.8824175824175824
295,0.00034804968163371086,1.0,0.42639341950416565,0.8824175824175824
296,0.00034575408790260553,1.0,0.4265916347503662,0.8824175824175824
297,0.00034348698682151735,1.0,0.4268300235271454,0.8824175824175824
298,0.00034124968806281686,1.0,0.42713621258735657,0.8824175824175824
299,0.0003390326746739447,1.0,0.42743659019470215,0.8824175824175824
300,0.00033683463698253036,1.0,0.42766714096069336,0.8824175824175824
301,0.0003346533339936286,1.0,0.4279317855834961,0.8824175824175824
302,0.0003325029683765024,1.0,0.4282309114933014,0.8824175824175824
303,0.00033036450622603297,1.0,0.4285340905189514,0.8824175824175824
304,0.0003282618126831949,1.0,0.42876455187797546,0.8824175824175824
305,0.00032616741373203695,1.0,0.42902258038520813,0.8824175824175824
306,0.0003240956284571439,1.0,0.42932531237602234,0.8824175824175824
307,0.0003220476792193949,1.0,0.42957034707069397,0.8824175824175824
308,0.00032001762883737683,1.0,0.4297582805156708,0.8824175824175824
309,0.00031800661236047745,1.0,0.429999977350235,0.8824175824175824
310,0.0003160062769893557,1.0,0.43030616641044617,0.8824175824175824
311,0.0003140440967399627,1.0,0.43059974908828735,0.8824175824175824
312,0.0003120914043392986,1.0,0.43083053827285767,0.8824175824175824
313,0.0003101482579950243,1.0,0.431050181388855,0.8824175824175824
314,0.00030823249835520983,1.0,0.43130218982696533,0.8824175824175824
315,0.0003063370240852237,1.0,0.4316208064556122,0.8824175824175824
316,0.0003044522018171847,1.0,0.43192926049232483,0.8824175824175824
317,0.0003025876358151436,1.0,0.43219122290611267,0.8824175824175824
318,0.0003007409686688334,1.0,0.4324495494365692,0.8824175824175824
319,0.0002989097556564957,1.0,0.43268802762031555,0.8824175824175824
320,0.00029710479429923,1.0,0.4329178035259247,0.8824175824175824
321,0.0002953021612484008,1.0,0.43316176533699036,0.8824175824175824
322,0.0002935210068244487,1.0,0.4333626925945282,0.8824175824175824
323,0.0002917565288953483,1.0,0.4336034953594208,0.8824175824175824
324,0.0002900122490245849,1.0,0.43383651971817017,0.8824175824175824
325,0.0002882775152102113,1.0,0.43408411741256714,0.8824175824175824
326,0.0002865690039470792,1.0,0.4343843460083008,0.8824175824175824
327,0.0002848616859409958,1.0,0.4346681833267212,0.8824175824175824
328,0.00028316982206888497,1.0,0.43495139479637146,0.8824175824175824
329,0.00028149582794867456,1.0,0.4352153539657593,0.8824175824175824
330,0.0002798397035803646,1.0,0.4354580342769623,0.8824175824175824
331,0.00027819667593576014,1.0,0.43571075797080994,0.8824175824175824
332,0.0002765691315289587,1.0,0.4359804391860962,0.8824175824175824
333,0.0002749547129496932,1.0,0.43621641397476196,0.8824175824175824
334,0.0002733581350184977,1.0,0.43648356199264526,0.8824175824175824
335,0.00027177229640074074,1.0,0.4367084503173828,0.8824175824175824
336,0.0002701983612496406,1.0,0.43690574169158936,0.8824175824175824
337,0.00026864465326070786,1.0,0.43711057305336,0.8824175824175824
338,0.00026709571829997003,1.0,0.4373050332069397,0.8824175824175824
339,0.0002655682619661093,1.0,0.43749430775642395,0.8824175824175824
340,0.0002640371967572719,1.0,0.4376896917819977,0.8824175824175824
341,0.00026253590476699173,1.0,0.43794357776641846,0.8824175824175824
342,0.00026104890275746584,1.0,0.438168466091156,0.8824175824175824
343,0.0002595559344626963,1.0,0.4383887052536011,0.8824175824175824
344,0.00025808560894802213,1.0,0.4386569857597351,0.8824175824175824
345,0.00025661411928012967,1.0,0.43892738223075867,0.8824175824175824
346,0.00025517598260194063,1.0,0.43916335701942444,0.8824175824175824
347,0.0002537354303058237,1.0,0.439424991607666,0.8824175824175824
348,0.0002523162984289229,1.0,0.43967974185943604,0.8824175824175824
349,0.000250897224759683,1.0,0.43995201587677,0.8824175824175824
350,0.0002494923828635365,1.0,0.4402066767215729,0.8824175824175824
351,0.0002480982802808285,1.0,0.44044229388237,0.8824175824175824
352,0.00024673520238138735,1.0,0.4406713843345642,0.8824175824175824
353,0.0002453589695505798,1.0,0.44085264205932617,0.8824175824175824
354,0.0002440089447190985,1.0,0.44107308983802795,0.8824175824175824
355,0.000242658905335702,1.0,0.4413197636604309,0.8824175824175824
356,0.0002413184120086953,1.0,0.44156646728515625,0.8824175824175824
357,0.00023999938275665045,1.0,0.44179365038871765,0.8824175824175824
358,0.0002386803098488599,1.0,0.4420263469219208,0.8824175824175824
359,0.0002373827446717769,1.0,0.4422672986984253,0.8824175824175824
360,0.00023609345953445882,1.0,0.4425261616706848,0.8824175824175824
361,0.0002348113339394331,1.0,0.4428185224533081,0.8824175824175824
362,0.00023354233417194337,1.0,0.4430706799030304,0.8824175824175824
363,0.00023228283680509776,1.0,0.4432903826236725,0.8824175824175824
364,0.0002310304989805445,1.0,0.44353845715522766,0.8824175824175824
365,0.00022979483765084296,1.0,0.44378745555877686,0.8824175824175824
366,0.000228568707825616,1.0,0.44402822852134705,0.8824175824175824
367,0.00022734735102858394,1.0,0.44427070021629333,0.8824175824175824
368,0.0002261438494315371,1.0,0.44449058175086975,0.8824175824175824
369,0.0002249415119877085,1.0,0.44470399618148804,0.8824175824175824
370,0.0002237535227322951,1.0,0.4449600875377655,0.8824175824175824
371,0.0002225845673820004,1.0,0.44521820545196533,0.8824175824175824
372,0.00022141443332657218,1.0,0.44541865587234497,0.8824175824175824
373,0.00022024904319550842,1.0,0.4456118643283844,0.8824175824175824
374,0.00021909679344389588,1.0,0.4458061754703522,0.8824175824175824
375,0.00021795641805510968,1.0,0.44603872299194336,0.8824175824175824
376,0.0002168160572182387,1.0,0.446268230676651,0.8824175824175824
377,0.00021569474483840168,1.0,0.4464694857597351,0.8824175824175824
378,0.00021457466937135905,1.0,0.4466942250728607,0.8824175824175824
379,0.00021346287394408137,1.0,0.44695791602134705,0.8824175824175824
380,0.00021236420434433967,1.0,0.4472498893737793,0.8824175824175824
381,0.00021127029322087765,1.0,0.4475017189979553,0.8824175824175824
382,0.00021018832921981812,1.0,0.44774606823921204,0.8824175824175824
383,0.00020911585306748748,1.0,0.4479939639568329,0.8824175824175824
384,0.00020804934320040047,1.0,0.4482329487800598,0.8824175824175824
385,0.00020699000742752105,1.0,0.44844359159469604,0.8824175824175824
386,0.00020593899535015225,1.0,0.4486430883407593,0.8824175824175824
387,0.0002048927271971479,1.0,0.44885438680648804,0.8824175824175824
388,0.0002038667444139719,1.0,0.4490841329097748,0.8824175824175824
389,0.0002028312155744061,1.0,0.44930770993232727,0.8824175824175824
390,0.00020182070147711784,1.0,0.449537068605423,0.8824175824175824
391,0.0002008054289035499,1.0,0.4497927725315094,0.8824175824175824
392,0.00019980802608188242,1.0,0.45001542568206787,0.8824175824175824
393,0.00019881063781213015,1.0,0.4502667188644409,0.8824175824175824
394,0.00019782631716225296,1.0,0.4504808187484741,0.8824175824175824
395,0.00019684679864440113,1.0,0.45071518421173096,0.8824175824175824
396,0.00019587678252719343,1.0,0.45094770193099976,0.8824175824175824
397,0.0001949103461811319,1.0,0.45114263892173767,0.8824175824175824
398,0.00019395819981582463,1.0,0.4513518512248993,0.8824175824175824
399,0.0001930108410306275,1.0,0.4516005516052246,0.8824175824175824
400,0.0001920706417877227,1.0,0.45187681913375854,0.8734402852049911
401,0.00019113039888907224,1.0,0.4521174430847168,0.8734402852049911
402,0.00019020686158910394,1.0,0.4523690342903137,0.8734402852049911
403,0.00018928806821350008,1.0,0.45262041687965393,0.8734402852049911
404,0.00018836930394172668,1.0,0.4528881013393402,0.8734402852049911
405,0.00018745767010841519,1.0,0.45313483476638794,0.8734402852049911
406,0.0001865674857981503,1.0,0.45337870717048645,0.8734402852049911
407,0.000185671349754557,1.0,0.45359838008880615,0.8734402852049911
408,0.0001847787934821099,1.0,0.4538164436817169,0.8734402852049911
409,0.00018389930482953787,1.0,0.45402950048446655,0.8734402852049911
410,0.00018302819808013737,1.0,0.45425745844841003,0.8734402852049911
411,0.00018215231830254197,1.0,0.4544703960418701,0.8734402852049911
412,0.00018129072850570083,1.0,0.4546988308429718,0.8734402852049911
413,0.00018043270392809063,1.0,0.4549611508846283,0.8734402852049911
414,0.0001795782445697114,1.0,0.4552188813686371,0.8734402852049911
415,0.00017874168406706303,1.0,0.4554263651371002,0.8734402852049911
416,0.00017790510901249945,1.0,0.455658495426178,0.8734402852049911
417,0.000177073321538046,1.0,0.4558926224708557,0.8734402852049911
418,0.00017624031170271337,1.0,0.45610713958740234,0.8734402852049911
419,0.00017542279965709895,1.0,0.4563371241092682,0.8734402852049911
420,0.00017461126844864339,1.0,0.45657941699028015,0.8734402852049911
421,0.00017380209465045482,1.0,0.4567982256412506,0.8734402852049911
422,0.00017299172759521753,1.0,0.457000732421875,0.8734402852049911
423,0.00017220281006302685,1.0,0.4572164714336395,0.8734402852049911
424,0.00017141032731160522,1.0,0.4574342966079712,0.8734402852049911
425,0.00017061665130313486,1.0,0.4576500356197357,0.8734402852049911
426,0.00016984324611257762,1.0,0.4578542709350586,0.8734402852049911
427,0.00016906147357076406,1.0,0.45805853605270386,0.8734402852049911
428,0.00016829639207571745,1.0,0.45826780796051025,0.8734402852049911
429,0.00016752771625760943,1.0,0.45849815011024475,0.8734402852049911
430,0.00016676622908562422,1.0,0.4587392210960388,0.8734402852049911
431,0.0001660178240854293,1.0,0.45893219113349915,0.8734402852049911
432,0.00016526345279999077,1.0,0.4591279625892639,0.8734402852049911
433,0.00016451980627607554,1.0,0.45932307839393616,0.8604395604395605
434,0.00016378807777073234,1.0,0.45952653884887695,0.8604395604395605
435,0.00016305517056025565,1.0,0.4597723186016083,0.8604395604395605
436,0.00016232463531196117,1.0,0.460020512342453,0.8604395604395605
437,0.0001616036461200565,1.0,0.46024584770202637,0.8604395604395605
438,0.0001608802704140544,1.0,0.46047407388687134,0.8604395604395605
439,0.00016016997687984258,1.0,0.46071991324424744,0.8604395604395605
440,0.0001594585191924125,1.0,0.46094435453414917,0.8604395604395605
441,0.00015875897952355444,1.0,0.46118009090423584,0.8604395604395605
442,0.0001580582174938172,1.0,0.4614030718803406,0.8604395604395605
443,0.00015736580826342106,1.0,0.46162688732147217,0.8604395604395605
444,0.00015666864055674523,1.0,0.4618537127971649,0.8604395604395605
445,0.0001559857773827389,1.0,0.46209996938705444,0.8604395604395605
446,0.00015529931988567114,1.0,0.46230974793434143,0.8604395604395605
447,0.00015462956798728555,1.0,0.4624815285205841,0.8604395604395605
448,0.0001539538352517411,1.0,0.4626898169517517,0.8604395604395605
449,0.00015329122834373266,1.0,0.4629223048686981,0.8604395604395605
450,0.00015263337991200387,1.0,0.46313562989234924,0.8604395604395605
451,0.00015196361346170306,1.0,0.46329665184020996,0.8604395604395605
452,0.0001513129100203514,1.0,0.46348103880882263,0.8604395604395605
453,0.00015065862680785358,1.0,0.46369680762290955,0.8604395604395605
454,0.00015001030988059938,1.0,0.46393388509750366,0.8604395604395605
455,0.00014936437946744263,1.0,0.4641081988811493,0.8604395604395605
456,0.00014873156032990664,1.0,0.4643014669418335,0.8604395604395605
457,0.00014809395361226052,1.0,0.46453210711479187,0.8604395604395605
458,0.00014745874796062708,1.0,0.4647639989852905,0.8604395604395605
459,0.00014682949404232204,1.0,0.46496549248695374,0.8604395604395605
460,0.00014620261208619922,1.0,0.465118408203125,0.8604395604395605
461,0.0001455995807191357,1.0,0.4652465283870697,0.8604395604395605
462,0.00014497867960017174,1.0,0.4654107689857483,0.8604395604395605
463,0.00014436848869081587,1.0,0.46562543511390686,0.8604395604395605
464,0.00014375710452441126,1.0,0.46584653854370117,0.8604395604395605
465,0.00014315525186248124,1.0,0.46602171659469604,0.8604395604395605
466,0.0001425558002665639,1.0,0.46618446707725525,0.8604395604395605
467,0.00014196230040397495,1.0,0.4663654863834381,0.8604395604395605
468,0.00014136878598947078,1.0,0.4665650725364685,0.8604395604395605
469,0.0001407788513461128,1.0,0.4667400121688843,0.8604395604395605
470,0.0001401984627591446,1.0,0.4668859839439392,0.8604395604395605
471,0.00013961804506834596,1.0,0.4670427739620209,0.8604395604395605
472,0.00013904004299547523,1.0,0.4672090709209442,0.8604395604395605
473,0.00013847036461811513,1.0,0.467376708984375,0.8604395604395605
474,0.0001378994929837063,1.0,0.46753329038619995,0.8604395604395605
475,0.00013732982915826142,1.0,0.46769025921821594,0.8604395604395605
476,0.00013677803508471698,1.0,0.46783941984176636,0.8604395604395605
477,0.000136215501697734,1.0,0.46798956394195557,0.8604395604395605
478,0.00013566607958637178,1.0,0.46815139055252075,0.8604395604395605
479,0.0001351142709609121,1.0,0.46829143166542053,0.8604395604395605
480,0.00013456486340146512,1.0,0.4684125483036041,0.8604395604395605
481,0.00013401902106124908,1.0,0.4685704708099365,0.8604395604395605
482,0.0001334826956735924,1.0,0.4687603712081909,0.8604395604395605
483,0.00013294639938976616,1.0,0.4689505398273468,0.8604395604395605
484,0.00013241366832517087,1.0,0.46912962198257446,0.8604395604395605
485,0.00013188330922275782,1.0,0.4692974090576172,0.8604395604395605
486,0.0001313577377004549,1.0,0.46944481134414673,0.8604395604395605
487,0.00013083452358841896,1.0,0.4696025848388672,0.8604395604395605
488,0.0001303184690186754,1.0,0.4697822332382202,0.8604395604395605
489,0.00012979288294445723,1.0,0.46995776891708374,0.8604395604395605
490,0.0001292839733650908,1.0,0.4701453149318695,0.8604395604395605
491,0.00012876912660431117,1.0,0.47033795714378357,0.8604395604395605
492,0.00012826855527237058,1.0,0.47056302428245544,0.8604395604395605
493,0.00012775966024491936,1.0,0.4707835912704468,0.8604395604395605
494,0.0001272543304366991,1.0,0.470964640378952,0.8604395604395605
495,0.0001267573534278199,1.0,0.4711531698703766,0.8604395604395605
496,0.00012626274838112295,1.0,0.47133201360702515,0.8604395604395605
497,0.0001257645635632798,1.0,0.4715441167354584,0.8604395604395605
498,0.00012528187653515488,1.0,0.4717528820037842,0.8604395604395605
499,0.0001247908512596041,1.0,0.4719545543193817,0.8604395604395605
500,0.000124304584460333,1.0,0.4721488952636719,0.8604395604395605
501,0.0001238230906892568,1.0,0.4723474085330963,0.8604395604395605
502,0.00012333803169894964,1.0,0.47255203127861023,0.8604395604395605
503,0.00012286486162338406,1.0,0.4727536737918854,0.8604395604395605
504,0.00012239647912792861,1.0,0.4729185998439789,0.8604395604395605
505,0.00012192094436613843,1.0,0.4730841815471649,0.8604395604395605
506,0.00012145733489887789,1.0,0.4732738435268402,0.8604395604395605
507,0.00012099012383259833,1.0,0.4734780490398407,0.8604395604395605
508,0.00012052174133714288,1.0,0.47368720173835754,0.8604395604395605
509,0.00012006645556539297,1.0,0.473875492811203,0.8604395604395605
510,0.00011959926632698625,1.0,0.4740504026412964,0.8604395604395605
511,0.00011914875358343124,1.0,0.4742238223552704,0.8604395604395605
512,0.00011869943409692496,1.0,0.4744403660297394,0.8604395604395605
513,0.00011824890680145472,1.0,0.4746738374233246,0.8604395604395605
514,0.00011779482156271115,1.0,0.47489404678344727,0.8604395604395605
515,0.00011735504085663706,1.0,0.47508352994918823,0.8604395604395605
516,0.00011691525287460536,1.0,0.4752844274044037,0.8604395604395605
517,0.00011647664359770715,1.0,0.47548410296440125,0.8604395604395605
518,0.00011603924940573052,1.0,0.47566908597946167,0.8604395604395605
519,0.00011560542043298483,1.0,0.4758554995059967,0.8604395604395605
520,0.0001151751639554277,1.0,0.47604331374168396,0.8604395604395605
521,0.00011474490747787058,1.0,0.47622087597846985,0.8604395604395605
522,0.00011431346501922235,1.0,0.4763997197151184,0.8604395604395605
523,0.00011388916027499363,1.0,0.4765765964984894,0.8604395604395605
524,0.00011347082181600854,1.0,0.476765900850296,0.8604395604395605
525,0.00011304413783363998,1.0,0.47696027159690857,0.8604395604395605
526,0.00011263415217399597,1.0,0.47715917229652405,0.8604395604395605
527,0.00011221938621019945,1.0,0.477375864982605,0.8604395604395605
528,0.00011180820729350671,1.0,0.4775742292404175,0.8604395604395605
529,0.0001113946273108013,1.0,0.4777606725692749,0.8604395604395605
530,0.00011099416587967426,1.0,0.4779264032840729,0.8604395604395605
531,0.00011058416566811502,1.0,0.47808727622032166,0.8604395604395605
532,0.00011018371151294559,1.0,0.4782678186893463,0.8604395604395605
533,0.00010978324280586094,1.0,0.47844722867012024,0.8604395604395605
534,0.00010938874038401991,1.0,0.4786309599876404,0.8604395604395605
535,0.00010898709297180176,1.0,0.47883880138397217,0.8604395604395605
536,0.00010859377653105184,1.0,0.47906363010406494,0.8604395604395605
537,0.00010820522584253922,1.0,0.4792735278606415,0.8604395604395605
538,0.00010781190940178931,1.0,0.47947603464126587,0.8604395604395605
539,0.00010742693848442286,1.0,0.47966468334198,0.8604395604395605
540,0.00010703482257667929,1.0,0.4798479974269867,0.8604395604395605
541,0.00010665104491636157,1.0,0.48003700375556946,0.8604395604395605
542,0.00010627798474160954,1.0,0.4802514612674713,0.8604395604395605
543,0.00010589421435724944,1.0,0.4804632365703583,0.8604395604395605
544,0.00010551282321102917,1.0,0.4806693196296692,0.8604395604395605
545,0.00010514214227441698,1.0,0.48086610436439514,0.8604395604395605
546,0.0001047702826326713,1.0,0.48105499148368835,0.8604395604395605
547,0.00010438889148645103,1.0,0.4812489151954651,0.8604395604395605
548,0.00010402776388218626,1.0,0.48143911361694336,0.8604395604395605
549,0.00010365351045038551,1.0,0.48162686824798584,0.8604395604395605
550,0.00010329475480830297,1.0,0.48179152607917786,0.8604395604395605
551,0.00010293124068994075,1.0,0.4819573163986206,0.8604395604395605
552,0.00010256771929562092,1.0,0.48212575912475586,0.8604395604395605
553,0.00010220181138720363,1.0,0.4823055863380432,0.8604395604395605
554,0.00010184902203036472,1.0,0.48250776529312134,0.8604395604395605
555,0.00010149503941647708,1.0,0.482716828584671,0.8604395604395605
556,0.00010113269672729075,1.0,0.48290377855300903,0.8604395604395605
557,0.00010078587365569547,1.0,0.4830865263938904,0.8604395604395605
558,0.00010043188376585022,1.0,0.483268678188324,0.8604395604395605
559,0.00010007789387600496,1.0,0.48346441984176636,0.8604395604395605
560,9.973464329959825e-05,1.0,0.48364248871803284,0.8604395604395605
561,9.940090967575088e-05,1.0,0.4838065207004547,0.8604395604395605
562,9.904691978590563e-05,1.0,0.483976274728775,0.8604395604395605
563,9.870486246654764e-05,1.0,0.48416510224342346,0.8604395604395605
564,9.836636309046298e-05,1.0,0.48437631130218506,0.8604395604395605
565,9.803145076148212e-05,1.0,0.4845837354660034,0.8604395604395605
566,9.769653843250126e-05,1.0,0.48475027084350586,0.8604395604395605
567,9.735327330417931e-05,1.0,0.4849151372909546,0.8604395604395605
568,9.70326509559527e-05,1.0,0.48507553339004517,0.8604395604395605
569,9.669773135101423e-05,1.0,0.485259473323822,0.8604395604395605
570,9.636520553613082e-05,1.0,0.48543617129325867,0.8604395604395605
571,9.603861690266058e-05,1.0,0.48560863733291626,0.8604395604395605
572,9.571205009706318e-05,1.0,0.48577436804771423,0.8604395604395605
573,9.538666199659929e-05,1.0,0.4859451949596405,0.8604395604395605
574,9.505889465799555e-05,1.0,0.4861089587211609,0.8604395604395605
575,9.474185208091512e-05,1.0,0.48625609278678894,0.8604395604395605
576,9.442600276088342e-05,1.0,0.48637649416923523,0.8604395604395605
577,9.410300117451698e-05,1.0,0.4865081012248993,0.8604395604395605
578,9.378475806443021e-05,1.0,0.48663824796676636,0.8604395604395605
579,9.346533624920994e-05,1.0,0.4867859184741974,0.8604395604395605
580,9.315544593846425e-05,1.0,0.4869420528411865,0.8604395604395605
581,9.284198313253e-05,1.0,0.48710349202156067,0.8604395604395605
582,9.253209282178432e-05,1.0,0.48726484179496765,0.8604395604395605
583,9.221863001585007e-05,1.0,0.48742347955703735,0.8604395604395605
584,9.19111116672866e-05,1.0,0.4875800907611847,0.8604395604395605
585,9.16107528610155e-05,1.0,0.48772624135017395,0.8604395604395605
586,9.130324906436726e-05,1.0,0.487886518239975,0.8604395604395605
587,9.099573799176142e-05,1.0,0.48805877566337585,0.8604395604395605
588,9.069657971849665e-05,1.0,0.4882437288761139,0.8604395604395605
589,9.039740689331666e-05,1.0,0.4883977770805359,0.8604395604395605
590,9.009466884890571e-05,1.0,0.488523006439209,0.8604395604395605
591,8.980264829006046e-05,1.0,0.48867157101631165,0.8604395604395605
592,8.950229675974697e-05,1.0,0.48884841799736023,0.8604395604395605
593,8.920670370571315e-05,1.0,0.4890306890010834,0.8604395604395605
594,8.89146831468679e-05,1.0,0.4892042577266693,0.8604395604395605
595,8.862147660693154e-05,1.0,0.4893406629562378,0.8604395604395605
596,8.83401880855672e-05,1.0,0.4894801080226898,0.8604395604395605
597,8.804698154563084e-05,1.0,0.4896419942378998,0.8604395604395605
598,8.775377500569448e-05,1.0,0.48979270458221436,0.8604395604395605
599,8.74748729984276e-05,1.0,0.4899386167526245,0.8604395604395605
600,8.718285243958235e-05,1.0,0.490092009305954,0.8604395604395605
601,8.690633694641292e-05,1.0,0.49026423692703247,0.8604395604395605
602,8.662504114909098e-05,1.0,0.49044692516326904,0.8604395604395605
603,8.634851837996393e-05,1.0,0.490598201751709,0.8604395604395605
604,8.607438212493435e-05,1.0,0.4907383620738983,0.8604395604395605
605,8.57919076224789e-05,1.0,0.49084991216659546,0.8604395604395605
606,8.55129910632968e-05,1.0,0.4909890592098236,0.8604395604395605
607,8.52376688271761e-05,1.0,0.49114638566970825,0.8604395604395605
608,8.49730713525787e-05,1.0,0.49131789803504944,0.8604395604395605
609,8.46989278215915e-05,1.0,0.4914792478084564,0.8604395604395605
610,8.443074329989031e-05,1.0,0.49162110686302185,0.8604395604395605
611,8.415899355895817e-05,1.0,0.4917964041233063,0.8604395604395605
612,8.389080903725699e-05,1.0,0.4919605255126953,0.8604395604395605
613,8.362501830561087e-05,1.0,0.4921278655529022,0.8604395604395605
614,8.335564052686095e-05,1.0,0.4922657608985901,0.8604395604395605
615,8.309460827149451e-05,1.0,0.49238455295562744,0.8604395604395605
616,8.283239731099457e-05,1.0,0.49252599477767944,0.8604395604395605
617,8.257373701781034e-05,1.0,0.4926927089691162,0.8604395604395605
618,8.231033280026168e-05,1.0,0.492876797914505,0.8604395604395605
619,8.20564673631452e-05,1.0,0.49304166436195374,0.8604395604395605
620,8.179661381291226e-05,1.0,0.4932069182395935,0.8604395604395605
621,8.154392708092928e-05,1.0,0.4933737814426422,0.8604395604395605
622,8.127932233037427e-05,1.0,0.4935420751571655,0.8604395604395605
623,8.102664287434891e-05,1.0,0.49370619654655457,0.8604395604395605
624,8.078348764684051e-05,1.0,0.49388647079467773,0.8604395604395605
625,8.053318742895499e-05,1.0,0.4940754473209381,0.8604395604395605
626,8.02852664492093e-05,1.0,0.49426063895225525,0.8604395604395605
627,8.002424146980047e-05,1.0,0.49442487955093384,0.8604395604395605
628,7.97775064711459e-05,1.0,0.49458640813827515,0.8604395604395605
629,7.953197200549766e-05,1.0,0.4947362542152405,0.8604395604395605
630,7.928762352094054e-05,1.0,0.4948769211769104,0.8604395604395605
631,7.904686208348721e-05,1.0,0.49502646923065186,0.8604395604395605
632,7.880013436079025e-05,1.0,0.4951738715171814,0.8604395604395605
633,7.855579315219074e-05,1.0,0.4952906668186188,0.8604395604395605
634,7.831740367691964e-05,1.0,0.4954202175140381,0.8604395604395605
635,7.808020745869726e-05,1.0,0.4955739974975586,0.8604395604395605
636,7.783944602124393e-05,1.0,0.49572548270225525,0.8604395604395605
637,7.759629079373553e-05,1.0,0.4958619475364685,0.8604395604395605
638,7.73614810896106e-05,1.0,0.4960085451602936,0.8604395604395605
639,7.712667138548568e-05,1.0,0.4961613118648529,0.8604395604395605
640,7.689066842431203e-05,1.0,0.49630722403526306,0.8604395604395605
641,7.6660631748382e-05,1.0,0.4964582622051239,0.8604395604395605
642,7.643178105354309e-05,1.0,0.4966098666191101,0.8604395604395605
643,7.619458483532071e-05,1.0,0.49676650762557983,0.8604395604395605
644,7.597407966386527e-05,1.0,0.496927946805954,0.8604395604395605
645,7.574165647383779e-05,1.0,0.4971011281013489,0.8604395604395605
646,7.551161252195016e-05,1.0,0.4972604215145111,0.8604395604395605
647,7.527680281782523e-05,1.0,0.49740150570869446,0.8604395604395605
648,7.504437235184014e-05,1.0,0.4975450336933136,0.8604395604395605
649,7.482983346562833e-05,1.0,0.49768099188804626,0.8604395604395605
650,7.460574124706909e-05,1.0,0.49781882762908936,0.8604395604395605
651,7.438047032337636e-05,1.0,0.497965008020401,0.8604395604395605
652,7.41647309041582e-05,1.0,0.4981202483177185,0.8604395604395605
653,7.394183921860531e-05,1.0,0.49825987219810486,0.8604395604395605
654,7.372013351414353e-05,1.0,0.4983808100223541,0.8604395604395605
655,7.349724910454825e-05,1.0,0.4985049366950989,0.8604395604395605
656,7.327792991418391e-05,1.0,0.4986444115638733,0.8604395604395605
657,7.30586179997772e-05,1.0,0.4987654685974121,0.8604395604395605
658,7.284883031388745e-05,1.0,0.498890221118927,0.8604395604395605
659,7.263667066581547e-05,1.0,0.49903175234794617,0.8604395604395605
660,7.241735875140876e-05,1.0,0.4991705119609833,0.8604395604395605
661,7.219922554213554e-05,1.0,0.49929434061050415,0.8604395604395605
662,7.198945240816101e-05,1.0,0.4994146525859833,0.8604395604395605
663,7.177727820817381e-05,1.0,0.4995545744895935,0.8604395604395605
664,7.156392530305311e-05,1.0,0.49969086050987244,0.8604395604395605
665,7.135414489312097e-05,1.0,0.4998309910297394,0.8604395604395605
666,7.11527100065723e-05,1.0,0.49998679757118225,0.8604395604395605
667,7.09345840732567e-05,1.0,0.5001329183578491,0.8604395604395605
668,7.073552842484787e-05,1.0,0.5002588033676147,0.8604395604395605
669,7.05340935382992e-05,1.0,0.5003690719604492,0.8604395604395605
670,7.032431312836707e-05,1.0,0.5005027055740356,0.8604395604395605
671,7.012048445176333e-05,1.0,0.5006340146064758,0.8604395604395605
672,6.991666305111721e-05,1.0,0.5007706880569458,0.8604395604395605
673,6.971403490751982e-05,1.0,0.5009264349937439,0.8604395604395605
674,6.950664101168513e-05,1.0,0.5010868906974792,0.8604395604395605
675,6.930997187737375e-05,1.0,0.5012305974960327,0.8604395604395605
676,6.911091622896492e-05,1.0,0.5013618469238281,0.8604395604395605
677,6.890947406645864e-05,1.0,0.5014961361885071,0.8604395604395605
678,6.871041841804981e-05,1.0,0.5016410946846008,0.8604395604395605
679,6.851732905488461e-05,1.0,0.5017778873443604,0.8604395604395605
680,6.831827340647578e-05,1.0,0.5019278526306152,0.8604395604395605
681,6.812159699620679e-05,1.0,0.5020703673362732,0.8604395604395605
682,6.792373460484669e-05,1.0,0.5021994709968567,0.8604395604395605
683,6.773302447982132e-05,1.0,0.5023337602615356,0.8604395604395605
684,6.754350761184469e-05,1.0,0.5024682283401489,0.8604395604395605
685,6.735159695381299e-05,1.0,0.5026162266731262,0.8604395604395605
686,6.715493509545922e-05,1.0,0.5027605891227722,0.8604395604395605
687,6.696421769447625e-05,1.0,0.5028892159461975,0.8604395604395605
688,6.677588680759072e-05,1.0,0.503023087978363,0.8604395604395605
689,6.658874917775393e-05,1.0,0.5031583905220032,0.8604395604395605
690,6.639803905272856e-05,1.0,0.5032706260681152,0.8604395604395605
691,6.621567445108667e-05,1.0,0.5033731460571289,0.8604395604395605
692,6.602615758311003e-05,1.0,0.503492534160614,0.8604395604395605
693,6.583544018212706e-05,1.0,0.5036071538925171,0.8604395604395605
694,6.565188232343644e-05,1.0,0.5037487745285034,0.8604395604395605
695,6.546355871250853e-05,1.0,0.5038942098617554,0.8604395604395605
696,6.528356607304886e-05,1.0,0.5040435194969177,0.8604395604395605
697,6.510238745249808e-05,1.0,0.5042049884796143,0.8604395604395605
698,6.491763633675873e-05,1.0,0.5043618679046631,0.8604395604395605
699,6.47388442303054e-05,1.0,0.5045011639595032,0.8604395604395605
700,6.455885886680335e-05,1.0,0.504656970500946,0.8604395604395605
701,6.437768024625257e-05,1.0,0.5048015713691711,0.8604395604395605
702,6.420366116799414e-05,1.0,0.5049422979354858,0.8604395604395605
703,6.401652353815734e-05,1.0,0.5050641298294067,0.8604395604395605
704,6.384130392689258e-05,1.0,0.5051828026771545,0.8604395604395605
705,6.365773879224434e-05,1.0,0.505327582359314,0.8604395604395605
706,6.348490569507703e-05,1.0,0.5054745078086853,0.8604395604395605
707,6.330373435048386e-05,1.0,0.5056191086769104,0.8604395604395605
708,6.3133287767414e-05,1.0,0.5057519674301147,0.8604395604395605
709,6.296283390838653e-05,1.0,0.5058823823928833,0.8604395604395605
710,6.278284854488447e-05,1.0,0.506019115447998,0.8604395604395605
711,6.261358794290572e-05,1.0,0.506135106086731,0.8604395604395605
712,6.244194810278714e-05,1.0,0.506256103515625,0.8604395604395605
713,6.227030826266855e-05,1.0,0.5063836574554443,0.8604395604395605
714,6.209508137544617e-05,1.0,0.5065230131149292,0.8604395604395605
715,6.192701403051615e-05,1.0,0.506669282913208,0.8604395604395605
716,6.175418093334883e-05,1.0,0.5068053603172302,0.8604395604395605
717,6.159684562589973e-05,1.0,0.5069335103034973,0.8604395604395605
718,6.142401252873242e-05,1.0,0.507057785987854,0.8604395604395605
719,6.125237268861383e-05,1.0,0.507192075252533,0.8604395604395605
720,6.10890710959211e-05,1.0,0.5073444843292236,0.8604395604395605
721,6.0924583522137254e-05,1.0,0.507498562335968,0.8604395604395605
722,6.075889541534707e-05,1.0,0.5076497793197632,0.8604395604395605
723,6.0593218222493306e-05,1.0,0.5077877044677734,0.8604395604395605
724,6.042395762051456e-05,1.0,0.5079217553138733,0.8604395604395605
725,6.0263042541919276e-05,1.0,0.5080700516700745,0.8604395604395605
726,6.0098551330156624e-05,1.0,0.5082064867019653,0.8604395604395605
727,5.9936446632491425e-05,1.0,0.5083456039428711,0.8604395604395605
728,5.977195542072877e-05,1.0,0.5084861516952515,0.8604395604395605
729,5.961222996120341e-05,1.0,0.5086250901222229,0.8604395604395605
730,5.945369412074797e-05,1.0,0.5087847709655762,0.8604395604395605
731,5.929516555625014e-05,1.0,0.5089508891105652,0.8604395604395605
732,5.913067434448749e-05,1.0,0.5090945959091187,0.8604395604395605
733,5.8970952522940934e-05,1.0,0.5092359185218811,0.8604395604395605
734,5.881480319658294e-05,1.0,0.50937819480896,0.8604395604395605
735,5.865865750820376e-05,1.0,0.5095157027244568,0.8604395604395605
736,5.849535591551103e-05,1.0,0.5096643567085266,0.8604395604395605
737,5.8343975979369134e-05,1.0,0.5098159909248352,0.8604395604395605
738,5.819498255732469e-05,1.0,0.5099472403526306,0.8604395604395605
739,5.8028108469443396e-05,1.0,0.5100690722465515,0.8604395604395605
740,5.78719555051066e-05,1.0,0.5102153420448303,0.8604395604395605
741,5.771700307377614e-05,1.0,0.5103811621665955,0.8604395604395605
742,5.7566812756704167e-05,1.0,0.5105312466621399,0.8604395604395605
743,5.7415429182583466e-05,1.0,0.5106874704360962,0.8604395604395605
744,5.7262859627371654e-05,1.0,0.5108522176742554,0.8604395604395605
745,5.711147969122976e-05,1.0,0.5110043287277222,0.8604395604395605
746,5.696248626918532e-05,1.0,0.5111550688743591,0.8604395604395605
747,5.68051436857786e-05,1.0,0.511294424533844,0.8604395604395605
748,5.665018397849053e-05,1.0,0.5114442110061646,0.8604395604395605
749,5.651072569889948e-05,1.0,0.5115975141525269,0.8604395604395605
750,5.635338675347157e-05,1.0,0.5117552876472473,0.8604395604395605
751,5.6212727940874174e-05,1.0,0.511934220790863,0.8604395604395605
752,5.606492777587846e-05,1.0,0.5120869874954224,0.8604395604395605
753,5.5914737458806485e-05,1.0,0.5122308731079102,0.8604395604395605
754,5.5774085922166705e-05,1.0,0.5123723745346069,0.8604395604395605
755,5.562628575717099e-05,1.0,0.5125237703323364,0.8604395604395605
756,5.547728142119013e-05,1.0,0.5126678347587585,0.8604395604395605
757,5.5336633522529155e-05,1.0,0.5128076076507568,0.8604395604395605
758,5.519001933862455e-05,1.0,0.5129426717758179,0.8604395604395605
759,5.505532681127079e-05,1.0,0.513089120388031,0.8604395604395605
760,5.490870898938738e-05,1.0,0.5132330060005188,0.8604395604395605
761,5.476210208144039e-05,1.0,0.513370931148529,0.8604395604395605
762,5.46166738786269e-05,1.0,0.5135077834129333,0.8604395604395605
763,5.4484371503349394e-05,1.0,0.513640284538269,0.8604395604395605
764,5.434252670966089e-05,1.0,0.513774037361145,0.8604395604395605
765,5.419829903985374e-05,1.0,0.5139124393463135,0.8604395604395605
766,5.405764022725634e-05,1.0,0.5140424370765686,0.8604395604395605
767,5.391460581449792e-05,1.0,0.5141887068748474,0.8604395604395605
768,5.378110290621407e-05,1.0,0.5143229365348816,0.8604395604395605
769,5.364283424569294e-05,1.0,0.5144442915916443,0.8604395604395605
770,5.350337232812308e-05,1.0,0.5145552754402161,0.8604395604395605
771,5.3366289648693055e-05,1.0,0.514656126499176,0.8604395604395605
772,5.323041114024818e-05,1.0,0.5147797465324402,0.8604395604395605
773,5.31004807271529e-05,1.0,0.5149187445640564,0.8604395604395605
774,5.296340532368049e-05,1.0,0.5150511860847473,0.8604395604395605
775,5.2825136663159356e-05,1.0,0.5151851773262024,0.8604395604395605
776,5.269878602121025e-05,1.0,0.5153343081474304,0.8604395604395605
777,5.255693758954294e-05,1.0,0.515471875667572,0.8604395604395605
778,5.242463157628663e-05,1.0,0.5156095027923584,0.8604395604395605
779,5.229351154412143e-05,1.0,0.5157642364501953,0.8604395604395605
780,5.216597128310241e-05,1.0,0.51593017578125,0.8604395604395605
781,5.202531610848382e-05,1.0,0.5160872340202332,0.8604395604395605
782,5.1901348342653364e-05,1.0,0.5162463784217834,0.8604395604395605
783,5.176784179639071e-05,1.0,0.516398012638092,0.8604395604395605
784,5.1636732678161934e-05,1.0,0.5165445804595947,0.8604395604395605
785,5.150084325578064e-05,1.0,0.5166563391685486,0.8604395604395605
786,5.137210609973408e-05,1.0,0.5167785286903381,0.8604395604395605
787,5.124695599079132e-05,1.0,0.5169146060943604,0.8604395604395605
788,5.1122988224960864e-05,1.0,0.5170648694038391,0.8604395604395605
789,5.099067493574694e-05,1.0,0.517206609249115,0.8604395604395605
790,5.086551755084656e-05,1.0,0.5173588395118713,0.8604395604395605
791,5.073678039480001e-05,1.0,0.5175025463104248,0.8604395604395605
792,5.061758201918565e-05,1.0,0.5176223516464233,0.8604395604395605
793,5.0490041758166626e-05,1.0,0.5177433490753174,0.8604395604395605
794,5.0355345592834055e-05,1.0,0.5178717970848083,0.8604395604395605
795,5.0236147217219695e-05,1.0,0.5179901123046875,0.8604395604395605
796,5.011217945138924e-05,1.0,0.5181121230125427,0.8604395604395605
797,4.9990594561677426e-05,1.0,0.5182492136955261,0.8604395604395605
798,4.986424755770713e-05,1.0,0.518387496471405,0.8604395604395605
799,4.974266266799532e-05,1.0,0.5185208916664124,0.8604395604395605
800,4.961750892107375e-05,1.0,0.5186570286750793,0.8604395604395605
801,4.949354115524329e-05,1.0,0.5188093781471252,0.8604395604395605
802,4.9370763008482754e-05,1.0,0.5189751982688904,0.8604395604395605
803,4.925514440401457e-05,1.0,0.5191381573677063,0.8604395604395605
804,4.913713564747013e-05,1.0,0.5192989110946655,0.8604395604395605
805,4.901555075775832e-05,1.0,0.5194555521011353,0.8604395604395605
806,4.889277624897659e-05,1.0,0.519597589969635,0.8604395604395605
807,4.87723846163135e-05,1.0,0.519732654094696,0.8604395604395605
808,4.865199662162922e-05,1.0,0.5198711156845093,0.8604395604395605
809,4.8537563998252153e-05,1.0,0.520007312297821,0.8604395604395605
810,4.842074849875644e-05,1.0,0.5201517939567566,0.8604395604395605
811,4.829917088500224e-05,1.0,0.520279049873352,0.8604395604395605
812,4.818473826162517e-05,1.0,0.520431637763977,0.8604395604395605
813,4.805957723874599e-05,1.0,0.5205643773078918,0.8604395604395605
814,4.794753112946637e-05,1.0,0.520702600479126,0.8604395604395605
815,4.78378678963054e-05,1.0,0.5208381414413452,0.8604395604395605
816,4.772105239680968e-05,1.0,0.5209723711013794,0.8604395604395605
817,4.759708826895803e-05,1.0,0.5210962891578674,0.8604395604395605
818,4.748742139781825e-05,1.0,0.5212137699127197,0.8604395604395605
819,4.737537165055983e-05,1.0,0.5213591456413269,0.8604395604395605
820,4.726094630314037e-05,1.0,0.5214999914169312,0.8604395604395605
821,4.7146510041784495e-05,1.0,0.5216271877288818,0.8604395604395605
822,4.703208105638623e-05,1.0,0.5217580795288086,0.8604395604395605
823,4.6916455175960436e-05,1.0,0.5218862295150757,0.8604395604395605
824,4.6811557695036754e-05,1.0,0.5220366716384888,0.8604395604395605
825,4.669474219554104e-05,1.0,0.5221922397613525,0.8604395604395605
826,4.658627221942879e-05,1.0,0.5223332047462463,0.8604395604395605
827,4.647542300517671e-05,1.0,0.5224764347076416,0.8604395604395605
828,4.636098674382083e-05,1.0,0.5226391553878784,0.8604395604395605
829,4.625013025361113e-05,1.0,0.5228015780448914,0.8604395604395605
830,4.614046702045016e-05,1.0,0.5229343175888062,0.8604395604395605
831,4.603318666340783e-05,1.0,0.523055911064148,0.8604395604395605
832,4.592948607751168e-05,1.0,0.5231871008872986,0.8511586452762923
833,4.58090944448486e-05,1.0,0.5233321189880371,0.8511586452762923
834,4.5707773097092286e-05,1.0,0.5234823226928711,0.8511586452762923
835,4.559929948300123e-05,1.0,0.5236372351646423,0.8511586452762923
836,4.5486063754651695e-05,1.0,0.523790717124939,0.8511586452762923
837,4.5379976654658094e-05,1.0,0.523932158946991,0.8511586452762923
838,4.527508281171322e-05,1.0,0.524044930934906,0.8511586452762923
839,4.5170185330789536e-05,1.0,0.5241851806640625,0.8511586452762923
840,4.505694596446119e-05,1.0,0.5243284702301025,0.8511586452762923
841,4.495323446462862e-05,1.0,0.5244652628898621,0.8511586452762923
842,4.485072349780239e-05,1.0,0.5245996117591858,0.8511586452762923
843,4.475298192119226e-05,1.0,0.5247451066970825,0.8511586452762923
844,4.4636166421696544e-05,1.0,0.5248998403549194,0.8511586452762923
845,4.4528886064654216e-05,1.0,0.5250190496444702,0.8511586452762923
846,4.4437107135308906e-05,1.0,0.5251402258872986,0.8511586452762923
847,4.4322674511931837e-05,1.0,0.5252568125724792,0.8511586452762923
848,4.4222542783245444e-05,1.0,0.5254053473472595,0.8511586452762923
849,4.412122507346794e-05,1.0,0.5255649089813232,0.8511586452762923
850,4.402347622090019e-05,1.0,0.525701105594635,0.8511586452762923
851,4.3911430111620575e-05,1.0,0.5258404612541199,0.8511586452762923
852,4.381011240184307e-05,1.0,0.5259832739830017,0.8511586452762923
853,4.371594695840031e-05,1.0,0.5261226892471313,0.8511586452762923
854,4.3612239096546546e-05,1.0,0.5262584090232849,0.8511586452762923
855,4.3510917748790234e-05,1.0,0.5263748168945312,0.8511586452762923
856,4.340841041994281e-05,1.0,0.5264965891838074,0.8511586452762923
857,4.3310661567375064e-05,1.0,0.5266340374946594,0.8511586452762923
858,4.321291999076493e-05,1.0,0.5267496109008789,0.8511586452762923
859,4.311278826207854e-05,1.0,0.5268571972846985,0.8511586452762923
860,4.3011470552301034e-05,1.0,0.5269759893417358,0.8511586452762923
861,4.291491859476082e-05,1.0,0.5270935893058777,0.8511586452762923
862,4.281002111383714e-05,1.0,0.5272272229194641,0.8511586452762923
863,4.2717045289464295e-05,1.0,0.5273571014404297,0.8511586452762923
864,4.262049696990289e-05,1.0,0.5274674296379089,0.8511586452762923
865,4.2517978727119043e-05,1.0,0.5275688171386719,0.8511586452762923
866,4.2426199797773734e-05,1.0,0.5277004241943359,0.8511586452762923
867,4.232964420225471e-05,1.0,0.5278334021568298,0.8511586452762923
868,4.223190262564458e-05,1.0,0.527934193611145,0.8511586452762923
869,4.213892316329293e-05,1.0,0.5280397534370422,0.8511586452762923
870,4.2041181586682796e-05,1.0,0.5281432867050171,0.8511586452762923
871,4.193985660094768e-05,1.0,0.5282851457595825,0.8511586452762923
872,4.1854036680888385e-05,1.0,0.5284239649772644,0.8511586452762923
873,4.17539085901808e-05,1.0,0.5285475254058838,0.8511586452762923
874,4.166450889897533e-05,1.0,0.5286646485328674,0.8511586452762923
875,4.156318391324021e-05,1.0,0.5287708640098572,0.8511586452762923
876,4.1474977479083464e-05,1.0,0.5289119482040405,0.8511586452762923
877,4.1379618778591976e-05,1.0,0.5290622115135193,0.8511586452762923
878,4.1285449697170407e-05,1.0,0.5291803479194641,0.8511586452762923
879,4.1197239625034854e-05,1.0,0.5293086171150208,0.8511586452762923
880,4.110545705771074e-05,1.0,0.5294234156608582,0.8511586452762923
881,4.1017246985575184e-05,1.0,0.5295301079750061,0.8511586452762923
882,4.0918312151916325e-05,1.0,0.5296412110328674,0.8511586452762923
883,4.083010207978077e-05,1.0,0.5297558307647705,0.8511586452762923
884,4.0738319512456656e-05,1.0,0.5298570394515991,0.8511586452762923
885,4.0642964449943975e-05,1.0,0.5299581289291382,0.8511586452762923
886,4.0553561120759696e-05,1.0,0.530076265335083,0.8511586452762923
887,4.0460581658408046e-05,1.0,0.5302149653434753,0.8511586452762923
888,4.0373568481300026e-05,1.0,0.5303465723991394,0.8511586452762923
889,4.027939939987846e-05,1.0,0.5304474830627441,0.8511586452762923
890,4.0199531213147566e-05,1.0,0.5305624008178711,0.8511586452762923
891,4.010178963653743e-05,1.0,0.5306857228279114,0.8511586452762923
892,4.0011196688283235e-05,1.0,0.5307976603507996,0.8511586452762923
893,3.992536949226633e-05,1.0,0.5309277772903442,0.8511586452762923
894,3.983835631515831e-05,1.0,0.5310558080673218,0.8511586452762923
895,3.975133950007148e-05,1.0,0.5311606526374817,0.8511586452762923
896,3.9660742913838476e-05,1.0,0.5312876105308533,0.8511586452762923
897,3.9578499126946554e-05,1.0,0.5314099788665771,0.8511586452762923
898,3.9490289054811e-05,1.0,0.5315158367156982,0.8511586452762923
899,3.9399692468577996e-05,1.0,0.5316212773323059,0.8511586452762923
900,3.9317448681686074e-05,1.0,0.5317351222038269,0.8511586452762923
901,3.9224469219334424e-05,1.0,0.5318624377250671,0.8511586452762923
902,3.913864566129632e-05,1.0,0.5320001244544983,0.8511586452762923
903,3.905162520823069e-05,1.0,0.5321183204650879,0.8511586452762923
904,3.8974150811554864e-05,1.0,0.5322360992431641,0.8511586452762923
905,3.888713035848923e-05,1.0,0.5323490500450134,0.8511586452762923
906,3.880130680045113e-05,1.0,0.5324633121490479,0.8511586452762923
907,3.871190710924566e-05,1.0,0.5325775146484375,0.8511586452762923
908,3.862965604639612e-05,1.0,0.5327056646347046,0.8511586452762923
909,3.855217801174149e-05,1.0,0.532828688621521,0.8511586452762923
910,3.846396430162713e-05,1.0,0.5329398512840271,0.8511586452762923
911,3.8375757867470384e-05,1.0,0.5330452919006348,0.8511586452762923
912,3.829350680462085e-05,1.0,0.5331709980964661,0.8511586452762923
913,3.821483551291749e-05,1.0,0.533301055431366,0.8511586452762923
914,3.813258808804676e-05,1.0,0.5334419012069702,0.8511586452762923
915,3.8045567634981126e-05,1.0,0.5335832238197327,0.8511586452762923
916,3.796093733399175e-05,1.0,0.5337317585945129,0.8511586452762923
917,3.787511013797484e-05,1.0,0.5338629484176636,0.8511586452762923
918,3.779882536036894e-05,1.0,0.5339851379394531,0.8511586452762923
919,3.772253330680542e-05,1.0,0.5341126322746277,0.8511586452762923
920,3.7645055272150785e-05,1.0,0.5342269539833069,0.8511586452762923
921,3.755326906684786e-05,1.0,0.5343378186225891,0.8511586452762923
922,3.747340088011697e-05,1.0,0.5344789624214172,0.8511586452762923
923,3.738638406503014e-05,1.0,0.5346363186836243,0.8511586452762923
924,3.73136717826128e-05,1.0,0.5347804427146912,0.8511586452762923
925,3.724334601429291e-05,1.0,0.53490149974823,0.8511586452762923
926,3.715513594215736e-05,1.0,0.5350245833396912,0.8511586452762923
927,3.707765426952392e-05,1.0,0.5351574420928955,0.8511586452762923
928,3.6997789720771834e-05,1.0,0.5352900624275208,0.8511586452762923
929,3.691792517201975e-05,1.0,0.5354093909263611,0.8511586452762923
930,3.683805698528886e-05,1.0,0.5355233550071716,0.8511586452762923
931,3.6765344702871516e-05,1.0,0.5356499552726746,0.8511586452762923
932,3.6680710763903335e-05,1.0,0.5357840061187744,0.8511586452762923
933,3.659727008198388e-05,1.0,0.5359156131744385,0.8511586452762923
934,3.652217492344789e-05,1.0,0.5360507369041443,0.8511586452762923
935,3.64470761269331e-05,1.0,0.5361819267272949,0.8511586452762923
936,3.6366021959111094e-05,1.0,0.5363022685050964,0.8511586452762923
937,3.629450293374248e-05,1.0,0.5364089012145996,0.8511586452762923
938,3.6211058613844216e-05,1.0,0.5365288853645325,0.8511586452762923
939,3.613596345530823e-05,1.0,0.5366718173027039,0.8511586452762923
940,3.6065630411030725e-05,1.0,0.5368013381958008,0.8511586452762923
941,3.5986962757306173e-05,1.0,0.5368979573249817,0.8511586452762923
942,3.59130535798613e-05,1.0,0.5369872450828552,0.8511586452762923
943,3.583557190722786e-05,1.0,0.5370891690254211,0.8511586452762923
944,3.5755707358475775e-05,1.0,0.5372154116630554,0.8511586452762923
945,3.568299507605843e-05,1.0,0.5373406410217285,0.8511586452762923
946,3.561743505997583e-05,1.0,0.5374512076377869,0.8511586452762923
947,3.552922498784028e-05,1.0,0.5375723242759705,0.8511586452762923
948,3.54648545908276e-05,1.0,0.5376976132392883,0.8511586452762923
949,3.538260716595687e-05,1.0,0.5378210544586182,0.8511586452762923
950,3.531227775965817e-05,1.0,0.5379281640052795,0.8511586452762923
951,3.5238372220192105e-05,1.0,0.5380488038063049,0.8511586452762923
952,3.516327342367731e-05,1.0,0.5381775498390198,0.8511586452762923
953,3.508817826514132e-05,1.0,0.5382900834083557,0.8511586452762923
954,3.5017848858842626e-05,1.0,0.5383924245834351,0.8511586452762923
955,3.493917392916046e-05,1.0,0.5385037660598755,0.8511586452762923
956,3.4871231036959216e-05,1.0,0.5386203527450562,0.8511586452762923
957,3.47949426213745e-05,1.0,0.5387411713600159,0.8511586452762923
958,3.472580647212453e-05,1.0,0.538863480091095,0.8511586452762923
959,3.4656666684895754e-05,1.0,0.5389737486839294,0.8511586452762923
960,3.457680213614367e-05,1.0,0.5390743017196655,0.8511586452762923
961,3.4508859243942425e-05,1.0,0.5391911864280701,0.8511586452762923
962,3.4434953704476357e-05,1.0,0.5393046736717224,0.8511586452762923
963,3.437296982156113e-05,1.0,0.5394206643104553,0.8511586452762923
964,3.4301447158213705e-05,1.0,0.5395341515541077,0.8511586452762923
965,3.422754161874764e-05,1.0,0.5396456718444824,0.8511586452762923
966,3.4156018955400214e-05,1.0,0.539772629737854,0.8511586452762923
967,3.408926568226889e-05,1.0,0.5398984551429749,0.8511586452762923
968,3.4014166885754094e-05,1.0,0.5400192737579346,0.8511586452762923
969,3.394622399355285e-05,1.0,0.5401411056518555,0.8511586452762923
970,3.38782774633728e-05,1.0,0.540263831615448,0.8511586452762923
971,3.38079480570741e-05,1.0,0.5403810143470764,0.8511586452762923
972,3.3740005164872855e-05,1.0,0.5405058264732361,0.8511586452762923
973,3.36720586346928e-05,1.0,0.5406373739242554,0.8511586452762923
974,3.3601729228394106e-05,1.0,0.5407663583755493,0.8511586452762923
975,3.353855208843015e-05,1.0,0.5409023761749268,0.8511586452762923
976,3.3468222682131454e-05,1.0,0.5410212874412537,0.8511586452762923
977,3.340027978993021e-05,1.0,0.5411186814308167,0.8511586452762923
978,3.3329946745652705e-05,1.0,0.5412247180938721,0.8511586452762923
979,3.3260810596402735e-05,1.0,0.5413461327552795,0.8511586452762923
980,3.3183328923769295e-05,1.0,0.541481077671051,0.8511586452762923
981,3.3121345040854067e-05,1.0,0.541612446308136,0.8511586452762923
982,3.305816790089011e-05,1.0,0.5417506098747253,0.8511586452762923
983,3.299498712294735e-05,1.0,0.5418791174888611,0.8511586452762923
984,3.292108522146009e-05,1.0,0.5419968366622925,0.8511586452762923
985,3.2861484214663506e-05,1.0,0.5421003699302673,0.8511586452762923
986,3.279234442743473e-05,1.0,0.5422232151031494,0.8511586452762923
987,3.273393667768687e-05,1.0,0.5423396825790405,0.8511586452762923
988,3.265764826210216e-05,1.0,0.5424565076828003,0.8511586452762923
989,3.2589701731922105e-05,1.0,0.5425843000411987,0.8511586452762923
990,3.252175520174205e-05,1.0,0.5426957011222839,0.8511586452762923
991,3.246573032811284e-05,1.0,0.5428122282028198,0.8511586452762923
992,3.23930180456955e-05,1.0,0.5429330468177795,0.8511586452762923
993,3.2338182791136205e-05,1.0,0.5430459976196289,0.8511586452762923
994,3.226785338483751e-05,1.0,0.5431506633758545,0.8511586452762923
995,3.220586950192228e-05,1.0,0.5432736277580261,0.8511586452762923
996,3.214030948583968e-05,1.0,0.543410062789917,0.8511586452762923
997,3.2081898098113015e-05,1.0,0.543540358543396,0.8511586452762923
998,3.200918581569567e-05,1.0,0.5436491966247559,0.8511586452762923
999,3.194719829480164e-05,1.0,0.5437659025192261,0.8511586452762923
