,loss,recall,val_loss,val_recall
0,1.7224769592285156,0.08647586980920315,1.778861403465271,0.09489475686389642
1,1.362471342086792,0.32434889976008396,1.7452495098114014,0.13764207082393642
2,1.146407127380371,0.3437450980392157,1.7049856185913086,0.13950116929555004
3,0.9940875768661499,0.38482843137254896,1.6536043882369995,0.1494904856317919
4,0.8774524331092834,0.42575944170771757,1.558984637260437,0.1525783406065249
5,0.778060257434845,0.44426406926406925,1.406067132949829,0.18191396095464318
6,0.6884185671806335,0.5481481481481482,1.2069050073623657,0.38478497719757326
7,0.6081799268722534,0.5477462352462352,1.0032119750976562,0.4014622519764414
8,0.5373592376708984,0.5736721611721611,0.8200553059577942,0.40589114515443125
9,0.4755493402481079,0.5902364066193853,0.6657906174659729,0.40364050552221903
10,0.4212988615036011,0.649766081871345,0.5534267425537109,0.5031320942421376
11,0.3740687966346741,0.6719883040935672,0.48109060525894165,0.5668168902953054
12,0.33290302753448486,0.7969883040935672,0.4337639808654785,0.5632529427377659
13,0.29693904519081116,0.7965277777777777,0.40021467208862305,0.5394873931190823
14,0.26628756523132324,0.7965277777777777,0.3763158619403839,0.5374299248267054
15,0.23994535207748413,0.7965277777777777,0.35644981265068054,0.5377955616223854
16,0.21685278415679932,0.9215277777777777,0.33953264355659485,0.5381803076577925
17,0.19695967435836792,0.9234687298517086,0.32740727066993713,0.5526106114221787
18,0.17971506714820862,0.9248188405797102,0.31864944100379944,0.5523918413730852
19,0.16439411044120789,0.9256410256410257,0.31166204810142517,0.5664638632464045
20,0.15085233747959137,0.9423076923076923,0.3068293631076813,0.5664638632464045
21,0.1387399286031723,0.9423076923076923,0.3023001551628113,0.5665518683649281
22,0.1279948353767395,0.9423076923076923,0.29884663224220276,0.5457419067722659
23,0.1181725412607193,0.9423076923076923,0.29611578583717346,0.5564369170659456
24,0.10943305492401123,0.9423076923076923,0.2937926948070526,0.5564595194186449
25,0.10168878734111786,0.9438576779026218,0.29217126965522766,0.5564468921048813
26,0.09452194720506668,0.9472222222222222,0.28896042704582214,0.5562255616666507
27,0.0875772088766098,0.9965277777777778,0.29014676809310913,0.5495022784285506
28,0.08082418143749237,0.997191011235955,0.28763848543167114,0.5285019457056168
29,0.07477869838476181,0.9985632183908046,0.28790003061294556,0.5215814790819473
30,0.06912646442651749,0.9985632183908046,0.28739261627197266,0.52166778765173
31,0.06392966210842133,0.9985632183908046,0.28808829188346863,0.5078231695397281
32,0.05920843034982681,0.9985632183908046,0.2891664505004883,0.5077082875244235
33,0.05493555963039398,0.9992732558139534,0.2896633744239807,0.5087093205917728
34,0.05115380510687828,0.9992732558139534,0.290161669254303,0.5365388142255659
35,0.04787084460258484,1.0,0.29072439670562744,0.5364886310413446
36,0.044847361743450165,1.0,0.2891291379928589,0.5364448170510792
37,0.04141730070114136,1.0,0.2941250205039978,0.5368326683904443
38,0.03804755210876465,1.0,0.29124340415000916,0.5367366519679724
39,0.03522578626871109,1.0,0.29391151666641235,0.5366542196466412
40,0.0329078808426857,1.0,0.29373371601104736,0.5227140719399287
41,0.030680056661367416,1.0,0.2928672134876251,0.5228380175295605
42,0.028620373457670212,1.0,0.2956387400627136,0.5228658645511305
43,0.026759298518300056,1.0,0.2952544689178467,0.522827262270952
44,0.025062624365091324,1.0,0.295667827129364,0.522810694485473
45,0.023516656830906868,1.0,0.2970373034477234,0.5149794127009144
46,0.022083885967731476,1.0,0.29739198088645935,0.5219238571453588
47,0.020802456885576248,1.0,0.29798436164855957,0.5219344910390513
48,0.0195913203060627,1.0,0.29866117238998413,0.5219463075941158
49,0.018502196297049522,1.0,0.29957646131515503,0.5289910142812678
50,0.01749959960579872,1.0,0.3005002439022064,0.5289485453092012
51,0.01657349243760109,1.0,0.3015119135379791,0.5289829002861803
52,0.015719886869192123,1.0,0.30203667283058167,0.5290374227838848
53,0.014936890453100204,1.0,0.30279162526130676,0.5291311235565171
54,0.014205992221832275,1.0,0.3032096326351166,0.529031568999846
55,0.013538260012865067,1.0,0.30370059609413147,0.5068495007930256
56,0.012893659994006157,1.0,0.30397871136665344,0.504715849900675
57,0.012302041985094547,1.0,0.30494630336761475,0.515959036089679
58,0.011742409318685532,1.0,0.30505481362342834,0.5125287516863555
59,0.011227129027247429,1.0,0.30586332082748413,0.5125287516863555
60,0.010748938657343388,1.0,0.30662092566490173,0.5124824578755428
61,0.01030072569847107,1.0,0.30724409222602844,0.512441492667911
62,0.009885037317872047,1.0,0.3080008029937744,0.5098618842294322
63,0.00947804655879736,1.0,0.3081543743610382,0.5098194152573656
64,0.009102532640099525,1.0,0.3091539740562439,0.5098567090495947
65,0.00874792505055666,1.0,0.30999991297721863,0.5098528630436719
66,0.008416729979217052,1.0,0.310482382774353,0.5107787889695978
67,0.008108915761113167,1.0,0.31123948097229004,0.5107787889695978
68,0.007809953764081001,1.0,0.31191959977149963,0.5107787889695978
69,0.007527295500040054,1.0,0.31265971064567566,0.5107787889695978
70,0.007261552382260561,1.0,0.3131343424320221,0.510737823761966
71,0.007014488335698843,1.0,0.31383663415908813,0.510737823761966
72,0.006780659314244986,1.0,0.314706951379776,0.5106569566109234
73,0.006552434526383877,1.0,0.31516027450561523,0.5106569566109234
74,0.006336552556604147,1.0,0.31593623757362366,0.5106569566109234
75,0.006129244342446327,1.0,0.31629234552383423,0.5106569566109234
76,0.005936117842793465,1.0,0.31697550415992737,0.5162610044958741
77,0.005753817968070507,1.0,0.3175720274448395,0.5163028057281515
78,0.005576412193477154,1.0,0.31803128123283386,0.5163441632266452
79,0.0054087089374661446,1.0,0.31882357597351074,0.5163432852943514
80,0.005248574540019035,1.0,0.3192390501499176,0.5163432852943514
81,0.005095889791846275,1.0,0.31993404030799866,0.5163412732866897
82,0.004950282629579306,1.0,0.3206043839454651,0.5163412732866897
83,0.00481265876442194,1.0,0.32117921113967896,0.5163839364000451
84,0.004678348544985056,1.0,0.3218074142932892,0.5163799857047227
85,0.00455089844763279,1.0,0.3223709166049957,0.5163839364000451
86,0.004425659775733948,1.0,0.3227446675300598,0.5163764244511614
87,0.004308604169636965,1.0,0.3234198987483978,0.5302653133400503
88,0.004194698762148619,1.0,0.3239404559135437,0.5302653133400503
89,0.004086117260158062,1.0,0.3246082365512848,0.5303088652682671
90,0.003981799352914095,1.0,0.3251548409461975,0.5303088652682671
91,0.0038811038248240948,1.0,0.32577285170555115,0.5303088652682671
92,0.0037845897022634745,1.0,0.3262159824371338,0.5303088652682671
93,0.0036908849142491817,1.0,0.3266037702560425,0.5303532008491072
94,0.0036011571064591408,1.0,0.3272464871406555,0.5303976696600234
95,0.0035148924216628075,1.0,0.32782214879989624,0.5303532008491072
96,0.0034317527897655964,1.0,0.32826465368270874,0.5303976696600234
97,0.003352323779836297,1.0,0.3286474943161011,0.5303976696600234
98,0.0032744985073804855,1.0,0.32943692803382874,0.530355606630191
99,0.0031994273886084557,1.0,0.3301486372947693,0.5304016203553457
100,0.003126441966742277,1.0,0.330522745847702,0.5303595573255133
101,0.0030566658824682236,1.0,0.33100172877311707,0.5303595573255133
102,0.0029891058802604675,1.0,0.3313124477863312,0.5303595573255133
103,0.0029237382113933563,1.0,0.331838458776474,0.5304098643539757
104,0.0028604320250451565,1.0,0.332276314496994,0.5304098643539757
105,0.002799714682623744,1.0,0.3326640725135803,0.5304098643539757
106,0.002740986878052354,1.0,0.33321279287338257,0.5357203218703156
107,0.0026838714256882668,1.0,0.3334900438785553,0.5357154062403999
108,0.0026283625047653913,1.0,0.33402392268180847,0.5357203218703156
109,0.0025746291503310204,1.0,0.3345318138599396,0.5356705546818084
110,0.002521900925785303,1.0,0.3348178267478943,0.535684988682179
111,0.0024713613092899323,1.0,0.33529993891716003,0.5356754703117239
112,0.002422250807285309,1.0,0.3357754051685333,0.5356881614723306
113,0.00237463996745646,1.0,0.3362240195274353,0.5356881614723306
114,0.0023283527698367834,1.0,0.33653903007507324,0.535684988682179
115,0.002283399924635887,1.0,0.3370305597782135,0.535684988682179
116,0.00223988713696599,1.0,0.33751335740089417,0.535684988682179
117,0.002197584602981806,1.0,0.33808836340904236,0.535684988682179
118,0.0021568438969552517,1.0,0.3385460376739502,0.535684988682179
119,0.0021162796765565872,1.0,0.33876103162765503,0.535684988682179
120,0.002077320357784629,1.0,0.3392684757709503,0.5356806760323143
121,0.002039459068328142,1.0,0.3398172855377197,0.5357260909881436
122,0.0020026396960020065,1.0,0.34010669589042664,0.5356806760323143
123,0.001967186573892832,1.0,0.3405546247959137,0.5357260909881436
124,0.0019321844447404146,1.0,0.3410886824131012,0.5357260909881436
125,0.0018980863969773054,1.0,0.34141406416893005,0.535721175358228
126,0.001865220838226378,1.0,0.3418809771537781,0.535721175358228
127,0.0018330784514546394,1.0,0.34231582283973694,0.535721175358228
128,0.0018017962574958801,1.0,0.3424837291240692,0.535721175358228
129,0.0017708814702928066,1.0,0.3428925573825836,0.535721175358228
130,0.001741174841299653,1.0,0.34325888752937317,0.535721175358228
131,0.0017124149017035961,1.0,0.34353163838386536,0.535721175358228
132,0.0016839143354445696,1.0,0.3439826965332031,0.535721175358228
133,0.0016563108656555414,1.0,0.34438595175743103,0.535721175358228
134,0.0016292621148750186,1.0,0.34473133087158203,0.535721175358228
135,0.0016030613332986832,1.0,0.34511294960975647,0.535721175358228
136,0.001577513525262475,1.0,0.34538793563842773,0.535721175358228
137,0.0015525028575211763,1.0,0.34567171335220337,0.535721175358228
138,0.0015282591339200735,1.0,0.34609898924827576,0.5357358673665419
139,0.0015042548766359687,1.0,0.34649747610092163,0.5357358673665419
140,0.0014809174463152885,1.0,0.34683552384376526,0.5357358673665419
141,0.0014580629067495465,1.0,0.3471243381500244,0.5357358673665419
142,0.0014359368942677975,1.0,0.34750425815582275,0.5357358673665419
143,0.0014141809660941362,1.0,0.3478461802005768,0.5357358673665419
144,0.0013929014094173908,1.0,0.348137229681015,0.5357358673665419
145,0.0013723571319133043,1.0,0.34841933846473694,0.5357358673665419
146,0.0013520721113309264,1.0,0.34868088364601135,0.5357358673665419
147,0.0013320253929123282,1.0,0.34912189841270447,0.5357358673665419
148,0.0013126754201948643,1.0,0.3496013581752777,0.5357358673665419
149,0.0012935725972056389,1.0,0.3497883081436157,0.5357358673665419
150,0.0012749989982694387,1.0,0.3501116633415222,0.5357358673665419
151,0.0012568089878186584,1.0,0.3504107892513275,0.5357358673665419
152,0.0012390646152198315,1.0,0.350781112909317,0.5357358673665419
153,0.0012216015020385385,1.0,0.3512793481349945,0.5357358673665419
154,0.0012043995084241033,1.0,0.3515233099460602,0.535777642436872
155,0.0011877135839313269,1.0,0.35176482796669006,0.535772637431867
156,0.0011714643333107233,1.0,0.35211342573165894,0.535772637431867
157,0.0011553714284673333,1.0,0.3522983193397522,0.5357153945547046
158,0.0011397053021937609,1.0,0.3526814877986908,0.5357153945547046
159,0.0011243249755352736,1.0,0.35314592719078064,0.5357153945547046
160,0.0011092103086411953,1.0,0.3533375561237335,0.5357103895496996
161,0.0010945005342364311,1.0,0.3535819351673126,0.5357103895496996
162,0.0010801854077726603,1.0,0.35391971468925476,0.5357103895496996
163,0.001065923715941608,1.0,0.3541581332683563,0.5357103895496996
164,0.0010520273353904486,1.0,0.35451123118400574,0.5357103895496996
165,0.0010384221095591784,1.0,0.3547306954860687,0.5357103895496996
166,0.001025092089548707,1.0,0.3550601005554199,0.5357103895496996
167,0.0010119980433955789,1.0,0.35538068413734436,0.5357052927097405
168,0.0009992718696594238,1.0,0.35570523142814636,0.542649737154185
169,0.0009867502376437187,1.0,0.355866402387619,0.542649737154185
170,0.0009743301197886467,1.0,0.3561730682849884,0.542649737154185
171,0.0009621383505873382,1.0,0.35650768876075745,0.542649737154185
172,0.0009501833119429648,1.0,0.35678625106811523,0.542649737154185
173,0.0009385505691170692,1.0,0.35710442066192627,0.542649737154185
174,0.0009270603768527508,1.0,0.3573623597621918,0.542696128775731
175,0.0009157641907222569,1.0,0.35765644907951355,0.542696128775731
176,0.0009046973427757621,1.0,0.3580309748649597,0.542649737154185
177,0.000893761869519949,1.0,0.35827893018722534,0.542696128775731
178,0.0008830800652503967,1.0,0.3585257828235626,0.542696128775731
179,0.0008725730003789067,1.0,0.35874325037002563,0.542696128775731
180,0.0008623249595984817,1.0,0.3590426743030548,0.542696128775731
181,0.0008521213894709945,1.0,0.35926151275634766,0.542696128775731
182,0.0008422816172242165,1.0,0.3596327304840088,0.542696128775731
183,0.0008324171649292111,1.0,0.35993874073028564,0.542696128775731
184,0.0008227579528465867,1.0,0.36014190316200256,0.542696128775731
185,0.0008132432121783495,1.0,0.36044564843177795,0.542696128775731
186,0.0008039088570512831,1.0,0.3607107102870941,0.542696128775731
187,0.0007947457488626242,1.0,0.36100468039512634,0.542696128775731
188,0.0007857821765355766,1.0,0.36132341623306274,0.542696128775731
189,0.000776949804276228,1.0,0.36160311102867126,0.542696128775731
190,0.0007683323929086328,1.0,0.3618345856666565,0.542696128775731
191,0.0007596617215313017,1.0,0.36189961433410645,0.5427435289107889
192,0.0007512366282753646,1.0,0.36219221353530884,0.5427435289107889
193,0.0007429692195728421,1.0,0.3625306189060211,0.542696128775731
194,0.0007347901118919253,1.0,0.36276891827583313,0.5427556912730369
195,0.0007267165929079056,1.0,0.3630675971508026,0.5427556912730369
196,0.0007188592571765184,1.0,0.3632940351963043,0.5427556912730369
197,0.0007111703744158149,1.0,0.36352109909057617,0.5427556912730369
198,0.0007034707814455032,1.0,0.36381497979164124,0.5427556912730369
199,0.0006959140300750732,1.0,0.363981693983078,0.5427556912730369
200,0.0006885254988446832,1.0,0.3642481863498688,0.5427556912730369
201,0.0006812643259763718,1.0,0.3644568622112274,0.5427556912730369
202,0.0006740689277648926,1.0,0.36470821499824524,0.5427556912730369
203,0.0006669799331575632,1.0,0.3649696409702301,0.5427524556553575
204,0.0006600331398658454,1.0,0.36522942781448364,0.5427524556553575
205,0.0006532166735269129,1.0,0.3654141128063202,0.5428008975516254
206,0.0006464505568146706,1.0,0.36567163467407227,0.5428008975516254
207,0.0006397936958819628,1.0,0.3658677339553833,0.5428008975516254
208,0.00063326396048069,1.0,0.36612245440483093,0.5428008975516254
209,0.0006268344586715102,1.0,0.3663395345211029,0.5428008975516254
210,0.0006205501849763095,1.0,0.36662957072257996,0.5428008975516254
211,0.0006142776110209525,1.0,0.36686834692955017,0.5428008975516254
212,0.0006081160390749574,1.0,0.3671089708805084,0.5428008975516254
213,0.0006019989959895611,1.0,0.36739322543144226,0.5428008975516254
214,0.0005960070993751287,1.0,0.3676024079322815,0.5428008975516254
215,0.0005901146214455366,1.0,0.36781591176986694,0.5428008975516254
216,0.0005843340186402202,1.0,0.3680523931980133,0.5428008975516254
217,0.0005786278052255511,1.0,0.3682292699813843,0.5428008975516254
218,0.0005729716503992677,1.0,0.36854058504104614,0.5428008975516254
219,0.0005674060666933656,1.0,0.3686748445034027,0.5428008975516254
220,0.0005619196454063058,1.0,0.3688836693763733,0.5428008975516254
221,0.0005565540050156415,1.0,0.3691514730453491,0.5428008975516254
222,0.0005512060597538948,1.0,0.3693459630012512,0.5428008975516254
223,0.0005459775566123426,1.0,0.3695650100708008,0.5428008975516254
224,0.0005407808348536491,1.0,0.3697490692138672,0.5428008975516254
225,0.0005357185727916658,1.0,0.37000179290771484,0.5428008975516254
226,0.0005307174287736416,1.0,0.3701965808868408,0.5428008975516254
227,0.0005257463781163096,1.0,0.3703697919845581,0.5428008975516254
228,0.0005208429647609591,1.0,0.37066105008125305,0.5428008975516254
229,0.0005160711007192731,1.0,0.37094226479530334,0.5428008975516254
230,0.0005112679791636765,1.0,0.37105709314346313,0.5428008975516254
231,0.0005066068843007088,1.0,0.371226966381073,0.5428008975516254
232,0.0005019798409193754,1.0,0.37143072485923767,0.5428008975516254
233,0.0004974084440618753,1.0,0.37164804339408875,0.5428008975516254
234,0.0004929062561132014,1.0,0.3719109296798706,0.5428008975516254
235,0.0004884642548859119,1.0,0.3720834255218506,0.5427002753334066
236,0.000484077085275203,1.0,0.3723011910915375,0.5427002753334066
237,0.0004797315923497081,1.0,0.3724943697452545,0.5427002753334066
238,0.0004754956462420523,1.0,0.3726971447467804,0.5427002753334066
239,0.0004712591180577874,1.0,0.3728828728199005,0.5427002753334066
240,0.0004671299539040774,1.0,0.3731211721897125,0.5427002753334066
241,0.0004630098701454699,1.0,0.37332212924957275,0.5275518548541037
242,0.00045899784890934825,1.0,0.3735228180885315,0.5275518548541037
243,0.00045495430822484195,1.0,0.37376874685287476,0.5275518548541037
244,0.0004509891732595861,1.0,0.3738696575164795,0.5275518548541037
245,0.0004470905987545848,1.0,0.3740622103214264,0.5275518548541037
246,0.00044323044130578637,1.0,0.37423714995384216,0.5275518548541037
247,0.0004394261632114649,1.0,0.37439173460006714,0.5275518548541037
248,0.00043564525549300015,1.0,0.3745735287666321,0.5275518548541037
249,0.0004319222935009748,1.0,0.3747880160808563,0.5275518548541037
250,0.00042826702701859176,1.0,0.37501734495162964,0.5275518548541037
251,0.0004246497992426157,1.0,0.37521687150001526,0.5275518548541037
252,0.00042103740270249546,1.0,0.37527239322662354,0.5275518548541037
253,0.0004174989298917353,1.0,0.3754543364048004,0.5275518548541037
254,0.0004140188102610409,1.0,0.3756480813026428,0.5275518548541037
255,0.00041056028567254543,1.0,0.37581920623779297,0.5275518548541037
256,0.0004071296425536275,1.0,0.3759666383266449,0.5275466636282193
257,0.00040372618241235614,1.0,0.3761439919471741,0.527527554045672
258,0.00040040776366367936,1.0,0.37635353207588196,0.5275327452715564
259,0.00039712953730486333,1.0,0.3765659034252167,0.5275327452715564
260,0.00039386533899232745,1.0,0.376803994178772,0.527527554045672
261,0.0003906415367964655,1.0,0.37695834040641785,0.527527554045672
262,0.00038745225174352527,1.0,0.37711772322654724,0.527527554045672
263,0.00038434038287959993,1.0,0.377333402633667,0.527527554045672
264,0.0003812072682194412,1.0,0.3774675130844116,0.5275770724285236
265,0.0003781439736485481,1.0,0.3776461184024811,0.5275770724285236
266,0.0003751008480321616,1.0,0.37786808609962463,0.5275770724285236
267,0.0003721101675182581,1.0,0.3780823349952698,0.5275770724285236
268,0.00036913756048306823,1.0,0.37831154465675354,0.5275770724285236
269,0.00036620907485485077,1.0,0.37846264243125916,0.5275770724285236
270,0.00036329281283542514,1.0,0.3786084055900574,0.5275770724285236
271,0.00036045192973688245,1.0,0.3787515163421631,0.5275770724285236
272,0.0003576024901121855,1.0,0.37893280386924744,0.5275770724285236
273,0.000354812596924603,1.0,0.3791869878768921,0.5275770724285236
274,0.0003520504687912762,1.0,0.37935832142829895,0.5275770724285236
275,0.0003493086842354387,1.0,0.3795575499534607,0.5275770724285236
276,0.00034660863457247615,1.0,0.3797426223754883,0.5275770724285236
277,0.0003439042193349451,1.0,0.37983930110931396,0.5275770724285236
278,0.00034126543323509395,1.0,0.37999865412712097,0.5275770724285236
279,0.0003386454191058874,1.0,0.38020777702331543,0.5276222859416575
280,0.0003360549744684249,1.0,0.3804110884666443,0.5276222859416575
281,0.00033351060119457543,1.0,0.3805669844150543,0.5276222859416575
282,0.0003309748717583716,1.0,0.3807038366794586,0.5276222859416575
283,0.0003284429549239576,1.0,0.3808954656124115,0.5276222859416575
284,0.00032595961238257587,1.0,0.38105514645576477,0.5276222859416575
285,0.0003235122421756387,1.0,0.3812272250652313,0.5276222859416575
286,0.0003210772993043065,1.0,0.38142114877700806,0.5276222859416575
287,0.0003186853718943894,1.0,0.3815957307815552,0.5276222859416575
288,0.00031630590092390776,1.0,0.3817742168903351,0.5276222859416575
289,0.000313978991471231,1.0,0.3819023370742798,0.5276222859416575
290,0.00031163531821221113,1.0,0.38206401467323303,0.5276222859416575
291,0.0003093440900556743,1.0,0.382235586643219,0.5276222859416575
292,0.00030705134849995375,1.0,0.3824070394039154,0.5276222859416575
293,0.0003048076177947223,1.0,0.38255202770233154,0.5276222859416575
294,0.0003025686601176858,1.0,0.3827822506427765,0.5227843229786945
295,0.0003003446327056736,1.0,0.382944256067276,0.5227843229786945
296,0.00029816030291840434,1.0,0.38308924436569214,0.5227843229786945
297,0.0002959835110232234,1.0,0.383225679397583,0.5227843229786945
298,0.0002938458928838372,1.0,0.3833785355091095,0.5227843229786945
299,0.0002917093806900084,1.0,0.38355326652526855,0.5227843229786945
300,0.0002895996440201998,1.0,0.38367149233818054,0.5227843229786945
301,0.00028753274818882346,1.0,0.3838503658771515,0.5227843229786945
302,0.0002854726044461131,1.0,0.38407102227211,0.5227843229786945
303,0.0002834278857335448,1.0,0.38419145345687866,0.5227843229786945
304,0.00028140764334239066,1.0,0.3843347728252411,0.5227843229786945
305,0.0002794017200358212,1.0,0.38453051447868347,0.5227843229786945
306,0.00027743069222196937,1.0,0.3846582770347595,0.5227843229786945
307,0.00027547177160158753,1.0,0.3848290741443634,0.5227843229786945
308,0.0002735396265052259,1.0,0.38498392701148987,0.5227843229786945
309,0.00027162296464666724,1.0,0.38516199588775635,0.5227843229786945
310,0.00026972388150170445,1.0,0.3853469491004944,0.5227843229786945
311,0.00026787060778588057,1.0,0.38554054498672485,0.5227843229786945
312,0.0002659932360984385,1.0,0.3857147991657257,0.5227843229786945
313,0.0002641618193592876,1.0,0.3858342170715332,0.5088954340898055
314,0.0002623295586090535,1.0,0.38596174120903015,0.5088954340898055
315,0.00026053647161461413,1.0,0.38613995909690857,0.5088954340898055
316,0.00025873733102343976,1.0,0.38627761602401733,0.5088949395417038
317,0.00025696356897242367,1.0,0.3864575922489166,0.5088949395417038
318,0.0002552191144786775,1.0,0.3866325914859772,0.5088949395417038
319,0.0002534800732973963,1.0,0.3867715299129486,0.5088949395417038
320,0.0002517623361200094,1.0,0.38695645332336426,0.5088949395417038
321,0.0002500581322237849,1.0,0.3871019780635834,0.5088949395417038
322,0.0002483651915099472,1.0,0.38724634051322937,0.5088949395417038
323,0.0002467172162141651,1.0,0.38739559054374695,0.5088949395417038
324,0.00024503329768776894,1.0,0.38752052187919617,0.5088949395417038
325,0.00024340569507330656,1.0,0.3877030313014984,0.5088949395417038
326,0.0002417794312350452,1.0,0.38787660002708435,0.5088949395417038
327,0.0002401677775196731,1.0,0.3880564272403717,0.5088949395417038
328,0.0002385782718192786,1.0,0.38819897174835205,0.5088949395417038
329,0.00023701111786067486,1.0,0.38837066292762756,0.5088949395417038
330,0.0002354408788960427,1.0,0.3885350525379181,0.5088949395417038
331,0.00023388968838844448,1.0,0.3886403441429138,0.5088949395417038
332,0.00023235332628246397,1.0,0.38881367444992065,0.5088949395417038
333,0.000230834586545825,1.0,0.38898766040802,0.5088949395417038
334,0.00022932569845579565,1.0,0.3891371786594391,0.5088949395417038
335,0.00022783680469729006,1.0,0.3892892897129059,0.5088949395417038
336,0.0002263559290440753,1.0,0.38938650488853455,0.5088949395417038
337,0.00022490046103484929,1.0,0.38955965638160706,0.5088949395417038
338,0.00022344186436384916,1.0,0.38970890641212463,0.5088949395417038
339,0.00022200959210749716,1.0,0.38984549045562744,0.5088827771794558
340,0.00022059428738430142,1.0,0.3900677561759949,0.5088827771794558
341,0.00021917058620601892,1.0,0.39020806550979614,0.5088827771794558
342,0.00021778428344987333,1.0,0.3903256952762604,0.5088827771794558
343,0.00021639224723912776,1.0,0.3904498815536499,0.5088827771794558
344,0.00021500549337361008,1.0,0.39058828353881836,0.5088827771794558
345,0.00021364440908655524,1.0,0.3907524645328522,0.5088827771794558
346,0.00021229519916232675,1.0,0.39089319109916687,0.5088827771794558
347,0.0002109682245645672,1.0,0.3910568356513977,0.5088827771794558
348,0.00020962744019925594,1.0,0.39121681451797485,0.5088827771794558
349,0.00020832775044254959,1.0,0.3913463354110718,0.5088400901896173
350,0.00020701669564004987,1.0,0.39149659872055054,0.5088892464887736
351,0.00020572624634951353,1.0,0.3916669189929962,0.5088892464887736
352,0.0002044504799414426,1.0,0.39179664850234985,0.5087402409474744
353,0.00020318571478128433,1.0,0.3919011652469635,0.5087402409474744
354,0.00020193464297335595,1.0,0.3920338451862335,0.5087402409474744
355,0.00020067577133886516,1.0,0.39217880368232727,0.5087402409474744
356,0.0001994450285565108,1.0,0.39234212040901184,0.5087402409474744
357,0.0001982231333386153,1.0,0.3925004303455353,0.5087402409474744
358,0.0001970055454876274,1.0,0.39268752932548523,0.5087402409474744
359,0.00019579959916882217,1.0,0.3928179144859314,0.5087402409474744
360,0.00019460653129499406,1.0,0.39294591546058655,0.5087402409474744
361,0.00019342429004609585,1.0,0.3931117057800293,0.5087402409474744
362,0.0001922495139297098,1.0,0.39323946833610535,0.5087402409474744
363,0.00019108863489236683,1.0,0.3933909833431244,0.5087402409474744
364,0.00018994297715835273,1.0,0.39353880286216736,0.5087402409474744
365,0.00018880690913647413,1.0,0.39367714524269104,0.5087402409474744
366,0.00018765428103506565,1.0,0.3938337564468384,0.5087402409474744
367,0.00018653897859621793,1.0,0.39396578073501587,0.5087402409474744
368,0.0001854228030424565,1.0,0.3940783441066742,0.5115180187252522
369,0.00018432794604450464,1.0,0.39424505829811096,0.5115180187252522
370,0.00018322374671697617,1.0,0.3943955600261688,0.5115180187252522
371,0.00018214205920230597,1.0,0.39454859495162964,0.5115180187252522
372,0.00018105682102032006,1.0,0.3946801722049713,0.5115180187252522
373,0.00017999090778175741,1.0,0.39482706785202026,0.5115180187252522
374,0.00017893186304718256,1.0,0.3949732184410095,0.5115180187252522
375,0.00017788013792596757,1.0,0.39507538080215454,0.5115180187252522
376,0.0001768343208823353,1.0,0.3952149748802185,0.5115180187252522
377,0.00017580256098881364,1.0,0.3953526020050049,0.5115180187252522
378,0.0001747778442222625,1.0,0.39548346400260925,0.5115180187252522
379,0.00017376164032611996,1.0,0.3956352770328522,0.5115180187252522
380,0.0001727598428260535,1.0,0.39581337571144104,0.5115180187252522
381,0.00017175331595353782,1.0,0.39594101905822754,0.5115180187252522
382,0.00017077350639738142,1.0,0.39607906341552734,0.5115180187252522
383,0.00016978636267594993,1.0,0.39621442556381226,0.5115180187252522
384,0.0001688089978415519,1.0,0.3963257074356079,0.5115180187252522
385,0.00016783530008979142,1.0,0.39647117257118225,0.5115180187252522
386,0.00016688124742358923,1.0,0.3966127038002014,0.5115180187252522
387,0.0001659337431192398,1.0,0.39672914147377014,0.5115180187252522
388,0.00016498033073730767,1.0,0.39687785506248474,0.5115180187252522
389,0.000164052500622347,1.0,0.39702391624450684,0.5115180187252522
390,0.00016311377112288028,1.0,0.39715373516082764,0.5115180187252522
391,0.00016220087127294391,1.0,0.3972944915294647,0.5115180187252522
392,0.00016128212155308574,1.0,0.3974122405052185,0.5115180187252522
393,0.00016037556633818895,1.0,0.3975571095943451,0.5115180187252522
394,0.00015947635984048247,1.0,0.3977053165435791,0.5115180187252522
395,0.00015858819824643433,1.0,0.39781561493873596,0.5115180187252522
396,0.00015769843594171107,1.0,0.397960901260376,0.5115180187252522
397,0.00015682014054618776,1.0,0.3980843722820282,0.5115180187252522
398,0.0001559511583764106,1.0,0.39826321601867676,0.5115180187252522
399,0.00015508357319049537,1.0,0.39839842915534973,0.5115180187252522
400,0.00015422861906699836,1.0,0.39851081371307373,0.5115180187252522
401,0.0001533669128548354,1.0,0.39865586161613464,0.5115180187252522
402,0.00015252659795805812,1.0,0.39879098534584045,0.5115180187252522
403,0.0001516883639851585,1.0,0.39890798926353455,0.5115180187252522
404,0.00015085568884387612,1.0,0.3990243673324585,0.5115180187252522
405,0.00015003119187895209,1.0,0.39915186166763306,0.5115180187252522
406,0.0001491958973929286,1.0,0.399304062128067,0.5115180187252522
407,0.0001483877276768908,1.0,0.399442583322525,0.5115180187252522
408,0.0001475790049880743,1.0,0.3995751440525055,0.5115180187252522
409,0.00014677122817374766,1.0,0.3997150659561157,0.5115180187252522
410,0.00014597800327464938,1.0,0.3998550474643707,0.5115180187252522
411,0.0001451818970963359,1.0,0.39999720454216003,0.5115180187252522
412,0.0001444017980247736,1.0,0.4001403748989105,0.5115180187252522
413,0.00014362583169713616,1.0,0.4002852439880371,0.5115180187252522
414,0.00014284695498645306,1.0,0.4004082977771759,0.5115180187252522
415,0.00014207998174242675,1.0,0.4005400836467743,0.5115180187252522
416,0.00014131111674942076,1.0,0.4006842374801636,0.5115180187252522
417,0.00014055721112526953,1.0,0.40080833435058594,0.5115180187252522
418,0.00013980019139125943,1.0,0.40091875195503235,0.5115180187252522
419,0.0001390596735291183,1.0,0.40107056498527527,0.5115180187252522
420,0.00013831201067660004,1.0,0.40120425820350647,0.5115180187252522
421,0.00013757761917077005,1.0,0.4013282060623169,0.5115180187252522
422,0.00013684507575817406,1.0,0.40144282579421997,0.5115180187252522
423,0.00013611477334052324,1.0,0.40159153938293457,0.5115180187252522
424,0.00013540085637941957,1.0,0.4017251133918762,0.511518465600699
425,0.00013468436372932047,1.0,0.4018303453922272,0.5115180187252522
426,0.00013397354632616043,1.0,0.4019700586795807,0.511518465600699
427,0.0001332665851805359,1.0,0.40208402276039124,0.511518465600699
428,0.00013255940575618297,1.0,0.4021657705307007,0.511518465600699
429,0.00013186433352530003,1.0,0.40230295062065125,0.511518465600699
430,0.00013117468915879726,1.0,0.40244656801223755,0.511518465600699
431,0.00013048147957306355,1.0,0.4025786519050598,0.511518465600699
432,0.00012980408791918308,1.0,0.4026919901371002,0.511518465600699
433,0.0001291343360207975,1.0,0.4028041660785675,0.511518465600699
434,0.00012846651952713728,1.0,0.40292927622795105,0.511518465600699
435,0.00012779919779859483,1.0,0.40302541851997375,0.511518465600699
436,0.00012713554315268993,1.0,0.40315696597099304,0.511518465600699
437,0.00012647944095078856,1.0,0.4032823443412781,0.511518465600699
438,0.00012582639465108514,1.0,0.4034169316291809,0.511518465600699
439,0.00012518074072431773,1.0,0.40355294942855835,0.511518465600699
440,0.0001245367748197168,1.0,0.4036557376384735,0.5087829801274331
441,0.0001238989643752575,1.0,0.40379515290260315,0.5087829801274331
442,0.0001232692738994956,1.0,0.4039362072944641,0.5087829801274331
443,0.0001226406020577997,1.0,0.4040669798851013,0.5087829801274331
444,0.00012201126082800329,1.0,0.40417587757110596,0.5087652806438414
445,0.00012138887541368604,1.0,0.40429210662841797,0.5087652806438414
446,0.00012077185965608805,1.0,0.4043881893157959,0.5087652806438414
447,0.00012015941319987178,1.0,0.4045189321041107,0.5087652806438414
448,0.00011955191439483315,1.0,0.4046432077884674,0.5087652806438414
449,0.00011894427007064223,1.0,0.40478143095970154,0.5087652806438414
450,0.00011834422184620053,1.0,0.40493282675743103,0.5087652806438414
451,0.00011775151506299153,1.0,0.405052125453949,0.5087652806438414
452,0.00011716388689819723,1.0,0.4051825702190399,0.5087652806438414
453,0.00011657732102321461,1.0,0.40528756380081177,0.5087652806438414
454,0.00011599454592214897,1.0,0.4054148495197296,0.5087652806438414
455,0.00011541000276338309,1.0,0.4055641293525696,0.5087652806438414
456,0.00011483205889817327,1.0,0.4056839048862457,0.5087652806438414
457,0.0001142651162808761,1.0,0.40581634640693665,0.5087652806438414
458,0.00011369117419235408,1.0,0.4059239327907562,0.5087652806438414
459,0.00011313323193462566,1.0,0.40601882338523865,0.5087652806438414
460,0.00011256874131504446,1.0,0.4061143398284912,0.5087652806438414
461,0.00011201035522390157,1.0,0.40623345971107483,0.5087652806438414
462,0.0001114628539653495,1.0,0.4063529372215271,0.5087652806438414
463,0.00011090557381976396,1.0,0.40647080540657043,0.5087652806438414
464,0.00011036073556169868,1.0,0.40658867359161377,0.5087652806438414
465,0.00010981734521919861,1.0,0.40672436356544495,0.5087652806438414
466,0.00010927763651125133,1.0,0.4068428575992584,0.5087652806438414
467,0.00010874881991185248,1.0,0.4069809019565582,0.5087652806438414
468,0.00010821523028425872,1.0,0.40709686279296875,0.5087652806438414
469,0.00010768270294647664,1.0,0.4071832299232483,0.5087652806438414
470,0.00010716299584601074,1.0,0.4072648882865906,0.5087652806438414
471,0.0001066378754330799,1.0,0.4074056148529053,0.5087652806438414
472,0.00010612607002258301,1.0,0.40755370259284973,0.5087652806438414
473,0.00010560733790043741,1.0,0.40764862298965454,0.5087652806438414
474,0.00010509924322832376,1.0,0.40776893496513367,0.5087652806438414
475,0.0001045922763296403,1.0,0.4078989624977112,0.508807882943287
476,0.00010408344678580761,1.0,0.4080096185207367,0.508807882943287
477,0.00010358900181017816,1.0,0.4081379473209381,0.508807882943287
478,0.00010309099161531776,1.0,0.4082588255405426,0.508807882943287
479,0.00010260032286169007,1.0,0.40835046768188477,0.508807882943287
480,0.00010210569598712027,1.0,0.4084717333316803,0.508807882943287
481,0.00010161988029722124,1.0,0.40860486030578613,0.5088574013261388
482,0.00010113657481269911,1.0,0.40869322419166565,0.5088574013261388
483,0.00010065500100608915,1.0,0.40881016850471497,0.5088453001160178
484,0.00010017764725489542,1.0,0.4089447855949402,0.5088453001160178
485,9.970038809115067e-05,1.0,0.4090479910373688,0.5088453001160178
486,9.923215839080513e-05,1.0,0.40916186571121216,0.5088453001160178
487,9.875968680717051e-05,1.0,0.40926462411880493,0.5088453001160178
488,9.829458576859906e-05,1.0,0.40936341881752014,0.5088453001160178
489,9.783244604477659e-05,1.0,0.40948978066444397,0.5088453001160178
490,9.737120126374066e-05,1.0,0.4095992147922516,0.5088453001160178
491,9.691565355751663e-05,1.0,0.4097064435482025,0.5088453001160178
492,9.645688260206953e-05,1.0,0.40982785820961,0.5088453001160178
493,9.600863268133253e-05,1.0,0.40993764996528625,0.5088453001160178
494,9.55590367084369e-05,1.0,0.41004589200019836,0.5088453001160178
495,9.51122201513499e-05,1.0,0.41015905141830444,0.5088453001160178
496,9.466991468798369e-05,1.0,0.4102644622325897,0.5088453001160178
497,9.423113078810275e-05,1.0,0.4103822410106659,0.5088453001160178
498,9.379598486702889e-05,1.0,0.4104858934879303,0.5088453001160178
499,9.336283255834132e-05,1.0,0.41060709953308105,0.5088453001160178
500,9.292559116147459e-05,1.0,0.41070806980133057,0.5088453001160178
501,9.250026778317988e-05,1.0,0.4108142852783203,0.5088453001160178
502,9.20710590435192e-05,1.0,0.4109305143356323,0.5088453001160178
503,9.164874791167676e-05,1.0,0.41103988885879517,0.5088453001160178
504,9.122706251218915e-05,1.0,0.411143958568573,0.5088453001160178
505,9.080773452296853e-05,1.0,0.41127145290374756,0.5088453001160178
506,9.038390999194235e-05,1.0,0.4113502502441406,0.5088453001160178
507,8.99753940757364e-05,1.0,0.41144534945487976,0.5088453001160178
508,8.956025703810155e-05,1.0,0.41160574555397034,0.5088453001160178
509,8.915786747820675e-05,1.0,0.4117000699043274,0.5088453001160178
510,8.875151979736984e-05,1.0,0.4117700457572937,0.5088453001160178
511,8.834869368001819e-05,1.0,0.4118937849998474,0.5088453001160178
512,8.794819586910307e-05,1.0,0.4120083749294281,0.5088453001160178
513,8.755260932957754e-05,1.0,0.4120998680591583,0.5088453001160178
514,8.714970317669213e-05,1.0,0.4121965765953064,0.5088453001160178
515,8.675443677930161e-05,1.0,0.41231387853622437,0.5088453001160178
516,8.636606798972934e-05,1.0,0.41244763135910034,0.5088453001160178
517,8.597593114245683e-05,1.0,0.4125794470310211,0.5088453001160178
518,8.5590458184015e-05,1.0,0.4126719534397125,0.5088453001160178
519,8.520566916558892e-05,1.0,0.4127611219882965,0.5088453001160178
520,8.482641715090722e-05,1.0,0.41284704208374023,0.5088453001160178
521,8.445015555480495e-05,1.0,0.4129326641559601,0.5088400118578738
522,8.407160930801183e-05,1.0,0.41304051876068115,0.5088400118578738
523,8.3695471403189e-05,1.0,0.4131592810153961,0.5088400118578738
524,8.332269499078393e-05,1.0,0.4132624864578247,0.5088400118578738
525,8.295157749671489e-05,1.0,0.41337013244628906,0.5088400118578738
526,8.258828893303871e-05,1.0,0.4135085642337799,0.5088400118578738
527,8.221869939006865e-05,1.0,0.4136160910129547,0.5088400118578738
528,8.18547559902072e-05,1.0,0.4137111008167267,0.5088400118578738
529,8.149431960191578e-05,1.0,0.4138244092464447,0.5088400118578738
530,8.113613148452714e-05,1.0,0.41392794251441956,0.5088400118578738
531,8.078264363575727e-05,1.0,0.41402095556259155,0.5088400118578738
532,8.042744593694806e-05,1.0,0.41413331031799316,0.5088400118578738
533,8.006766438484192e-05,1.0,0.4142504036426544,0.5088400118578738
534,7.971691229613498e-05,1.0,0.41436389088630676,0.5088400118578738
535,7.937163900351152e-05,1.0,0.4144662320613861,0.5088400118578738
536,7.902449578978121e-05,1.0,0.4145374596118927,0.5088400118578738
537,7.868331158533692e-05,1.0,0.41462478041648865,0.5088400118578738
538,7.83433933975175e-05,1.0,0.4147607088088989,0.5088400118578738
539,7.799610466463491e-05,1.0,0.4148634970188141,0.5088400118578738
540,7.765594637021422e-05,1.0,0.41496312618255615,0.5088400118578738
541,7.732292579021305e-05,1.0,0.41509395837783813,0.5088400118578738
542,7.698567060288042e-05,1.0,0.4151843190193176,0.5088400118578738
543,7.664987060707062e-05,1.0,0.4152829349040985,0.5088400118578738
544,7.631612243130803e-05,1.0,0.41541174054145813,0.5088400118578738
545,7.599082891829312e-05,1.0,0.4155060946941376,0.5088400118578738
546,7.566314889118075e-05,1.0,0.4156288206577301,0.5088400118578738
547,7.533715688623488e-05,1.0,0.4157431125640869,0.5088400118578738
548,7.502018706873059e-05,1.0,0.41582992672920227,0.5088400118578738
549,7.469317642971873e-05,1.0,0.41596102714538574,0.5088400118578738
550,7.43759810575284e-05,1.0,0.4160875380039215,0.5088400118578738
551,7.405687938444316e-05,1.0,0.4161780774593353,0.5088400118578738
552,7.374098640866578e-05,1.0,0.41627341508865356,0.5088400118578738
553,7.342857861658558e-05,1.0,0.4163818061351776,0.5088400118578738
554,7.310503860935569e-05,1.0,0.4164654314517975,0.5088400118578738
555,7.280390855157748e-05,1.0,0.4165748059749603,0.5088400118578738
556,7.249209011206403e-05,1.0,0.41667142510414124,0.5088385423933466
557,7.219075632747263e-05,1.0,0.41676488518714905,0.5088385423933466
558,7.188032759586349e-05,1.0,0.4168700575828552,0.5088385423933466
559,7.157599611673504e-05,1.0,0.4169878661632538,0.5088385423933466
560,7.127974822651595e-05,1.0,0.41710877418518066,0.5088385423933466
561,7.09779851604253e-05,1.0,0.41718754172325134,0.5088385423933466
562,7.067848491715267e-05,1.0,0.4172886610031128,0.5088385423933466
563,7.037631439743564e-05,1.0,0.41738808155059814,0.5088385423933466
564,7.008027023402974e-05,1.0,0.41748252511024475,0.5088385423933466
565,6.97888171998784e-05,1.0,0.41759148240089417,0.5088364956958977
566,6.949703674763441e-05,1.0,0.4177185893058777,0.5088364956958977
567,6.920273881405592e-05,1.0,0.41781938076019287,0.5088364956958977
568,6.891371594974771e-05,1.0,0.41792020201683044,0.5088364956958977
569,6.862943700980395e-05,1.0,0.41800013184547424,0.5088364956958977
570,6.834281521150842e-05,1.0,0.4180968701839447,0.5088364956958977
571,6.805866723880172e-05,1.0,0.41819414496421814,0.5088364956958977
572,6.777577073080465e-05,1.0,0.4183138906955719,0.5088364956958977
573,6.749766907887533e-05,1.0,0.41842296719551086,0.5088364956958977
574,6.721181853208691e-05,1.0,0.4185096323490143,0.5088364956958977
575,6.693954492220655e-05,1.0,0.4185997545719147,0.5088364956958977
576,6.665510591119528e-05,1.0,0.41870567202568054,0.5088364956958977
577,6.639018101850525e-05,1.0,0.41881632804870605,0.5088364956958977
578,6.611285061808303e-05,1.0,0.4189264476299286,0.5088364956958977
579,6.584513903362677e-05,1.0,0.41899409890174866,0.5088364956958977
580,6.557519373018295e-05,1.0,0.41909393668174744,0.5088364956958977
581,6.530426617246121e-05,1.0,0.41920456290245056,0.5088364956958977
582,6.503564509330317e-05,1.0,0.4192869961261749,0.5088364956958977
583,6.476746057160199e-05,1.0,0.41939374804496765,0.5088364956958977
584,6.450146611314267e-05,1.0,0.41951432824134827,0.5088364956958977
585,6.424569437513128e-05,1.0,0.4195830821990967,0.5088364956958977
586,6.39807985862717e-05,1.0,0.41967734694480896,0.5088364956958977
587,6.371646304614842e-05,1.0,0.4198056757450104,0.5088364956958977
588,6.346069130813703e-05,1.0,0.4199068546295166,0.5088344836882359
589,6.320586544461548e-05,1.0,0.41999125480651855,0.5088344836882359
590,6.295015191426501e-05,1.0,0.42007917165756226,0.5088344836882359
591,6.269366713240743e-05,1.0,0.4201485216617584,0.5088344836882359
592,6.243794632609934e-05,1.0,0.42025279998779297,0.5088344836882359
593,6.218827184056863e-05,1.0,0.4203767478466034,0.5088344836882359
594,6.193546869326383e-05,1.0,0.4204729199409485,0.5088344836882359
595,6.16898832959123e-05,1.0,0.42058154940605164,0.5088344836882359
596,6.144188228063285e-05,1.0,0.4206831753253937,0.5088344836882359
597,6.119256431702524e-05,1.0,0.420767217874527,0.5088344836882359
598,6.0951875639148057e-05,1.0,0.42085596919059753,0.5088344836882359
599,6.0704573115799576e-05,1.0,0.4209378659725189,0.5088344836882359
600,6.0460763052105904e-05,1.0,0.42105618119239807,0.5088344836882359
601,6.021923036314547e-05,1.0,0.42117080092430115,0.5088344836882359
602,5.9974587202304974e-05,1.0,0.42125120759010315,0.5088344836882359
603,5.973758379695937e-05,1.0,0.42134860157966614,0.5088344836882359
604,5.950202466920018e-05,1.0,0.4214635491371155,0.5088344836882359
605,5.926549056312069e-05,1.0,0.42154690623283386,0.5088344836882359
606,5.9027690440416336e-05,1.0,0.42161157727241516,0.5088344836882359
607,5.879067612113431e-05,1.0,0.42173758149147034,0.5088344836882359
608,5.8566722145769745e-05,1.0,0.42183414101600647,0.5088344836882359
609,5.83269793423824e-05,1.0,0.4219145178794861,0.5088344836882359
610,5.80986452405341e-05,1.0,0.4220462739467621,0.5088344836882359
611,5.787189002148807e-05,1.0,0.4221232533454895,0.5088344836882359
612,5.764584420830943e-05,1.0,0.4221971929073334,0.5088344836882359
613,5.74113946640864e-05,1.0,0.42230188846588135,0.5088344836882359
614,5.719147156924009e-05,1.0,0.42240414023399353,0.5088344836882359
615,5.69685798836872e-05,1.0,0.4225209951400757,0.5088344836882359
616,5.6741184380371124e-05,1.0,0.4225969910621643,0.5088344836882359
617,5.6520973885199055e-05,1.0,0.4226822853088379,0.5088344836882359
618,5.629684164887294e-05,1.0,0.4227740466594696,0.5088344836882359
619,5.608114224742167e-05,1.0,0.42285647988319397,0.5088344836882359
620,5.585831968346611e-05,1.0,0.42295727133750916,0.5088344836882359
621,5.564078310271725e-05,1.0,0.42306849360466003,0.5088344836882359
622,5.542019789572805e-05,1.0,0.423165887594223,0.5088344836882359
623,5.520673585124314e-05,1.0,0.4232713282108307,0.5088344836882359
624,5.498925384017639e-05,1.0,0.42337051033973694,0.5088344836882359
625,5.477860395330936e-05,1.0,0.4234504699707031,0.5088344836882359
626,5.456502549350262e-05,1.0,0.42354971170425415,0.5088344836882359
627,5.4354975873138756e-05,1.0,0.42364075779914856,0.5088344836882359
628,5.414686165750027e-05,1.0,0.4237402677536011,0.5088344836882359
629,5.3931784350425005e-05,1.0,0.4238418638706207,0.5088344836882359
630,5.373083695303649e-05,1.0,0.4239307641983032,0.5088344836882359
631,5.351567961042747e-05,1.0,0.4240390360355377,0.5088344836882359
632,5.3313939133659005e-05,1.0,0.42413145303726196,0.5088344836882359
633,5.310877531883307e-05,1.0,0.42422500252723694,0.5088344836882359
634,5.2903655159752816e-05,1.0,0.4243430197238922,0.5088344836882359
635,5.270196561468765e-05,1.0,0.42443713545799255,0.5088344836882359
636,5.249780951999128e-05,1.0,0.42451345920562744,0.5088344836882359
637,5.2297345973784104e-05,1.0,0.42461448907852173,0.5088344836882359
638,5.209444498177618e-05,1.0,0.4247038960456848,0.5088344836882359
639,5.1897917728638276e-05,1.0,0.4247988760471344,0.5088344836882359
640,5.169938594917767e-05,1.0,0.42487573623657227,0.5143900392437915
641,5.150296783540398e-05,1.0,0.42497649788856506,0.5143900392437915
642,5.1304756198078394e-05,1.0,0.42509907484054565,0.5143900392437915
643,5.111238351673819e-05,1.0,0.4252188503742218,0.5088344836882359
644,5.091500497655943e-05,1.0,0.4253014624118805,0.5088344836882359
645,5.071965279057622e-05,1.0,0.4253668487071991,0.5143900392437915
646,5.052801134297624e-05,1.0,0.4254709482192993,0.5088344836882359
647,5.033798151998781e-05,1.0,0.425549179315567,0.5088344836882359
648,5.014821363147348e-05,1.0,0.4256414473056793,0.5088344836882359
649,4.9954531277762726e-05,1.0,0.4257566034793854,0.5143900392437915
650,4.976750278729014e-05,1.0,0.4258422255516052,0.5088344836882359
651,4.957884084433317e-05,1.0,0.42591989040374756,0.5088344836882359
652,4.939697828376666e-05,1.0,0.42602792382240295,0.5088344836882359
653,4.920646460959688e-05,1.0,0.42613685131073,0.5143900392437915
654,4.902255386696197e-05,1.0,0.42623111605644226,0.5143900392437915
655,4.883500514551997e-05,1.0,0.4263259172439575,0.5143900392437915
656,4.865604205406271e-05,1.0,0.42641395330429077,0.5143900392437915
657,4.846938099944964e-05,1.0,0.42651522159576416,0.5143900392437915
658,4.828928649658337e-05,1.0,0.4266102910041809,0.5143900392437915
659,4.8109315684996545e-05,1.0,0.4267076551914215,0.5143900392437915
660,4.792938125319779e-05,1.0,0.4267941415309906,0.5143900392437915
661,4.774813714902848e-05,1.0,0.4268767833709717,0.5088344836882359
662,4.757388887810521e-05,1.0,0.42697376012802124,0.5143900392437915
663,4.739227733807638e-05,1.0,0.42706093192100525,0.5143900392437915
664,4.721857112599537e-05,1.0,0.4271475374698639,0.5143900392437915
665,4.7041059588082135e-05,1.0,0.4272376298904419,0.5143900392437915
666,4.686702595790848e-05,1.0,0.4273301661014557,0.5143900392437915
667,4.668775000027381e-05,1.0,0.42741456627845764,0.5143900392437915
668,4.652121424442157e-05,1.0,0.42752137780189514,0.5143900392437915
669,4.634781726053916e-05,1.0,0.4276329278945923,0.5143900392437915
670,4.6175598981790245e-05,1.0,0.4277091324329376,0.5143900392437915
671,4.6004013711353764e-05,1.0,0.42782145738601685,0.5143900392437915
672,4.5836153731215745e-05,1.0,0.42790499329566956,0.5143900392437915
673,4.566657298710197e-05,1.0,0.42799538373947144,0.5143900392437915
674,4.5496984967030585e-05,1.0,0.4280878007411957,0.5143900392437915
675,4.532969251158647e-05,1.0,0.428192675113678,0.5144406703992916
676,4.516156332101673e-05,1.0,0.42829400300979614,0.5144406703992916
677,4.5004067942500114e-05,1.0,0.4283786416053772,0.5144406703992916
678,4.483455995796248e-05,1.0,0.42846161127090454,0.5144406703992916
679,4.467016697162762e-05,1.0,0.42855706810951233,0.5144406703992916
680,4.450350388651714e-05,1.0,0.4286652207374573,0.5144406703992916
681,4.434239963302389e-05,1.0,0.42875200510025024,0.5144406703992916
682,4.4181037083035335e-05,1.0,0.4288448095321655,0.5144406703992916
683,4.401667683850974e-05,1.0,0.4289252460002899,0.5144406703992916
684,4.38568604295142e-05,1.0,0.4290311932563782,0.5144406703992916
685,4.369518137536943e-05,1.0,0.4291280508041382,0.5144406703992916
686,4.3540727347135544e-05,1.0,0.42920365929603577,0.5144406703992916
687,4.3378669943194836e-05,1.0,0.4292941391468048,0.5144406703992916
688,4.322373206377961e-05,1.0,0.42939046025276184,0.5144406703992916
689,4.3067222577519715e-05,1.0,0.42947715520858765,0.5144406703992916
690,4.291130608180538e-05,1.0,0.42958152294158936,0.5144406703992916
691,4.275410174159333e-05,1.0,0.4296659231185913,0.5144406703992916
692,4.259985507815145e-05,1.0,0.4297506511211395,0.5144406703992916
693,4.244052979629487e-05,1.0,0.4298397898674011,0.5144406703992916
694,4.229153273627162e-05,1.0,0.4299478530883789,0.5144406703992916
695,4.213897045701742e-05,1.0,0.4300585091114044,0.5144406703992916
696,4.199201794108376e-05,1.0,0.43014591932296753,0.5144406703992916
697,4.183717101113871e-05,1.0,0.4302345812320709,0.5144406703992916
698,4.168427403783426e-05,1.0,0.43032100796699524,0.5144406703992916
699,4.1537008655723184e-05,1.0,0.4303973913192749,0.5144406703992916
700,4.138586882618256e-05,1.0,0.43050411343574524,0.5144411093654385
701,4.123682447243482e-05,1.0,0.43060168623924255,0.5144411093654385
702,4.108337088837288e-05,1.0,0.4306688606739044,0.5144411093654385
703,4.0939150494523346e-05,1.0,0.4307499825954437,0.5144411093654385
704,4.079311474924907e-05,1.0,0.43083277344703674,0.5144411093654385
705,4.0648679714649916e-05,1.0,0.4309181869029999,0.5144411093654385
706,4.049905692227185e-05,1.0,0.4310389757156372,0.5144411093654385
707,4.035567326354794e-05,1.0,0.4311128556728363,0.5144411093654385
708,4.0212064050138e-05,1.0,0.43118420243263245,0.5144411093654385
709,4.0075228753266856e-05,1.0,0.4312851130962372,0.5144411093654385
710,3.992763231508434e-05,1.0,0.43138498067855835,0.5144411093654385
711,3.9781669329386204e-05,1.0,0.4314732253551483,0.5144411093654385
712,3.964397183153778e-05,1.0,0.43156296014785767,0.5144411093654385
713,3.950292375520803e-05,1.0,0.4316539764404297,0.5144411093654385
714,3.9363767427857965e-05,1.0,0.43173903226852417,0.5144411093654385
715,3.9228609239216894e-05,1.0,0.43182259798049927,0.5144411093654385
716,3.908393409801647e-05,1.0,0.43192142248153687,0.5144411093654385
717,3.894922701874748e-05,1.0,0.4320204257965088,0.5144411093654385
718,3.88103217119351e-05,1.0,0.4321245849132538,0.5144411093654385
719,3.866797123919241e-05,1.0,0.43219882249832153,0.5144411093654385
720,3.853762609651312e-05,1.0,0.43229204416275024,0.5144411093654385
721,3.8393656723201275e-05,1.0,0.4323713779449463,0.5144411093654385
722,3.826514875981957e-05,1.0,0.43245670199394226,0.5144411093654385
723,3.813265357166529e-05,1.0,0.4325456917285919,0.5144411093654385
724,3.799727346631698e-05,1.0,0.4326440989971161,0.5144411093654385
725,3.7860936572542414e-05,1.0,0.4327361583709717,0.5144411093654385
726,3.772899799514562e-05,1.0,0.4328247606754303,0.5144411093654385
727,3.759508399525657e-05,1.0,0.43290701508522034,0.5144411093654385
728,3.746576112462208e-05,1.0,0.4329586327075958,0.5144411093654385
729,3.733543780981563e-05,1.0,0.43304988741874695,0.5144411093654385
730,3.720606764545664e-05,1.0,0.43314307928085327,0.5144411093654385
731,3.7071527913212776e-05,1.0,0.433220237493515,0.5144411093654385
732,3.694113183883019e-05,1.0,0.433315634727478,0.5144411093654385
733,3.681505404529162e-05,1.0,0.4333917796611786,0.5144411093654385
734,3.6687266401713714e-05,1.0,0.4334789514541626,0.5144411093654385
735,3.6559045838657767e-05,1.0,0.4335779547691345,0.5144411093654385
736,3.6432345950743183e-05,1.0,0.4336763918399811,0.5144411093654385
737,3.6304027162259445e-05,1.0,0.43378785252571106,0.5144411093654385
738,3.617787660914473e-05,1.0,0.4338739514350891,0.5144411093654385
739,3.605629535741173e-05,1.0,0.43395674228668213,0.5144411093654385
740,3.5928329452872276e-05,1.0,0.43403124809265137,0.5144411093654385
741,3.580077463993803e-05,1.0,0.43412813544273376,0.5144411093654385
742,3.568000829545781e-05,1.0,0.4342333674430847,0.5144411093654385
743,3.555900548235513e-05,1.0,0.4343060553073883,0.5144411093654385
744,3.543430648278445e-05,1.0,0.43440893292427063,0.5144411093654385
745,3.5311648389324546e-05,1.0,0.4344882369041443,0.5144411093654385
746,3.51910712197423e-05,1.0,0.4345735013484955,0.5144411093654385
747,3.507186193019152e-05,1.0,0.43468207120895386,0.5144411093654385
748,3.495177224976942e-05,1.0,0.43474987149238586,0.5144411093654385
749,3.4833406971301883e-05,1.0,0.4348471462726593,0.5144411093654385
750,3.471093805273995e-05,1.0,0.4349046051502228,0.5144411093654385
751,3.459303843555972e-05,1.0,0.43498414754867554,0.5144411093654385
752,3.4473370760679245e-05,1.0,0.43509188294410706,0.5144411093654385
753,3.4355460229562595e-05,1.0,0.4351779520511627,0.5144411093654385
754,3.4233373298775405e-05,1.0,0.4352545142173767,0.5144411093654385
755,3.411992292967625e-05,1.0,0.4353539049625397,0.5144411093654385
756,3.400513014639728e-05,1.0,0.43543708324432373,0.5144411093654385
757,3.3888674806803465e-05,1.0,0.4355113208293915,0.5144411093654385
758,3.377331449883059e-05,1.0,0.43557897210121155,0.5144411093654385
759,3.365770317032002e-05,1.0,0.43565869331359863,0.5144411093654385
760,3.3542226447025314e-05,1.0,0.4357668459415436,0.5144411093654385
761,3.3434447686886415e-05,1.0,0.43588772416114807,0.5144411093654385
762,3.331894549774006e-05,1.0,0.4359579086303711,0.5144411093654385
763,3.3199416066054255e-05,1.0,0.4360284209251404,0.5144411093654385
764,3.309056774014607e-05,1.0,0.43610328435897827,0.5144411093654385
765,3.2978568924590945e-05,1.0,0.43618953227996826,0.5144411093654385
766,3.2869967981241643e-05,1.0,0.43627434968948364,0.5144411093654385
767,3.2757096050772816e-05,1.0,0.43635520339012146,0.5144411093654385
768,3.264123006374575e-05,1.0,0.43646135926246643,0.5144411093654385
769,3.253370232414454e-05,1.0,0.436547189950943,0.5144411093654385
770,3.242529055569321e-05,1.0,0.43661943078041077,0.5144411093654385
771,3.231441223761067e-05,1.0,0.4367031157016754,0.5144411093654385
772,3.220240614609793e-05,1.0,0.4367678165435791,0.5144411093654385
773,3.209530405001715e-05,1.0,0.43686091899871826,0.5144411093654385
774,3.199208731530234e-05,1.0,0.436946302652359,0.5144411093654385
775,3.1882816983852535e-05,1.0,0.4370349049568176,0.5144411093654385
776,3.177767575834878e-05,1.0,0.43711933493614197,0.5144411093654385
777,3.1668074370827526e-05,1.0,0.4372251331806183,0.5144928912290181
778,3.1563464290229604e-05,1.0,0.43730634450912476,0.5144411093654385
779,3.145807932014577e-05,1.0,0.4373859763145447,0.5144411093654385
780,3.135023143840954e-05,1.0,0.4374687075614929,0.514504992439139
781,3.125074726995081e-05,1.0,0.4375464618206024,0.5144411093654385
782,3.11405019601807e-05,1.0,0.4376353323459625,0.5144532105755595
783,3.104150528088212e-05,1.0,0.43772122263908386,0.514504992439139
784,3.093721898039803e-05,1.0,0.43779900670051575,0.5144532105755595
785,3.0834638891974464e-05,1.0,0.4378708004951477,0.514504992439139
786,3.073634434258565e-05,1.0,0.4379633069038391,0.514504992439139
787,3.063278199988417e-05,1.0,0.43804070353507996,0.514504992439139
788,3.05297362501733e-05,1.0,0.43812623620033264,0.514504992439139
789,3.043235483346507e-05,1.0,0.4381999969482422,0.514504992439139
790,3.0328816137625836e-05,1.0,0.43828198313713074,0.514504992439139
791,3.0227469324017875e-05,1.0,0.43836984038352966,0.514504992439139
792,3.0124840122880414e-05,1.0,0.4384342133998871,0.514504992439139
793,3.002778976224363e-05,1.0,0.43852344155311584,0.514504992439139
794,2.9929540687589906e-05,1.0,0.43859967589378357,0.514504992439139
795,2.983057129313238e-05,1.0,0.43868938088417053,0.514504992439139
796,2.973523805849254e-05,1.0,0.4387723505496979,0.514504992439139
797,2.9631626603077166e-05,1.0,0.43883809447288513,0.514504992439139
798,2.9539256502175704e-05,1.0,0.43891823291778564,0.514504992439139
799,2.9444852771121077e-05,1.0,0.4389789402484894,0.514504992439139
800,2.934583608293906e-05,1.0,0.4390684962272644,0.514504992439139
801,2.924547516158782e-05,1.0,0.43915218114852905,0.514504992439139
802,2.9150216505513526e-05,1.0,0.4392196238040924,0.514504992439139
803,2.9052618629066274e-05,1.0,0.43930160999298096,0.514504992439139
804,2.8959486371604726e-05,1.0,0.43939003348350525,0.514504992439139
805,2.8865597414551303e-05,1.0,0.43948894739151,0.514504992439139
806,2.8773505619028583e-05,1.0,0.43956753611564636,0.514504992439139
807,2.8678894523181953e-05,1.0,0.4396311640739441,0.514504992439139
808,2.8584563551703468e-05,1.0,0.43967482447624207,0.514504992439139
809,2.849219526979141e-05,1.0,0.4397466480731964,0.514504992439139
810,2.8400192604749463e-05,1.0,0.43983593583106995,0.514504992439139
811,2.830186531355139e-05,1.0,0.4399220645427704,0.514504992439139
812,2.8213427867740393e-05,1.0,0.4400104284286499,0.514504992439139
813,2.8120639399276115e-05,1.0,0.4400828778743744,0.514504992439139
814,2.803027382469736e-05,1.0,0.4401613175868988,0.514504992439139
815,2.7942020096816123e-05,1.0,0.4402361810207367,0.514504992439139
816,2.7847401725011878e-05,1.0,0.44033005833625793,0.514504992439139
817,2.7759106160374358e-05,1.0,0.44038623571395874,0.514504992439139
818,2.7672213036566973e-05,1.0,0.44046831130981445,0.514504992439139
819,2.7577609216677956e-05,1.0,0.44054293632507324,0.514504992439139
820,2.7492415028973483e-05,1.0,0.44063034653663635,0.514504992439139
821,2.740169657045044e-05,1.0,0.4407085180282593,0.514504992439139
822,2.731140557443723e-05,1.0,0.44076552987098694,0.508897655020004
823,2.7224541554460302e-05,1.0,0.44084835052490234,0.514504992439139
824,2.7139161829836667e-05,1.0,0.4409382939338684,0.508897655020004
825,2.7053203666582704e-05,1.0,0.4410210847854614,0.508897655020004
826,2.6962301490129903e-05,1.0,0.44110164046287537,0.508897655020004
827,2.6876801712205634e-05,1.0,0.4411638379096985,0.508897655020004
828,2.6791924028657377e-05,1.0,0.4412311911582947,0.5089898750065901
829,2.670192588993814e-05,1.0,0.44130954146385193,0.508897655020004
830,2.662020779098384e-05,1.0,0.4413730204105377,0.5089898750065901
831,2.6533602067502216e-05,1.0,0.4414626955986023,0.5089898750065901
832,2.6451809389982373e-05,1.0,0.44154050946235657,0.5089898750065901
833,2.636496355989948e-05,1.0,0.4416106641292572,0.5089898750065901
834,2.628065885801334e-05,1.0,0.44171637296676636,0.5089898750065901
835,2.6196685212198645e-05,1.0,0.44176438450813293,0.5089898750065901
836,2.6113888452528045e-05,1.0,0.4418317973613739,0.5089898750065901
837,2.6030100343632512e-05,1.0,0.441928893327713,0.5089898750065901
838,2.594584657344967e-05,1.0,0.44201067090034485,0.5089898750065901
839,2.5865923817036673e-05,1.0,0.44207635521888733,0.5089898750065901
840,2.577761551947333e-05,1.0,0.4421556293964386,0.5089898750065901
841,2.5698978788568638e-05,1.0,0.4422253668308258,0.5089898750065901
842,2.5617238861741498e-05,1.0,0.44229769706726074,0.5089898750065901
843,2.5536523025948554e-05,1.0,0.4423685073852539,0.5089898750065901
844,2.545170355006121e-05,1.0,0.4424615502357483,0.5089898750065901
845,2.5373414246132597e-05,1.0,0.44253042340278625,0.5089898750065901
846,2.5293100406997837e-05,1.0,0.4425901472568512,0.5089878283091411
847,2.5214365450665355e-05,1.0,0.44268858432769775,0.5089878283091411
848,2.5133605959126726e-05,1.0,0.4427337646484375,0.5089878283091411
849,2.5052890123333782e-05,1.0,0.44279488921165466,0.5089878283091411
850,2.4971042876131833e-05,1.0,0.44289594888687134,0.5089878283091411
851,2.4888769985409454e-05,1.0,0.44297701120376587,0.5089878283091411
852,2.4813160052872263e-05,1.0,0.44303062558174133,0.5089878283091411
853,2.4733610189286992e-05,1.0,0.4431179165840149,0.5089878283091411
854,2.4661050701979548e-05,1.0,0.4431835114955902,0.5089878283091411
855,2.4584398488514125e-05,1.0,0.443244606256485,0.5089878283091411
856,2.4505801775376312e-05,1.0,0.4433510899543762,0.5089878283091411
857,2.4430264602415264e-05,1.0,0.4434220492839813,0.5089878283091411
858,2.4355893401661888e-05,1.0,0.4434913694858551,0.5089878283091411
859,2.427734580123797e-05,1.0,0.44357457756996155,0.5089878283091411
860,2.4201270207413472e-05,1.0,0.4436418414115906,0.5089878283091411
861,2.41240795730846e-05,1.0,0.44369518756866455,0.5089878283091411
862,2.404977749392856e-05,1.0,0.4437776505947113,0.5089878283091411
863,2.3972908820724115e-05,1.0,0.4438444674015045,0.5089878283091411
864,2.3898975996416993e-05,1.0,0.4439292550086975,0.5089878283091411
865,2.382271850365214e-05,1.0,0.44400861859321594,0.5089878283091411
866,2.3750046239001676e-05,1.0,0.44407418370246887,0.5089878283091411
867,2.3672782845096663e-05,1.0,0.44416454434394836,0.5089878283091411
868,2.3601507564308122e-05,1.0,0.4442296028137207,0.5089878283091411
869,2.3522638002759777e-05,1.0,0.44431009888648987,0.5089878283091411
870,2.3457363568013534e-05,1.0,0.4443804919719696,0.5089878283091411
871,2.338247577426955e-05,1.0,0.44444265961647034,0.5089892977736682
872,2.330299685127102e-05,1.0,0.44451290369033813,0.5089892977736682
873,2.323692388017662e-05,1.0,0.4445757269859314,0.5089892977736682
874,2.3163740479503758e-05,1.0,0.4446561634540558,0.5089892977736682
875,2.309052797500044e-05,1.0,0.44473326206207275,0.5089892977736682
876,2.3014463295112364e-05,1.0,0.44479694962501526,0.5089892977736682
877,2.2946616809349507e-05,1.0,0.44489070773124695,0.5089892977736682
878,2.287681127199903e-05,1.0,0.4449516534805298,0.5089892977736682
879,2.2806918423157185e-05,1.0,0.4450203478336334,0.5089892977736682
880,2.2736534447176382e-05,1.0,0.44508543610572815,0.5089892977736682
881,2.2665957658318803e-05,1.0,0.44516685605049133,0.5089892977736682
882,2.2592283130506985e-05,1.0,0.4452432692050934,0.5089892977736682
883,2.2525440726894885e-05,1.0,0.44531944394111633,0.5089892977736682
884,2.245170071546454e-05,1.0,0.44539377093315125,0.5089892977736682
885,2.238558226963505e-05,1.0,0.4454547166824341,0.5089892977736682
886,2.231481994385831e-05,1.0,0.4455186128616333,0.5089892977736682
887,2.22480739466846e-05,1.0,0.4456172585487366,0.5089892977736682
888,2.2181906388141215e-05,1.0,0.44567352533340454,0.5089892977736682
889,2.2109539713710546e-05,1.0,0.4457330107688904,0.5089892977736682
890,2.2041251213522628e-05,1.0,0.44580549001693726,0.5089892977736682
891,2.1971918613417074e-05,1.0,0.4458679258823395,0.5089892977736682
892,2.191117891925387e-05,1.0,0.44594457745552063,0.5089892977736682
893,2.1840794943273067e-05,1.0,0.4460119605064392,0.5089892977736682
894,2.1773623302578926e-05,1.0,0.44608837366104126,0.5089892977736682
895,2.1704403479816392e-05,1.0,0.4461941719055176,0.5089892977736682
896,2.164080251532141e-05,1.0,0.4462648630142212,0.5089892977736682
897,2.157514973077923e-05,1.0,0.4463363289833069,0.5089892977736682
898,2.150557702407241e-05,1.0,0.4464097023010254,0.5089892977736682
899,2.1438645489979535e-05,1.0,0.44646963477134705,0.5089892977736682
900,2.137464252882637e-05,1.0,0.4465479850769043,0.5089892977736682
901,2.1310161173460074e-05,1.0,0.4466070234775543,0.5089892977736682
902,2.124632737832144e-05,1.0,0.4466801881790161,0.5089892977736682
903,2.1182302589295432e-05,1.0,0.4467543065547943,0.5089892977736682
904,2.1112664398970082e-05,1.0,0.4468415081501007,0.5089888588075213
905,2.1052326701465063e-05,1.0,0.44691547751426697,0.5089888588075213
906,2.0990726625313982e-05,1.0,0.4469631612300873,0.5089888588075213
907,2.0924162527080625e-05,1.0,0.44706991314888,0.5089888588075213
908,2.0861751181655563e-05,1.0,0.4471445083618164,0.5089888588075213
909,2.0799059711862355e-05,1.0,0.44721120595932007,0.5089767575974004
910,2.073310679406859e-05,1.0,0.4472806751728058,0.5089767575974004
911,2.0671202946687117e-05,1.0,0.44734516739845276,0.5089767575974004
912,2.0605692043318413e-05,1.0,0.44742414355278015,0.5089767575974004
913,2.0541296180454083e-05,1.0,0.4474833309650421,0.5089767575974004
914,2.0484632841544226e-05,1.0,0.44757598638534546,0.5089767575974004
915,2.0419354768819176e-05,1.0,0.44764482975006104,0.5089767575974004
916,2.036136902461294e-05,1.0,0.4477216303348541,0.5089767575974004
917,2.0300827600294724e-05,1.0,0.44779491424560547,0.5089767575974004
918,2.0239698642399162e-05,1.0,0.4478597640991211,0.5089767575974004
919,2.01754410227295e-05,1.0,0.44794216752052307,0.5089767575974004
920,2.0111632693442516e-05,1.0,0.4480156898498535,0.5089767575974004
921,2.005315400310792e-05,1.0,0.44808563590049744,0.5089767575974004
922,1.999256528506521e-05,1.0,0.4481593370437622,0.5089767575974004
923,1.993140540434979e-05,1.0,0.44824376702308655,0.5089767575974004
924,1.9871233234880492e-05,1.0,0.44830286502838135,0.5089767575974004
925,1.9809223886113614e-05,1.0,0.4483930766582489,0.5089767575974004
926,1.975116174435243e-05,1.0,0.4484681487083435,0.5089767575974004
927,1.969348159036599e-05,1.0,0.4485338032245636,0.5089767575974004
928,1.963591785170138e-05,1.0,0.44860878586769104,0.5089767575974004
929,1.9573017198126763e-05,1.0,0.4486690163612366,0.5089767575974004
930,1.9513357983669266e-05,1.0,0.4487375319004059,0.5089767575974004
931,1.9457143935142085e-05,1.0,0.4488273859024048,0.5089767575974004
932,1.9397559299250133e-05,1.0,0.4488925337791443,0.5089767575974004
933,1.9340670405654237e-05,1.0,0.44896283745765686,0.5089767575974004
934,1.9284329027868807e-05,1.0,0.44902434945106506,0.5089767575974004
935,1.9220415197196417e-05,1.0,0.4491003453731537,0.5089767575974004
936,1.9166489437338896e-05,1.0,0.4491843283176422,0.5089767575974004
937,1.9109320419374853e-05,1.0,0.44925111532211304,0.5089767575974004
938,1.9050752598559484e-05,1.0,0.44931691884994507,0.5089767575974004
939,1.8991759134223685e-05,1.0,0.449370801448822,0.5089767575974004
940,1.893725129775703e-05,1.0,0.4494614601135254,0.5089767575974004
941,1.888143742689863e-05,1.0,0.44952282309532166,0.5089767575974004
942,1.8824364815372974e-05,1.0,0.44959932565689087,0.5089767575974004
943,1.8768550944514573e-05,1.0,0.4496786296367645,0.5089767575974004
944,1.8714898033067584e-05,1.0,0.44974789023399353,0.5089767575974004
945,1.8660135538084432e-05,1.0,0.449823796749115,0.5089767575974004
946,1.8602318959892727e-05,1.0,0.44990274310112,0.5089767575974004
947,1.854642505350057e-05,1.0,0.4499692916870117,0.5089767575974004
948,1.8493035895517096e-05,1.0,0.45003896951675415,0.5089767575974004
949,1.843712743720971e-05,1.0,0.45010673999786377,0.5089767575974004
950,1.8385087969363667e-05,1.0,0.45019903779029846,0.5089767575974004
951,1.8331211322220042e-05,1.0,0.45026928186416626,0.5089767575974004
952,1.8273953173775226e-05,1.0,0.4503262937068939,0.5089767575974004
953,1.822326157707721e-05,1.0,0.45040565729141235,0.5089767575974004
954,1.8164582797908224e-05,1.0,0.4504692256450653,0.5089767575974004
955,1.8113523765350692e-05,1.0,0.4505372643470764,0.5089767575974004
956,1.806073669285979e-05,1.0,0.4506070911884308,0.5089767575974004
957,1.8009002815233544e-05,1.0,0.450666218996048,0.5089767575974004
958,1.7953729184227996e-05,1.0,0.4507559835910797,0.5089767575974004
959,1.789928865036927e-05,1.0,0.450812965631485,0.5089767575974004
960,1.7846012269728817e-05,1.0,0.4508765637874603,0.5089767575974004
961,1.7792342987377197e-05,1.0,0.4509418308734894,0.5089767575974004
962,1.7738320821081288e-05,1.0,0.45100805163383484,0.5089767575974004
963,1.7688240404822864e-05,1.0,0.4510936737060547,0.5089767575974004
964,1.763601540005766e-05,1.0,0.4511594772338867,0.5089767575974004
965,1.758831240294967e-05,1.0,0.45123159885406494,0.5089767575974004
966,1.753126343828626e-05,1.0,0.451299250125885,0.5089767575974004
967,1.7479760572314262e-05,1.0,0.45137766003608704,0.5089767575974004
968,1.743046595947817e-05,1.0,0.4514322876930237,0.5089767575974004
969,1.7377969925291836e-05,1.0,0.4514927864074707,0.5089767575974004
970,1.7329712136415765e-05,1.0,0.4515666365623474,0.5089767575974004
971,1.7279486201005057e-05,1.0,0.4516420364379883,0.5089767575974004
972,1.7225633200723678e-05,1.0,0.45171892642974854,0.5089767575974004
973,1.717303166515194e-05,1.0,0.45177146792411804,0.5089767575974004
974,1.7124049918493256e-05,1.0,0.4518513083457947,0.5089767575974004
975,1.707453338894993e-05,1.0,0.45190301537513733,0.5089315440842666
976,1.7026572095346637e-05,1.0,0.45197921991348267,0.5089315440842666
977,1.6975252947304398e-05,1.0,0.4520532786846161,0.5089315440842666
978,1.692382647888735e-05,1.0,0.4521115720272064,0.5089315440842666
979,1.687952499196399e-05,1.0,0.45217180252075195,0.5089315440842666
980,1.6830912500154227e-05,1.0,0.4522518515586853,0.5089315440842666
981,1.677738873695489e-05,1.0,0.452321320772171,0.5089315440842666
982,1.6731386494939215e-05,1.0,0.4524083137512207,0.5089315440842666
983,1.6682333807693794e-05,1.0,0.45246797800064087,0.5089315440842666
984,1.663029433984775e-05,1.0,0.45251762866973877,0.5089315440842666
985,1.6582798707531765e-05,1.0,0.45258522033691406,0.5089315440842666
986,1.653307117521763e-05,1.0,0.4526490271091461,0.5089315440842666
987,1.648469151405152e-05,1.0,0.45271268486976624,0.5089315440842666
988,1.6440368199255317e-05,1.0,0.4527960419654846,0.5089315440842666
989,1.6389474694733508e-05,1.0,0.4528529942035675,0.5089315440842666
990,1.634407635719981e-05,1.0,0.4529179036617279,0.5089315440842666
991,1.62942596944049e-05,1.0,0.45300617814064026,0.5089315440842666
992,1.6250447515631095e-05,1.0,0.45306396484375,0.5089315440842666
993,1.6206053260248154e-05,1.0,0.45311763882637024,0.5089315440842666
994,1.6152174794115126e-05,1.0,0.4531974196434021,0.5089315440842666
995,1.6107713236124255e-05,1.0,0.4532611072063446,0.5089315440842666
996,1.6063324437709525e-05,1.0,0.4533453583717346,0.5089315440842666
997,1.601510666660033e-05,1.0,0.4533969461917877,0.5089315440842666
998,1.5971247194102034e-05,1.0,0.4534549117088318,0.5089315440842666
999,1.5921455997158773e-05,1.0,0.4535200893878937,0.5089315440842666
