,loss,recall,val_loss,val_recall
0,0.7595149874687195,0.42410714285714285,0.7568629384040833,0.18
1,0.6256529092788696,0.7508116883116883,0.752133309841156,0.18
2,0.5359782576560974,0.7999108734402852,0.7469205856323242,0.18
3,0.47656822204589844,0.788783355947535,0.7407349944114685,0.18
4,0.4320855736732483,0.8235294117647058,0.7335551381111145,0.18
5,0.3992692530155182,0.8500000000000001,0.7259687781333923,0.18
6,0.37304380536079407,0.8644973288003885,0.7178581953048706,0.18
7,0.35030561685562134,0.88878096163186,0.7099968791007996,0.18
8,0.32968395948410034,0.9047619047619048,0.7030943036079407,0.18
9,0.31187155842781067,0.9047619047619048,0.6968470811843872,0.6855670103092784
10,0.29586049914360046,0.9130645944633318,0.6915280222892761,0.6894736842105263
11,0.2811563313007355,0.9130645944633318,0.6870596408843994,0.6894736842105263
12,0.2677600383758545,0.9214285714285715,0.6833592057228088,0.6956521739130435
13,0.25488144159317017,0.9214285714285715,0.680510401725769,0.6978021978021978
14,0.2423565685749054,0.9214285714285715,0.6785004138946533,0.6978021978021978
15,0.22999951243400574,0.9214285714285715,0.6772441864013672,0.7
16,0.21777698397636414,0.9298737727910238,0.6756973266601562,0.7
17,0.20552970468997955,0.9532491818606825,0.6747540235519409,0.6978021978021978
18,0.1933940052986145,0.9532491818606825,0.6743903756141663,0.6956521739130435
19,0.18141242861747742,0.9532491818606825,0.673904538154602,0.6956521739130435
20,0.1700809895992279,0.969047619047619,0.672659695148468,0.6956521739130435
21,0.1590396910905838,0.9859154929577465,0.6701380610466003,0.6956521739130435
22,0.14859318733215332,0.9928571428571429,0.6665087938308716,0.6956521739130435
23,0.1384853720664978,1.0,0.6616646647453308,0.6956521739130435
24,0.12877225875854492,1.0,0.6557934284210205,0.7045454545454546
25,0.11956365406513214,1.0,0.6487777829170227,0.7168674698795181
26,0.11078327149152756,1.0,0.640243649482727,0.7222222222222222
27,0.10231992602348328,1.0,0.6301553249359131,0.7278481012658228
28,0.09427902102470398,1.0,0.6182463765144348,0.7212075088787417
29,0.0867072194814682,1.0,0.6041146516799927,0.7333333333333334
30,0.07968395203351974,1.0,0.5873421430587769,0.7417279411764706
31,0.07322552800178528,1.0,0.5671879649162292,0.750445632798574
32,0.0672408938407898,1.0,0.5419860482215881,0.7637453493179
33,0.06168362498283386,1.0,0.5129739046096802,0.7930756843800322
34,0.056520041078329086,1.0,0.48252546787261963,0.8073229291716686
35,0.05174184590578079,1.0,0.452625036239624,0.8309178743961352
36,0.04737221449613571,1.0,0.42578303813934326,0.8595959595959596
37,0.04339221864938736,1.0,0.40269768238067627,0.8685064935064934
38,0.03974081575870514,1.0,0.382921427488327,0.8685064935064934
39,0.036412835121154785,1.0,0.3667503297328949,0.8685064935064934
40,0.03340868279337883,1.0,0.3533387780189514,0.8669950738916257
41,0.030704205855727196,1.0,0.3413058817386627,0.8669950738916257
42,0.02826022543013096,1.0,0.33115923404693604,0.8669950738916257
43,0.026050109416246414,1.0,0.3234453499317169,0.8669950738916257
44,0.0240325964987278,1.0,0.31782808899879456,0.8669950738916257
45,0.02220744639635086,1.0,0.31378263235092163,0.8669950738916257
46,0.020560527220368385,1.0,0.31112173199653625,0.8458333333333333
47,0.019088735803961754,1.0,0.30922162532806396,0.8458333333333333
48,0.01774539239704609,1.0,0.30783405900001526,0.8458333333333333
49,0.0165247842669487,1.0,0.3069056570529938,0.8458333333333333
50,0.015419616363942623,1.0,0.30623212456703186,0.8354350567465322
51,0.014406430535018444,1.0,0.3062119483947754,0.8251273344651953
52,0.01348148100078106,1.0,0.306810200214386,0.8251273344651953
53,0.012636678293347359,1.0,0.3077337145805359,0.8251273344651953
54,0.011869393289089203,1.0,0.3089431822299957,0.8363363363363363
55,0.011173883453011513,1.0,0.3102484345436096,0.8480902777777778
56,0.010538353584706783,1.0,0.3116205036640167,0.8480902777777778
57,0.009954164735972881,1.0,0.3129889965057373,0.8480902777777778
58,0.009418148547410965,1.0,0.3142152726650238,0.8480902777777778
59,0.00892459787428379,1.0,0.31538572907447815,0.8480902777777778
60,0.008467214182019234,1.0,0.3167503774166107,0.8480902777777778
61,0.008046254515647888,1.0,0.31819602847099304,0.8480902777777778
62,0.007656274829059839,1.0,0.31968721747398376,0.8480902777777778
63,0.007295459508895874,1.0,0.3212665617465973,0.8480902777777778
64,0.006960595026612282,1.0,0.32298094034194946,0.8480902777777778
65,0.006649719551205635,1.0,0.3248552680015564,0.8480902777777778
66,0.006361170206218958,1.0,0.32679709792137146,0.8480902777777778
67,0.006091826595366001,1.0,0.3288112282752991,0.8480902777777778
68,0.005842061713337898,1.0,0.3307734727859497,0.8480902777777778
69,0.0056094941683113575,1.0,0.3325270414352417,0.8480902777777778
70,0.005393035709857941,1.0,0.334209144115448,0.8480902777777778
71,0.005191795527935028,1.0,0.33567366003990173,0.8480902777777778
72,0.00500407675281167,1.0,0.33695563673973083,0.8480902777777778
73,0.004827875178307295,1.0,0.33807510137557983,0.8480902777777778
74,0.004662293009459972,1.0,0.339058518409729,0.8480902777777778
75,0.004506612196564674,1.0,0.33995330333709717,0.8480902777777778
76,0.004360726568847895,1.0,0.34078502655029297,0.8480902777777778
77,0.004223847296088934,1.0,0.3416346609592438,0.8480902777777778
78,0.004094869364053011,1.0,0.3425104320049286,0.8480902777777778
79,0.003973017912358046,1.0,0.3434485197067261,0.8480902777777778
80,0.003857871750369668,1.0,0.3444008231163025,0.8480902777777778
81,0.003748974995687604,1.0,0.3453027904033661,0.8480902777777778
82,0.0036459623370319605,1.0,0.3461339473724365,0.8480902777777778
83,0.0035484086256474257,1.0,0.3468905985355377,0.8480902777777778
84,0.0034555767197161913,1.0,0.3475850522518158,0.8480902777777778
85,0.003367080120369792,1.0,0.34825849533081055,0.8480902777777778
86,0.0032827891409397125,1.0,0.3489041328430176,0.8480902777777778
87,0.003202439984306693,1.0,0.34947648644447327,0.8480902777777778
88,0.003125726245343685,1.0,0.3499844968318939,0.8480902777777778
89,0.0030525391921401024,1.0,0.3504589796066284,0.8480902777777778
90,0.0029825051315128803,1.0,0.3509165346622467,0.8480902777777778
91,0.0029154191724956036,1.0,0.35137709975242615,0.8480902777777778
92,0.002850997494533658,1.0,0.3518392741680145,0.8480902777777778
93,0.0027891481295228004,1.0,0.3523402214050293,0.8480902777777778
94,0.0027297630440443754,1.0,0.35287314653396606,0.8480902777777778
95,0.0026728161610662937,1.0,0.35344940423965454,0.8480902777777778
96,0.0026181694120168686,1.0,0.3540191948413849,0.8480902777777778
97,0.002565591363236308,1.0,0.3546161949634552,0.8480902777777778
98,0.0025149465072900057,1.0,0.35522696375846863,0.8480902777777778
99,0.0024661612696945667,1.0,0.355843722820282,0.8480902777777778
100,0.0024191609118133783,1.0,0.35645461082458496,0.8480902777777778
101,0.0023739044554531574,1.0,0.35704612731933594,0.8480902777777778
102,0.0023302040062844753,1.0,0.35762324929237366,0.8480902777777778
103,0.0022878863383084536,1.0,0.35820287466049194,0.8480902777777778
104,0.0022469335235655308,1.0,0.35878345370292664,0.8480902777777778
105,0.0022072920110076666,1.0,0.35938483476638794,0.8480902777777778
106,0.0021689787972718477,1.0,0.36000654101371765,0.8480902777777778
107,0.0021319082006812096,1.0,0.36064398288726807,0.8480902777777778
108,0.0020959675312042236,1.0,0.36128294467926025,0.8480902777777778
109,0.002061048522591591,1.0,0.3619133532047272,0.8480902777777778
110,0.002027211943641305,1.0,0.36253222823143005,0.8480902777777778
111,0.0019943914376199245,1.0,0.36312445998191833,0.8480902777777778
112,0.001962505280971527,1.0,0.363667368888855,0.8480902777777778
113,0.0019314870005473495,1.0,0.3641689121723175,0.8480902777777778
114,0.0019012962002307177,1.0,0.3646155595779419,0.8480902777777778
115,0.0018719140207394958,1.0,0.36503615975379944,0.8480902777777778
116,0.0018433226505294442,1.0,0.36545974016189575,0.8480902777777778
117,0.001815491239540279,1.0,0.36590883135795593,0.8480902777777778
118,0.0017884067492559552,1.0,0.3664010465145111,0.8480902777777778
119,0.0017620014259591699,1.0,0.36693358421325684,0.8480902777777778
120,0.0017362373182550073,1.0,0.3675060272216797,0.8480902777777778
121,0.0017111132619902492,1.0,0.3681022524833679,0.8480902777777778
122,0.0016865911893546581,1.0,0.36870887875556946,0.8480902777777778
123,0.001662681926973164,1.0,0.369297057390213,0.8480902777777778
124,0.0016393583500757813,1.0,0.36985236406326294,0.8480902777777778
125,0.0016165442066267133,1.0,0.3703623116016388,0.8480902777777778
126,0.001594276400282979,1.0,0.3708232045173645,0.8480902777777778
127,0.0015725077828392386,1.0,0.3712448477745056,0.8480902777777778
128,0.0015512200770899653,1.0,0.3716290295124054,0.8480902777777778
129,0.0015304159605875611,1.0,0.3719993531703949,0.8480902777777778
130,0.0015100479358807206,1.0,0.37238672375679016,0.8480902777777778
131,0.0014901453396305442,1.0,0.3727878928184509,0.8480902777777778
132,0.0014706512447446585,1.0,0.37318554520606995,0.8480902777777778
133,0.0014515233924612403,1.0,0.3735729157924652,0.8480902777777778
134,0.001432817429304123,1.0,0.3739453852176666,0.8480902777777778
135,0.0014145567547529936,1.0,0.37430888414382935,0.8480902777777778
136,0.0013966610422357917,1.0,0.37467771768569946,0.8480902777777778
137,0.0013791563687846065,1.0,0.37504756450653076,0.8480902777777778
138,0.0013620201498270035,1.0,0.3754442036151886,0.8480902777777778
139,0.001345214550383389,1.0,0.37584829330444336,0.8384615384615385
140,0.0013287391047924757,1.0,0.3762756288051605,0.8384615384615385
141,0.0013125857803970575,1.0,0.3767161965370178,0.8384615384615385
142,0.0012967416550964117,1.0,0.37715765833854675,0.8384615384615385
143,0.0012812050990760326,1.0,0.37760215997695923,0.8384615384615385
144,0.0012659361818805337,1.0,0.3780413269996643,0.8384615384615385
145,0.0012509298976510763,1.0,0.3784738779067993,0.8384615384615385
146,0.00123621488455683,1.0,0.3788936138153076,0.8384615384615385
147,0.0012217829935252666,1.0,0.37930577993392944,0.8384615384615385
148,0.001207607565447688,1.0,0.379697322845459,0.8384615384615385
149,0.001193706993944943,1.0,0.38008543848991394,0.8384615384615385
150,0.0011800476349890232,1.0,0.3804827034473419,0.8384615384615385
151,0.001166659640148282,1.0,0.3808709681034088,0.8384615384615385
152,0.001153511693701148,1.0,0.3812464773654938,0.8384615384615385
153,0.001140605309046805,1.0,0.3815946578979492,0.8384615384615385
154,0.0011279189493507147,1.0,0.38192862272262573,0.8384615384615385
155,0.0011154632084071636,1.0,0.3822557330131531,0.8384615384615385
156,0.0011032321490347385,1.0,0.38259315490722656,0.8384615384615385
157,0.0010912020225077868,1.0,0.38294222950935364,0.8384615384615385
158,0.001079388428479433,1.0,0.3832859694957733,0.8384615384615385
159,0.001067772158421576,1.0,0.38362494111061096,0.8384615384615385
160,0.001056346227414906,1.0,0.38396701216697693,0.8384615384615385
161,0.0010451320558786392,1.0,0.38428544998168945,0.8384615384615385
162,0.0010341093875467777,1.0,0.3846050500869751,0.8384615384615385
163,0.0010232639033347368,1.0,0.3849422335624695,0.8384615384615385
164,0.0010125742992386222,1.0,0.38529548048973083,0.8384615384615385
165,0.0010020844638347626,1.0,0.38565611839294434,0.8384615384615385
166,0.0009917456191033125,1.0,0.38601264357566833,0.8384615384615385
167,0.0009815983939915895,1.0,0.38636767864227295,0.8384615384615385
168,0.0009716177592054009,1.0,0.3867201805114746,0.8384615384615385
169,0.0009618012118153274,1.0,0.3870733976364136,0.8384615384615385
170,0.0009521440952084959,1.0,0.38743430376052856,0.8384615384615385
171,0.0009426416363567114,1.0,0.38777631521224976,0.8384615384615385
172,0.0009332866757176816,1.0,0.3881075084209442,0.8384615384615385
173,0.0009240758372470737,1.0,0.38842085003852844,0.8384615384615385
174,0.0009150016121566296,1.0,0.38875165581703186,0.8384615384615385
175,0.00090608443133533,1.0,0.3891006410121918,0.8384615384615385
176,0.0008972946088761091,1.0,0.38946396112442017,0.8384615384615385
177,0.0008886368595995009,1.0,0.38980409502983093,0.8384615384615385
178,0.000880077772308141,1.0,0.39014020562171936,0.8384615384615385
179,0.0008716437150724232,1.0,0.3904639780521393,0.8384615384615385
180,0.0008633536635898054,1.0,0.3907875716686249,0.8384615384615385
181,0.0008551718201488256,1.0,0.39112135767936707,0.8384615384615385
182,0.0008471316541545093,1.0,0.39145416021347046,0.8384615384615385
183,0.0008392151794396341,1.0,0.3917955756187439,0.8384615384615385
184,0.0008314130245707929,1.0,0.3921434283256531,0.8384615384615385
185,0.0008237070869654417,1.0,0.3925021290779114,0.8384615384615385
186,0.0008161417208611965,1.0,0.39284956455230713,0.8384615384615385
187,0.0008086726884357631,1.0,0.39319315552711487,0.8384615384615385
188,0.0008013130282051861,1.0,0.39353102445602417,0.8384615384615385
189,0.000794057035818696,1.0,0.39385250210762024,0.8384615384615385
190,0.0007869069231674075,1.0,0.39417150616645813,0.8384615384615385
191,0.0007798567530699074,1.0,0.3944888710975647,0.8384615384615385
192,0.0007729136850684881,1.0,0.3948116898536682,0.8384615384615385
193,0.0007660730043426156,1.0,0.39511802792549133,0.8384615384615385
194,0.0007593119516968727,1.0,0.3954179286956787,0.8384615384615385
195,0.0007526545086875558,1.0,0.39572447538375854,0.8384615384615385
196,0.0007460684864781797,1.0,0.39602354168891907,0.8384615384615385
197,0.0007395955617539585,1.0,0.3963131010532379,0.8384615384615385
198,0.0007331963279284537,1.0,0.3966131806373596,0.8384615384615385
199,0.000726891215890646,1.0,0.396899551153183,0.8384615384615385
200,0.0007206669542938471,1.0,0.3971949815750122,0.8384615384615385
201,0.0007145404815673828,1.0,0.39750057458877563,0.8384615384615385
202,0.0007084828685037792,1.0,0.39781346917152405,0.8384615384615385
203,0.0007025109953247011,1.0,0.39812469482421875,0.8384615384615385
204,0.000696611765306443,1.0,0.39842185378074646,0.8384615384615385
205,0.0006907947245053947,1.0,0.3986986577510834,0.8384615384615385
206,0.0006850442150607705,1.0,0.3989831805229187,0.8384615384615385
207,0.0006793795619159937,1.0,0.39927974343299866,0.8384615384615385
208,0.000673787435516715,1.0,0.39958715438842773,0.8384615384615385
209,0.0006682738312520087,1.0,0.399865984916687,0.8384615384615385
210,0.0006628329283557832,1.0,0.40015533566474915,0.8384615384615385
211,0.0006574621656909585,1.0,0.4004548192024231,0.8384615384615385
212,0.0006521593895740807,1.0,0.40072867274284363,0.8384615384615385
213,0.0006469350773841143,1.0,0.40098264813423157,0.8384615384615385
214,0.0006417596014216542,1.0,0.40124979615211487,0.8384615384615385
215,0.0006366662564687431,1.0,0.4015245735645294,0.8384615384615385
216,0.0006316325161606073,1.0,0.40181201696395874,0.8384615384615385
217,0.0006266641430556774,1.0,0.40209877490997314,0.8384615384615385
218,0.0006217601476237178,1.0,0.4023565649986267,0.8384615384615385
219,0.0006169084808789194,1.0,0.4026186764240265,0.8384615384615385
220,0.0006121258484199643,1.0,0.40289607644081116,0.8384615384615385
221,0.0006073968252167106,1.0,0.403190553188324,0.8384615384615385
222,0.0006027201889082789,1.0,0.4034610986709595,0.8384615384615385
223,0.0005981185822747648,1.0,0.4037255346775055,0.8384615384615385
224,0.0005935598164796829,1.0,0.40401026606559753,0.8384615384615385
225,0.0005890629254281521,1.0,0.4043053686618805,0.8384615384615385
226,0.0005846208077855408,1.0,0.4045563340187073,0.8384615384615385
227,0.0005802275845780969,1.0,0.4047975540161133,0.8384615384615385
228,0.0005758878542110324,1.0,0.40504926443099976,0.8384615384615385
229,0.0005715934676118195,1.0,0.40531736612319946,0.8384615384615385
230,0.000567362061701715,1.0,0.4055858552455902,0.8384615384615385
231,0.0005631700623780489,1.0,0.40582171082496643,0.8384615384615385
232,0.0005590351647697389,1.0,0.4060683846473694,0.8384615384615385
233,0.0005549455527216196,1.0,0.4063170552253723,0.8384615384615385
234,0.0005509011680260301,1.0,0.40655648708343506,0.8384615384615385
235,0.0005469079478643835,1.0,0.406780868768692,0.8384615384615385
236,0.0005429589073173702,1.0,0.40702569484710693,0.8384615384615385
237,0.0005390406586229801,1.0,0.4072704315185547,0.8384615384615385
238,0.0005351867876015604,1.0,0.40750667452812195,0.8384615384615385
239,0.0005313734291121364,1.0,0.4077388048171997,0.8384615384615385
240,0.0005276004667393863,1.0,0.40798255801200867,0.8384615384615385
241,0.0005238752928562462,1.0,0.408216267824173,0.8384615384615385
242,0.0005201928433962166,1.0,0.40842315554618835,0.8384615384615385
243,0.0005165509646758437,1.0,0.40863341093063354,0.8384615384615385
244,0.0005129519267939031,1.0,0.4088607728481293,0.8384615384615385
245,0.0005093910149298608,1.0,0.40909543633461,0.8384615384615385
246,0.0005058706155978143,1.0,0.4092996120452881,0.8384615384615385
247,0.0005023895064368844,1.0,0.40949922800064087,0.8384615384615385
248,0.0004989404696971178,1.0,0.40971994400024414,0.8384615384615385
249,0.0004955320036970079,1.0,0.4099580943584442,0.8384615384615385
250,0.0004921735380776227,1.0,0.4101930856704712,0.8384615384615385
251,0.0004888316616415977,1.0,0.4104235768318176,0.8384615384615385
252,0.0004855494771618396,1.0,0.41063886880874634,0.8384615384615385
253,0.0004822838818654418,1.0,0.41084861755371094,0.8384615384615385
254,0.0004790623497683555,1.0,0.4110430181026459,0.8384615384615385
255,0.0004758753639180213,1.0,0.41126108169555664,0.8384615384615385
256,0.0004727169871330261,1.0,0.41151830554008484,0.8384615384615385
257,0.0004695775860454887,1.0,0.4117855727672577,0.8384615384615385
258,0.00046649063006043434,1.0,0.4120394289493561,0.8384615384615385
259,0.00046342870336957276,1.0,0.41226640343666077,0.8384615384615385
260,0.0004603989073075354,1.0,0.41246363520622253,0.8384615384615385
261,0.00045739172492176294,1.0,0.4126818776130676,0.8384615384615385
262,0.00045442627742886543,1.0,0.4129234850406647,0.8384615384615385
263,0.00045148463686928153,1.0,0.41316306591033936,0.8384615384615385
264,0.00044856799650005996,1.0,0.41340476274490356,0.8384615384615385
265,0.000445688288891688,1.0,0.41363218426704407,0.8384615384615385
266,0.00044283358147367835,1.0,0.41384702920913696,0.8384615384615385
267,0.0004400026809889823,1.0,0.41407522559165955,0.8384615384615385
268,0.0004372051334939897,1.0,0.4143238067626953,0.8384615384615385
269,0.00043443619506433606,1.0,0.41457054018974304,0.8384615384615385
270,0.000431693420978263,1.0,0.4148178696632385,0.8384615384615385
271,0.0004289780918043107,1.0,0.4150582551956177,0.8384615384615385
272,0.0004262900911271572,1.0,0.4152829647064209,0.8384615384615385
273,0.00042362479143776,1.0,0.4155212342739105,0.8384615384615385
274,0.00042098446283489466,1.0,0.41576457023620605,0.8384615384615385
275,0.00041836677701212466,1.0,0.4159759283065796,0.8384615384615385
276,0.00041577289812266827,1.0,0.41618409752845764,0.8384615384615385
277,0.00041320404852740467,1.0,0.4164244830608368,0.8384615384615385
278,0.00041066735866479576,1.0,0.4166628420352936,0.8384615384615385
279,0.00040815211832523346,1.0,0.4168912470340729,0.8384615384615385
280,0.0004056570469401777,1.0,0.4171150028705597,0.8384615384615385
281,0.0004031799326185137,1.0,0.4173387885093689,0.8384615384615385
282,0.00040073611307889223,1.0,0.4175526201725006,0.8384615384615385
283,0.0003983209317084402,1.0,0.4177488088607788,0.8384615384615385
284,0.00039592001121491194,1.0,0.4179540276527405,0.8384615384615385
285,0.0003935441200155765,1.0,0.4181647300720215,0.8384615384615385
286,0.0003911848762072623,1.0,0.4183701276779175,0.8384615384615385
287,0.0003888482751790434,1.0,0.4185601770877838,0.8384615384615385
288,0.00038653670344501734,1.0,0.4187568426132202,0.8384615384615385
289,0.0003842489968519658,1.0,0.41896650195121765,0.8384615384615385
290,0.00038197787944227457,1.0,0.41918838024139404,0.8384615384615385
291,0.00037972588324919343,1.0,0.41938626766204834,0.8384615384615385
292,0.00037749885814264417,1.0,0.41958320140838623,0.8384615384615385
293,0.0003752885677386075,1.0,0.4197863042354584,0.8384615384615385
294,0.00037309728213585913,1.0,0.41999220848083496,0.8384615384615385
295,0.000370920286513865,1.0,0.420205295085907,0.8384615384615385
296,0.0003687695716507733,1.0,0.4204239249229431,0.8384615384615385
297,0.00036664618528448045,1.0,0.42062559723854065,0.8384615384615385
298,0.0003645359247457236,1.0,0.42083075642585754,0.8384615384615385
299,0.0003624435339588672,1.0,0.42104998230934143,0.8384615384615385
300,0.0003603678196668625,1.0,0.4212585389614105,0.8384615384615385
301,0.00035831949207931757,1.0,0.42146608233451843,0.8384615384615385
302,0.0003562819038052112,1.0,0.42168715596199036,0.8384615384615385
303,0.00035426454269327223,1.0,0.4219096899032593,0.8384615384615385
304,0.00035226508043706417,1.0,0.42210936546325684,0.8384615384615385
305,0.0003502834588289261,1.0,0.4223163425922394,0.8384615384615385
306,0.00034832090022973716,1.0,0.42254626750946045,0.8384615384615385
307,0.0003463774046394974,1.0,0.4227512776851654,0.8384615384615385
308,0.0003444422618485987,1.0,0.4229748547077179,0.8384615384615385
309,0.0003425333125051111,1.0,0.42319589853286743,0.8384615384615385
310,0.00034063748898915946,1.0,0.42339858412742615,0.8384615384615385
311,0.00033875592635013163,1.0,0.4235967993736267,0.8384615384615385
312,0.00033688871189951897,1.0,0.4238117039203644,0.8384615384615385
313,0.00033504649763926864,1.0,0.4240226149559021,0.8384615384615385
314,0.0003332089981995523,1.0,0.4242178499698639,0.8384615384615385
315,0.00033140130108222365,1.0,0.4243990182876587,0.8384615384615385
316,0.0003295960195828229,1.0,0.42459386587142944,0.8384615384615385
317,0.0003278121293988079,1.0,0.4248009920120239,0.8384615384615385
318,0.0003260413941461593,1.0,0.42499515414237976,0.8384615384615385
319,0.00032427540281787515,1.0,0.42517393827438354,0.8384615384615385
320,0.00032254873076453805,1.0,0.42539122700691223,0.8384615384615385
321,0.0003208196721971035,1.0,0.4256192445755005,0.8384615384615385
322,0.0003191025462001562,1.0,0.42582839727401733,0.8384615384615385
323,0.00031741161365062,1.0,0.42601218819618225,0.8384615384615385
324,0.00031572661828249693,1.0,0.4262154996395111,0.8384615384615385
325,0.0003140571352560073,1.0,0.42641863226890564,0.8384615384615385
326,0.0003124019131064415,1.0,0.42659255862236023,0.8384615384615385
327,0.00031076103914529085,1.0,0.4267690181732178,0.8384615384615385
328,0.0003091284597758204,1.0,0.4269665479660034,0.8384615384615385
329,0.00030751258600503206,1.0,0.4271851181983948,0.8384615384615385
330,0.0003059098089579493,1.0,0.4273660480976105,0.8384615384615385
331,0.0003043201577384025,1.0,0.4275275468826294,0.8384615384615385
332,0.00030273525044322014,1.0,0.4277119040489197,0.8384615384615385
333,0.00030118130962364376,1.0,0.427914023399353,0.8384615384615385
334,0.00029962381813675165,1.0,0.42811310291290283,0.8384615384615385
335,0.0002980841672979295,1.0,0.4282878637313843,0.8384615384615385
336,0.00029654931859113276,1.0,0.4284594655036926,0.8384615384615385
337,0.0002950358611997217,1.0,0.42866086959838867,0.8384615384615385
338,0.00029353078571148217,1.0,0.42889219522476196,0.8384615384615385
339,0.00029204002930782735,1.0,0.4290960133075714,0.8384615384615385
340,0.00029056472703814507,1.0,0.429269939661026,0.8384615384615385
341,0.0002890894247684628,1.0,0.4294539988040924,0.8384615384615385
342,0.00028763318550772965,1.0,0.4296480417251587,0.8384615384615385
343,0.00028619245858862996,1.0,0.4298449158668518,0.8384615384615385
344,0.00028474812279455364,1.0,0.4300391376018524,0.8384615384615385
345,0.00028333000955171883,1.0,0.4302233159542084,0.8384615384615385
346,0.0002819190558511764,1.0,0.4304124712944031,0.8384615384615385
347,0.000280518812360242,1.0,0.43061769008636475,0.8384615384615385
348,0.00027912930818274617,1.0,0.43079978227615356,0.8384615384615385
349,0.00027774335467256606,1.0,0.4309695363044739,0.8384615384615385
350,0.00027638126630336046,1.0,0.4311508536338806,0.8384615384615385
351,0.0002750191488303244,1.0,0.4313477575778961,0.8384615384615385
352,0.00027367487200535834,1.0,0.4315342903137207,0.8384615384615385
353,0.0002723389770835638,1.0,0.43171122670173645,0.8384615384615385
354,0.0002710126282181591,1.0,0.43190306425094604,0.8384615384615385
355,0.0002696945739444345,1.0,0.43209701776504517,0.8384615384615385
356,0.00026838487247005105,1.0,0.4322900176048279,0.8384615384615385
357,0.00026709664962254465,1.0,0.4324856400489807,0.8384615384615385
358,0.00026580123812891543,1.0,0.4326755106449127,0.8384615384615385
359,0.00026453088503330946,1.0,0.43287160992622375,0.8384615384615385
360,0.0002632557589095086,1.0,0.43304571509361267,0.8384615384615385
361,0.0002619984734337777,1.0,0.43322911858558655,0.8384615384615385
362,0.00026075076311826706,1.0,0.43341341614723206,0.8384615384615385
363,0.00025951015413738787,1.0,0.43360328674316406,0.8384615384615385
364,0.00025828267098404467,1.0,0.43379339575767517,0.8384615384615385
365,0.00025705641019158065,1.0,0.4339899718761444,0.8384615384615385
366,0.00025585159892216325,1.0,0.4341760277748108,0.8384615384615385
367,0.0002546503092162311,1.0,0.43436312675476074,0.8384615384615385
368,0.00025345737230964005,1.0,0.4345535933971405,0.8384615384615385
369,0.00025225611170753837,1.0,0.4347432553768158,0.8384615384615385
370,0.00025108581758104265,1.0,0.43491193652153015,0.8384615384615385
371,0.0002499119727872312,1.0,0.4350924491882324,0.8384615384615385
372,0.00024874406517483294,1.0,0.43528425693511963,0.8384615384615385
373,0.00024759164080023766,1.0,0.4354599714279175,0.8384615384615385
374,0.000246445182710886,1.0,0.4356285035610199,0.8384615384615385
375,0.0002453165943734348,1.0,0.4357965886592865,0.8384615384615385
376,0.0002441832621116191,1.0,0.4359821677207947,0.8384615384615385
377,0.00024305943225044757,1.0,0.43615829944610596,0.8384615384615385
378,0.00024195467995014042,1.0,0.4363449811935425,0.8384615384615385
379,0.0002408427681075409,1.0,0.4365195631980896,0.8384615384615385
380,0.0002397463540546596,1.0,0.43669477105140686,0.8384615384615385
381,0.00023865590628702193,1.0,0.4368750751018524,0.8384615384615385
382,0.00023757379676681012,1.0,0.4370637536048889,0.8384615384615385
383,0.00023649762442801148,1.0,0.4372290074825287,0.8384615384615385
384,0.0002354286116315052,1.0,0.4374023973941803,0.8384615384615385
385,0.00023437033814843744,1.0,0.43757545948028564,0.8384615384615385
386,0.00023331087140832096,1.0,0.4377540946006775,0.8384615384615385
387,0.00023227042402140796,1.0,0.4379199147224426,0.8384615384615385
388,0.00023122885613702238,1.0,0.4380887448787689,0.8384615384615385
389,0.00023020035587251186,1.0,0.4382783770561218,0.8384615384615385
390,0.00022917303431313485,1.0,0.4384399354457855,0.8384615384615385
391,0.00022815409465692937,1.0,0.43859145045280457,0.8384615384615385
392,0.00022714227088727057,1.0,0.4387691020965576,0.8384615384615385
393,0.0002261423651361838,1.0,0.4389646053314209,0.8384615384615385
394,0.00022514247393701226,1.0,0.4391290843486786,0.8384615384615385
395,0.0002241580659756437,1.0,0.43926846981048584,0.8384615384615385
396,0.00022317249386105686,1.0,0.4394148886203766,0.8384615384615385
397,0.00022219402308110148,1.0,0.4395996630191803,0.8384615384615385
398,0.00022122629161458462,1.0,0.43979987502098083,0.8384615384615385
399,0.0002202597534051165,1.0,0.439994752407074,0.8384615384615385
400,0.00021930751972831786,1.0,0.44015371799468994,0.8384615384615385
401,0.00021836243104189634,1.0,0.4402960240840912,0.8384615384615385
402,0.00021741021191701293,1.0,0.44046416878700256,0.8384615384615385
403,0.00021647464018315077,1.0,0.44063663482666016,0.8384615384615385
404,0.00021553908300120384,1.0,0.44081243872642517,0.8384615384615385
405,0.0002146166516467929,1.0,0.440981924533844,0.8384615384615385
406,0.00021370135073084384,1.0,0.4411354064941406,0.8384615384615385
407,0.00021278961503412575,1.0,0.4412982165813446,0.8384615384615385
408,0.00021187552192714065,1.0,0.4414726793766022,0.8384615384615385
409,0.0002109745255438611,1.0,0.4416445791721344,0.8384615384615385
410,0.0002100771089317277,1.0,0.4418109655380249,0.8384615384615385
411,0.00020919041708111763,1.0,0.44197049736976624,0.8384615384615385
412,0.00020830014545936137,1.0,0.4421459436416626,0.8384615384615385
413,0.00020742892229463905,1.0,0.44232985377311707,0.8384615384615385
414,0.0002065601001959294,1.0,0.44248947501182556,0.8384615384615385
415,0.0002056841185549274,1.0,0.44264671206474304,0.8384615384615385
416,0.00020482840773183852,1.0,0.44279786944389343,0.8384615384615385
417,0.00020397506887093186,1.0,0.44295692443847656,0.8384615384615385
418,0.0002031253243330866,1.0,0.44311991333961487,0.8384615384615385
419,0.00020228269568178803,1.0,0.44328466057777405,0.8384615384615385
420,0.00020144606241956353,1.0,0.44345372915267944,0.8384615384615385
421,0.00020060822134837508,1.0,0.4436219036579132,0.8384615384615385
422,0.0001997846702579409,1.0,0.443786084651947,0.8384615384615385
423,0.00019895873265340924,1.0,0.4439365267753601,0.8384615384615385
424,0.00019813876133412123,1.0,0.4441077411174774,0.8384615384615385
425,0.00019732951477635652,1.0,0.4442724883556366,0.8384615384615385
426,0.00019652624905575067,1.0,0.4444306790828705,0.8384615384615385
427,0.00019571819575503469,1.0,0.4446030855178833,0.8384615384615385
428,0.00019492562569212168,1.0,0.44476979970932007,0.8384615384615385
429,0.00019413784320931882,1.0,0.4449223279953003,0.8384615384615385
430,0.00019334648095536977,1.0,0.44507795572280884,0.8384615384615385
431,0.00019256107043474913,1.0,0.4452495872974396,0.8384615384615385
432,0.00019179232185706496,1.0,0.44543060660362244,0.8384615384615385
433,0.0001910152641357854,1.0,0.44559329748153687,0.8384615384615385
434,0.00019024535140488297,1.0,0.44576117396354675,0.8384615384615385
435,0.00018949092191178352,1.0,0.44592151045799255,0.8384615384615385
436,0.0001887317339424044,1.0,0.446083664894104,0.8384615384615385
437,0.0001879772898973897,1.0,0.44624173641204834,0.8384615384615385
438,0.0001872276479844004,1.0,0.44639432430267334,0.8384615384615385
439,0.00018647915567271411,1.0,0.4465538561344147,0.8384615384615385
440,0.00018574380374047905,1.0,0.44671928882598877,0.8384615384615385
441,0.00018500606529414654,1.0,0.4468713700771332,0.8384615384615385
442,0.00018427547183819115,1.0,0.44702184200286865,0.8384615384615385
443,0.00018355083011556417,1.0,0.44718649983406067,0.8384615384615385
444,0.000182835734449327,1.0,0.44735121726989746,0.8384615384615385
445,0.00018211467249784619,1.0,0.4474954903125763,0.8384615384615385
446,0.00018139838357456028,1.0,0.4476485252380371,0.8384615384615385
447,0.0001806963700801134,1.0,0.44781699776649475,0.8384615384615385
448,0.00017998483963310719,1.0,0.4479644000530243,0.8384615384615385
449,0.0001792935945559293,1.0,0.4481125473976135,0.8384615384615385
450,0.00017859754734672606,1.0,0.44827672839164734,0.8384615384615385
451,0.00017790270794648677,1.0,0.44843798875808716,0.8384615384615385
452,0.00017721857875585556,1.0,0.44858866930007935,0.8384615384615385
453,0.00017652730457484722,1.0,0.4487459361553192,0.8384615384615385
454,0.0001758455764502287,1.0,0.4489097595214844,0.8384615384615385
455,0.0001751769450493157,1.0,0.44906580448150635,0.8384615384615385
456,0.00017449879669584334,1.0,0.44920507073402405,0.8384615384615385
457,0.00017383135855197906,1.0,0.44936996698379517,0.8384615384615385
458,0.0001731650991132483,1.0,0.44952118396759033,0.8384615384615385
459,0.0001725119655020535,1.0,0.44966140389442444,0.8384615384615385
460,0.00017185289470944554,1.0,0.44982436299324036,0.8384615384615385
461,0.00017119974654633552,1.0,0.4499950408935547,0.8384615384615385
462,0.00017055257922038436,1.0,0.45014235377311707,0.8384615384615385
463,0.00016990538279060274,1.0,0.45028746128082275,0.8384615384615385
464,0.00016926895477809012,1.0,0.4504544734954834,0.8384615384615385
465,0.00016862772463355213,1.0,0.4506213963031769,0.8384615384615385
466,0.00016799484728835523,1.0,0.4507654905319214,0.8384615384615385
467,0.0001673595979809761,1.0,0.45089438557624817,0.8384615384615385
468,0.0001667326723691076,1.0,0.4510432481765747,0.8384615384615385
469,0.0001661176502238959,1.0,0.45121437311172485,0.8384615384615385
470,0.00016549670544918627,1.0,0.4513706862926483,0.8384615384615385
471,0.0001648745674174279,1.0,0.45151400566101074,0.8384615384615385
472,0.00016427147784270346,1.0,0.4516574740409851,0.8384615384615385
473,0.0001636671950109303,1.0,0.45180967450141907,0.8384615384615385
474,0.00016304980090353638,1.0,0.45196327567100525,0.8384615384615385
475,0.00016244793368969113,1.0,0.4521104395389557,0.8384615384615385
476,0.0001618483947822824,1.0,0.45225271582603455,0.8384615384615385
477,0.00016125247930176556,1.0,0.45240524411201477,0.8384615384615385
478,0.0001606600999366492,1.0,0.45254597067832947,0.8384615384615385
479,0.0001600749237695709,1.0,0.45269259810447693,0.8384615384615385
480,0.00015948493091855198,1.0,0.4528316259384155,0.8384615384615385
481,0.00015890806389506906,1.0,0.45298826694488525,0.8384615384615385
482,0.00015832047211006284,1.0,0.45313337445259094,0.8384615384615385
483,0.00015775075007695705,1.0,0.453262597322464,0.8384615384615385
484,0.0001571774628246203,1.0,0.4534109830856323,0.8384615384615385
485,0.0001566101418575272,1.0,0.4535789489746094,0.8384615384615385
486,0.00015604162763338536,1.0,0.4537264108657837,0.8384615384615385
487,0.0001554790505906567,1.0,0.4538532793521881,0.8384615384615385
488,0.000154917681356892,1.0,0.4539855122566223,0.8384615384615385
489,0.00015436821558978409,1.0,0.45412206649780273,0.8384615384615385
490,0.0001538092183182016,1.0,0.4542803168296814,0.8384615384615385
491,0.00015325620188377798,1.0,0.4544333219528198,0.8384615384615385
492,0.0001527031563455239,1.0,0.4545648992061615,0.8384615384615385
493,0.00015216085012070835,1.0,0.45469459891319275,0.8384615384615385
494,0.0001516185438958928,1.0,0.45484521985054016,0.8384615384615385
495,0.00015107505896594375,1.0,0.45499759912490845,0.8384615384615385
496,0.000150544656207785,1.0,0.45513319969177246,0.8384615384615385
497,0.00015001070278231055,1.0,0.4552876055240631,0.8384615384615385
498,0.00014947792806196958,1.0,0.45543184876441956,0.8384615384615385
499,0.00014894753985572606,1.0,0.455580472946167,0.8384615384615385
500,0.0001484290842199698,1.0,0.4557139575481415,0.8384615384615385
501,0.00014790106797590852,1.0,0.45585668087005615,0.8384615384615385
502,0.0001473861775593832,1.0,0.4560050964355469,0.8384615384615385
503,0.00014686649956274778,1.0,0.45614564418792725,0.8384615384615385
504,0.00014635994739364833,1.0,0.4562845528125763,0.8384615384615385
505,0.00014584505697712302,1.0,0.4564343988895416,0.8384615384615385
506,0.00014533611829392612,1.0,0.4565879702568054,0.8384615384615385
507,0.00014483672566711903,1.0,0.4567263424396515,0.8384615384615385
508,0.00014432898024097085,1.0,0.45686739683151245,0.8384615384615385
509,0.00014383076631929725,1.0,0.4570103585720062,0.8384615384615385
510,0.0001433313445886597,1.0,0.45716169476509094,0.8384615384615385
511,0.00014283791824709624,1.0,0.45729508996009827,0.8384615384615385
512,0.00014234207628760487,1.0,0.4574286639690399,0.8384615384615385
513,0.00014185698819346726,1.0,0.4575548470020294,0.8384615384615385
514,0.00014136830577626824,1.0,0.4577043950557709,0.8384615384615385
515,0.00014088321768213063,1.0,0.45784440636634827,0.8384615384615385
516,0.0001403992937412113,1.0,0.45796865224838257,0.8384615384615385
517,0.00013992135063745081,1.0,0.4581116735935211,0.8384615384615385
518,0.00013944576494395733,1.0,0.45825856924057007,0.8384615384615385
519,0.00013896067684981972,1.0,0.45838019251823425,0.8384615384615385
520,0.00013849583046976477,1.0,0.4585202932357788,0.8384615384615385
521,0.0001380238390993327,1.0,0.45866653323173523,0.8384615384615385
522,0.00013755900727119297,1.0,0.4587962329387665,0.8384615384615385
523,0.0001370929676340893,1.0,0.45892995595932007,0.8384615384615385
524,0.0001366305077681318,1.0,0.45907407999038696,0.8384615384615385
525,0.00013616090291179717,1.0,0.4592048227787018,0.8384615384615385
526,0.0001357103610644117,1.0,0.4593459963798523,0.8384615384615385
527,0.00013525148096960038,1.0,0.45948415994644165,0.8384615384615385
528,0.0001348009391222149,1.0,0.4596154987812042,0.8384615384615385
529,0.00013435039727482945,1.0,0.4597541391849518,0.8384615384615385
530,0.00013389508239924908,1.0,0.45989227294921875,0.8384615384615385
531,0.00013344813487492502,1.0,0.4600332975387573,0.8384615384615385
532,0.00013300354476086795,1.0,0.4601803421974182,0.8384615384615385
533,0.00013256134116090834,1.0,0.46031469106674194,0.8384615384615385
534,0.00013212629710324109,1.0,0.4604394733905792,0.8384615384615385
535,0.00013168291479814798,1.0,0.460573673248291,0.8384615384615385
536,0.00013125382247380912,1.0,0.4607146978378296,0.8384615384615385
537,0.00013081400538794696,1.0,0.4608601927757263,0.8384615384615385
538,0.00013038252654951066,1.0,0.4610002040863037,0.8384615384615385
539,0.00012995582073926926,1.0,0.4611411988735199,0.8384615384615385
540,0.00012952435645274818,1.0,0.4612734019756317,0.8384615384615385
541,0.00012910837540403008,1.0,0.4614010155200958,0.8384615384615385
542,0.00012867810437455773,1.0,0.4615383446216583,0.8384615384615385
543,0.0001282597368117422,1.0,0.4616855978965759,0.8384615384615385
544,0.00012784256250597537,1.0,0.4618360698223114,0.8384615384615385
545,0.00012742540275212377,1.0,0.46196699142456055,0.8384615384615385
546,0.00012700940715149045,1.0,0.4620949923992157,0.8384615384615385
547,0.00012660295760724694,1.0,0.46222883462905884,0.8384615384615385
548,0.00012618103937711567,1.0,0.4623659551143646,0.8384615384615385
549,0.0001257769763469696,1.0,0.46250608563423157,0.8384615384615385
550,0.0001253812515642494,1.0,0.4626462161540985,0.8384615384615385
551,0.0001249700435437262,1.0,0.4627925455570221,0.8384615384615385
552,0.0001245731400558725,1.0,0.4629381597042084,0.8384615384615385
553,0.00012416549725458026,1.0,0.4630664587020874,0.8384615384615385
554,0.00012376978702377528,1.0,0.46318942308425903,0.8384615384615385
555,0.00012337169027887285,1.0,0.46330526471138,0.8384615384615385
556,0.00012297833745833486,1.0,0.46343696117401123,0.8384615384615385
557,0.00012258978676982224,1.0,0.4635767340660095,0.8384615384615385
558,0.00012219883501529694,1.0,0.46371936798095703,0.8384615384615385
559,0.0001218114557559602,1.0,0.46386098861694336,0.8384615384615385
560,0.00012142169725848362,1.0,0.4639865756034851,0.8384615384615385
561,0.00012104384950362146,1.0,0.464114248752594,0.8384615384615385
562,0.00012065647024428472,1.0,0.46424970030784607,0.8384615384615385
563,0.00012027625052724034,1.0,0.46438702940940857,0.8384615384615385
564,0.00011989721679128706,1.0,0.46451255679130554,0.8384615384615385
565,0.00011951938358834013,1.0,0.4646333158016205,0.8384615384615385
566,0.00011914392962353304,1.0,0.46475866436958313,0.8384615384615385
567,0.00011877442739205435,1.0,0.4648915231227875,0.8384615384615385
568,0.00011840373190352693,1.0,0.4650179147720337,0.8384615384615385
569,0.00011802947119576856,1.0,0.46515002846717834,0.8384615384615385
570,0.00011766473471652716,1.0,0.4652860462665558,0.8384615384615385
571,0.00011729881953215227,1.0,0.46541526913642883,0.8384615384615385
572,0.00011693527630995959,1.0,0.465533047914505,0.8384615384615385
573,0.00011657532013487071,1.0,0.46564850211143494,0.8384615384615385
574,0.00011621177691267803,1.0,0.46577444672584534,0.8384615384615385
575,0.00011585657921386883,1.0,0.46590811014175415,0.8384615384615385
576,0.0001154954225057736,1.0,0.46602925658226013,0.8384615384615385
577,0.00011514261132106185,1.0,0.466144323348999,0.8384615384615385
578,0.00011478504166007042,1.0,0.46626776456832886,0.8384615384615385
579,0.00011443460243754089,1.0,0.46638455986976624,0.8384615384615385
580,0.0001140853637480177,1.0,0.4665128290653229,0.8384615384615385
581,0.00011374209134373814,1.0,0.4666348993778229,0.8384615384615385
582,0.00011338690092088655,1.0,0.4667508602142334,0.8384615384615385
583,0.00011304837971692905,1.0,0.46687978506088257,0.8384615384615385
584,0.00011269914830336347,1.0,0.4670160710811615,0.8384615384615385
585,0.00011235825513722375,1.0,0.4671405553817749,0.8384615384615385
586,0.00011201854795217514,1.0,0.46725723147392273,0.8384615384615385
587,0.00011167883349116892,1.0,0.46737104654312134,0.8384615384615385
588,0.00011134152737213299,1.0,0.46748992800712585,0.8384615384615385
589,0.0001110030134441331,1.0,0.46760863065719604,0.8384615384615385
590,0.00011067642481066287,1.0,0.4677336812019348,0.8384615384615385
591,0.00011034149792976677,1.0,0.4678500294685364,0.8384615384615385
592,0.00011001132224919274,1.0,0.46798139810562134,0.8384615384615385
593,0.0001096799605875276,1.0,0.46811947226524353,0.8384615384615385
594,0.00010934741294477135,1.0,0.4682312607765198,0.8384615384615385
595,0.00010902321082539856,1.0,0.46833860874176025,0.8384615384615385
596,0.00010869780089706182,1.0,0.46845778822898865,0.8384615384615385
597,0.00010837835725396872,1.0,0.4685903787612915,0.8384615384615385
598,0.00010805414785863832,1.0,0.46871471405029297,0.8384615384615385
599,0.00010773351095849648,1.0,0.46882662177085876,0.8384615384615385
600,0.00010741884761955589,1.0,0.4689449071884155,0.8384615384615385
601,0.0001070994112524204,1.0,0.469075083732605,0.8384615384615385
602,0.00010677996033336967,1.0,0.46918967366218567,0.8384615384615385
603,0.00010646767623256892,1.0,0.4692949652671814,0.8384615384615385
604,0.00010615061910357326,1.0,0.4694155156612396,0.8384615384615385
605,0.00010584667325019836,1.0,0.46954476833343506,0.8384615384615385
606,0.00010552603635005653,1.0,0.469673216342926,0.8384615384615385
607,0.00010522446973482147,1.0,0.4697924554347992,0.8384615384615385
608,0.00010490621934877709,1.0,0.4699188768863678,0.8384615384615385
609,0.00010460704652359709,1.0,0.47004878520965576,0.8384615384615385
610,0.00010430190741317347,1.0,0.4701693654060364,0.8384615384615385
611,0.00010399080929346383,1.0,0.47028452157974243,0.8384615384615385
612,0.00010369282244937494,1.0,0.47039589285850525,0.8384615384615385
613,0.00010339364234823734,1.0,0.4705127477645874,0.8384615384615385
614,0.00010309208300895989,1.0,0.47063833475112915,0.8384615384615385
615,0.00010280005517415702,1.0,0.47076818346977234,0.8384615384615385
616,0.00010249730257783085,1.0,0.4708922505378723,0.8384615384615385
617,0.00010220168769592419,1.0,0.47100579738616943,0.8384615384615385
618,0.00010190488683292642,1.0,0.47112661600112915,0.8384615384615385
619,0.00010161881800740957,1.0,0.4712563157081604,0.8384615384615385
620,0.00010132321767741814,1.0,0.47138676047325134,0.8384615384615385
621,0.00010103476961376145,1.0,0.47150862216949463,0.8384615384615385
622,0.00010074274177895859,1.0,0.4716339707374573,0.8384615384615385
623,0.00010045070666819811,1.0,0.47176048159599304,0.8384615384615385
624,0.00010016582382377237,1.0,0.4718817472457886,0.8384615384615385
625,9.988214878831059e-05,1.0,0.47200047969818115,0.8384615384615385
626,9.959846647689119e-05,1.0,0.47211647033691406,0.8384615384615385
627,9.93159701465629e-05,1.0,0.4722338616847992,0.8384615384615385
628,9.903823956847191e-05,1.0,0.47235381603240967,0.8384615384615385
629,9.875217074295506e-05,1.0,0.47248244285583496,0.8384615384615385
630,9.846848843153566e-05,1.0,0.47259971499443054,0.8384615384615385
631,9.819075057748705e-05,1.0,0.4727143347263336,0.8384615384615385
632,9.791064803721383e-05,1.0,0.4728420078754425,0.8384615384615385
633,9.764246351551265e-05,1.0,0.4729645848274231,0.8384615384615385
634,9.736473293742165e-05,1.0,0.47308316826820374,0.8384615384615385
635,9.709296864457428e-05,1.0,0.47319647669792175,0.8384615384615385
636,9.682000381872058e-05,1.0,0.47331809997558594,0.8384615384615385
637,9.654347377363592e-05,1.0,0.47344350814819336,0.8384615384615385
638,9.62740887189284e-05,1.0,0.4735575020313263,0.8384615384615385
639,9.600469638826326e-05,1.0,0.4736778140068054,0.8384615384615385
640,9.574485738994554e-05,1.0,0.4737853407859802,0.8384615384615385
641,9.546712681185454e-05,1.0,0.4739055633544922,0.8384615384615385
642,9.520489402348176e-05,1.0,0.47403213381767273,0.8384615384615385
643,9.494028927292675e-05,1.0,0.47415614128112793,0.8384615384615385
644,9.46756626944989e-05,1.0,0.4742680490016937,0.8384615384615385
645,9.4412243925035e-05,1.0,0.4743746221065521,0.8384615384615385
646,9.415596286999062e-05,1.0,0.4744948446750641,0.8384615384615385
647,9.388897160533816e-05,1.0,0.47462451457977295,0.8384615384615385
648,9.363508434034884e-05,1.0,0.47474196553230286,0.8384615384615385
649,9.337165829492733e-05,1.0,0.47485244274139404,0.8384615384615385
650,9.312252950621769e-05,1.0,0.4749651849269867,0.8384615384615385
651,9.285196574637666e-05,1.0,0.4750853180885315,0.8384615384615385
652,9.260404476663098e-05,1.0,0.4752098619937897,0.8384615384615385
653,9.2353715444915e-05,1.0,0.47532522678375244,0.8384615384615385
654,9.209625568473712e-05,1.0,0.4754375219345093,0.8384615384615385
655,9.184475493384525e-05,1.0,0.47555631399154663,0.8384615384615385
656,9.159324690699577e-05,1.0,0.4756823480129242,0.8384615384615385
657,9.13465119083412e-05,1.0,0.4757869243621826,0.8384615384615385
658,9.110096289077774e-05,1.0,0.47590193152427673,0.8384615384615385
659,9.08470683498308e-05,1.0,0.47602376341819763,0.8384615384615385
660,9.059915464604273e-05,1.0,0.47614362835884094,0.8384615384615385
661,9.03500258573331e-05,1.0,0.4762641489505768,0.8384615384615385
662,9.01128223631531e-05,1.0,0.47638067603111267,0.8384615384615385
663,8.986846660263836e-05,1.0,0.47649648785591125,0.8384615384615385
664,8.962411811808124e-05,1.0,0.4766164720058441,0.8384615384615385
665,8.937976963352412e-05,1.0,0.47672346234321594,0.8384615384615385
666,8.913897909224033e-05,1.0,0.4768223464488983,0.8384615384615385
667,8.890058961696923e-05,1.0,0.4769457280635834,0.8384615384615385
668,8.86610068846494e-05,1.0,0.477079302072525,0.8384615384615385
669,8.84285764186643e-05,1.0,0.47719481587409973,0.8384615384615385
670,8.819017239147797e-05,1.0,0.47729170322418213,0.8384615384615385
671,8.795058238320053e-05,1.0,0.47739821672439575,0.8384615384615385
672,8.7721724412404e-05,1.0,0.477522075176239,0.8384615384615385
673,8.748452819418162e-05,1.0,0.47764521837234497,0.8384615384615385
674,8.724374492885545e-05,1.0,0.4777528941631317,0.8384615384615385
675,8.701370097696781e-05,1.0,0.4778546094894409,0.8384615384615385
676,8.678244921611622e-05,1.0,0.4779704511165619,0.8384615384615385
677,8.655359852127731e-05,1.0,0.478095680475235,0.8384615384615385
678,8.633069228380919e-05,1.0,0.47821834683418274,0.8384615384615385
679,8.609825454186648e-05,1.0,0.4783206880092621,0.8384615384615385
680,8.587536285631359e-05,1.0,0.4784235954284668,0.8384615384615385
681,8.564412564737722e-05,1.0,0.47853803634643555,0.8384615384615385
682,8.541764691472054e-05,1.0,0.478655606508255,0.8384615384615385
683,8.519236143911257e-05,1.0,0.47877374291419983,0.8384615384615385
684,8.4967068687547e-05,1.0,0.47888585925102234,0.8384615384615385
685,8.474298374494538e-05,1.0,0.47898954153060913,0.8384615384615385
686,8.452604379272088e-05,1.0,0.47910529375076294,0.8384615384615385
687,8.430076559307054e-05,1.0,0.47922125458717346,0.8384615384615385
688,8.408263238379732e-05,1.0,0.47932547330856323,0.8384615384615385
689,8.386211266042665e-05,1.0,0.4794383943080902,0.8384615384615385
690,8.364755194634199e-05,1.0,0.4795624017715454,0.8384615384615385
691,8.342345972778276e-05,1.0,0.47968217730522156,0.8384615384615385
692,8.32088990136981e-05,1.0,0.47978854179382324,0.8384615384615385
693,8.300150511786342e-05,1.0,0.4798973798751831,0.8384615384615385
694,8.277860615635291e-05,1.0,0.4800175130367279,0.8384615384615385
695,8.256405271822587e-05,1.0,0.48012831807136536,0.8384615384615385
696,8.235068526118994e-05,1.0,0.4802432954311371,0.8384615384615385
697,8.214089757530019e-05,1.0,0.4803580343723297,0.8384615384615385
698,8.192515088012442e-05,1.0,0.48046860098838806,0.8384615384615385
699,8.171416993718594e-05,1.0,0.48058077692985535,0.8384615384615385
700,8.150914800353348e-05,1.0,0.4806959331035614,0.8384615384615385
701,8.129458728944883e-05,1.0,0.4808128774166107,0.8384615384615385
702,8.10859928606078e-05,1.0,0.4809170365333557,0.8384615384615385
703,8.08845434221439e-05,1.0,0.4810295104980469,0.8384615384615385
704,8.067356247920543e-05,1.0,0.48114562034606934,0.8384615384615385
705,8.046854054555297e-05,1.0,0.4812561571598053,0.8384615384615385
706,8.024921407923102e-05,1.0,0.48137298226356506,0.8384615384615385
707,8.006445568753406e-05,1.0,0.48148244619369507,0.8384615384615385
708,7.985347474459559e-05,1.0,0.48159584403038025,0.8384615384615385
709,7.964964606799185e-05,1.0,0.4817112684249878,0.8384615384615385
710,7.945654942886904e-05,1.0,0.4818229675292969,0.8384615384615385
711,7.924556848593056e-05,1.0,0.4819393754005432,0.8384615384615385
712,7.904531230451539e-05,1.0,0.4820495843887329,0.8384615384615385
713,7.884982915129513e-05,1.0,0.48216214776039124,0.8384615384615385
714,7.864957296987996e-05,1.0,0.48227232694625854,0.8384615384615385
715,7.844693755032495e-05,1.0,0.4823666214942932,0.8384615384615385
716,7.825502689229324e-05,1.0,0.4824795424938202,0.8384615384615385
717,7.805715722497553e-05,1.0,0.4825979471206665,0.8384615384615385
718,7.785809430060908e-05,1.0,0.48271444439888,0.8384615384615385
719,7.766380440443754e-05,1.0,0.48281633853912354,0.8384615384615385
720,7.747188647044823e-05,1.0,0.48291873931884766,0.8384615384615385
721,7.727878983132541e-05,1.0,0.4830339848995209,0.8384615384615385
722,7.708687917329371e-05,1.0,0.4831523895263672,0.8384615384615385
723,7.688543701078743e-05,1.0,0.4832633137702942,0.8384615384615385
724,7.66971061239019e-05,1.0,0.48336896300315857,0.8384615384615385
725,7.650161569472402e-05,1.0,0.4834819734096527,0.8384615384615385
726,7.630732579855248e-05,1.0,0.48359885811805725,0.8384615384615385
727,7.612733315909281e-05,1.0,0.48371145129203796,0.8384615384615385
728,7.592827023472637e-05,1.0,0.48382362723350525,0.8384615384615385
729,7.574231858598068e-05,1.0,0.4839354455471039,0.8480902777777778
730,7.555875345133245e-05,1.0,0.4840374290943146,0.8480902777777778
731,7.536802877439186e-05,1.0,0.48414692282676697,0.8480902777777778
732,7.51773186493665e-05,1.0,0.48425668478012085,0.8480902777777778
733,7.499732600990683e-05,1.0,0.4843713343143463,0.8480902777777778
734,7.481018110411242e-05,1.0,0.4844791293144226,0.8480902777777778
735,7.463138172170147e-05,1.0,0.48458102345466614,0.8480902777777778
736,7.444185757776722e-05,1.0,0.4846992492675781,0.8480902777777778
737,7.426067895721644e-05,1.0,0.484821617603302,0.8480902777777778
738,7.407115481328219e-05,1.0,0.48492875695228577,0.8480902777777778
739,7.389234815491363e-05,1.0,0.4850228726863861,0.8480902777777778
740,7.371712854364887e-05,1.0,0.4851216673851013,0.8480902777777778
741,7.353237015195191e-05,1.0,0.4852372705936432,0.8480902777777778
742,7.335357076954097e-05,1.0,0.48535987734794617,0.8480902777777778
743,7.317596464417875e-05,1.0,0.4854685962200165,0.8480902777777778
744,7.299477874767035e-05,1.0,0.48557525873184204,0.8480902777777778
745,7.28207451174967e-05,1.0,0.4856807291507721,0.8480902777777778
746,7.264553278218955e-05,1.0,0.485792338848114,0.8480902777777778
747,7.246434688568115e-05,1.0,0.4858953654766083,0.8480902777777778
748,7.229388575069606e-05,1.0,0.48600372672080994,0.8480902777777778
749,7.210793410195038e-05,1.0,0.48611149191856384,0.8480902777777778
750,7.193390774773434e-05,1.0,0.4862130880355835,0.8480902777777778
751,7.176702638389543e-05,1.0,0.4863243103027344,0.8480902777777778
752,7.159180677263066e-05,1.0,0.4864337742328644,0.8480902777777778
753,7.141657988540828e-05,1.0,0.4865344166755676,0.8480902777777778
754,7.12508917786181e-05,1.0,0.486640602350235,0.8480902777777778
755,7.107567216735333e-05,1.0,0.4867575466632843,0.8480902777777778
756,7.091117731761187e-05,1.0,0.4868796169757843,0.8480902777777778
757,7.073475717334077e-05,1.0,0.48698243498802185,0.8480902777777778
758,7.05654892954044e-05,1.0,0.4870733618736267,0.8480902777777778
759,7.039264892227948e-05,1.0,0.48718246817588806,0.8480902777777778
760,7.022577483439818e-05,1.0,0.48730143904685974,0.8480902777777778
761,7.005651423241943e-05,1.0,0.4874134063720703,0.8480902777777778
762,6.98932126397267e-05,1.0,0.48750922083854675,0.8480902777777778
763,6.971917900955305e-05,1.0,0.4876061975955963,0.8480902777777778
764,6.955349090276286e-05,1.0,0.48771753907203674,0.8480902777777778
765,6.939138256711885e-05,1.0,0.48783043026924133,0.8480902777777778
766,6.92328394507058e-05,1.0,0.48794740438461304,0.8480902777777778
767,6.906477210577577e-05,1.0,0.48804694414138794,0.8480902777777778
768,6.89050430082716e-05,1.0,0.48815175890922546,0.8480902777777778
769,6.874054815853015e-05,1.0,0.48825958371162415,0.8480902777777778
770,6.857485277578235e-05,1.0,0.48836398124694824,0.8480902777777778
771,6.840797141194344e-05,1.0,0.4884716272354126,0.8480902777777778
772,6.826016760896891e-05,1.0,0.48858001828193665,0.8480902777777778
773,6.809685874031857e-05,1.0,0.48868468403816223,0.8480902777777778
774,6.793833017582074e-05,1.0,0.4887869954109192,0.8480902777777778
775,6.777144881198183e-05,1.0,0.488890677690506,0.8480902777777778
776,6.761291297152638e-05,1.0,0.48899146914482117,0.8480902777777778
777,6.745557038811967e-05,1.0,0.4890993535518646,0.8480902777777778
778,6.72958412906155e-05,1.0,0.48920661211013794,0.8480902777777778
779,6.713730545016006e-05,1.0,0.4893137216567993,0.8480902777777778
780,6.698592187603936e-05,1.0,0.48941856622695923,0.8480902777777778
781,6.682738603558391e-05,1.0,0.4895080327987671,0.8480902777777778
782,6.667718844255432e-05,1.0,0.48961341381073,0.8480902777777778
783,6.65186598780565e-05,1.0,0.4897356629371643,0.8480902777777778
784,6.636012403760105e-05,1.0,0.489852637052536,0.8480902777777778
785,6.621111970162019e-05,1.0,0.4899490773677826,0.8480902777777778
786,6.605854287045076e-05,1.0,0.49005088210105896,0.8480902777777778
787,6.58988137729466e-05,1.0,0.4901569187641144,0.8480902777777778
788,6.575458246516064e-05,1.0,0.4902580976486206,0.8480902777777778
789,6.559961911989376e-05,1.0,0.49036017060279846,0.8480902777777778
790,6.544108327943832e-05,1.0,0.49046874046325684,0.8480902777777778
791,6.52932794764638e-05,1.0,0.49057838320732117,0.8480902777777778
792,6.514666165458038e-05,1.0,0.4906879961490631,0.8480902777777778
793,6.500004383269697e-05,1.0,0.49079594016075134,0.8480902777777778
794,6.484866025857627e-05,1.0,0.49089014530181885,0.8480902777777778
795,6.469966319855303e-05,1.0,0.4909907877445221,0.8480902777777778
796,6.454827962443233e-05,1.0,0.4911048710346222,0.8480902777777778
797,6.440284778364003e-05,1.0,0.4912060499191284,0.8480902777777778
798,6.42550439806655e-05,1.0,0.4912957549095154,0.8480902777777778
799,6.411200592992827e-05,1.0,0.49139535427093506,0.8480902777777778
800,6.396538083208725e-05,1.0,0.49150800704956055,0.8480902777777778
801,6.381519051501527e-05,1.0,0.49161192774772644,0.8480902777777778
802,6.366738671204075e-05,1.0,0.49170440435409546,0.8480902777777778
803,6.352791388053447e-05,1.0,0.4917951822280884,0.8480902777777778
804,6.338130333460867e-05,1.0,0.4918981194496155,0.8480902777777778
805,6.324421701719984e-05,1.0,0.49199965596199036,0.8480902777777778
806,6.30952199571766e-05,1.0,0.4920993745326996,0.8480902777777778
807,6.295694765867665e-05,1.0,0.4922019839286804,0.8480902777777778
808,6.28127163508907e-05,1.0,0.49230578541755676,0.8480902777777778
809,6.266848504310474e-05,1.0,0.49240347743034363,0.8480902777777778
810,6.252543971640989e-05,1.0,0.49249351024627686,0.8480902777777778
811,6.238954665604979e-05,1.0,0.4925866723060608,0.8480902777777778
812,6.225008110050112e-05,1.0,0.4926952123641968,0.8480902777777778
813,6.209989078342915e-05,1.0,0.49280086159706116,0.8480902777777778
814,6.197235052241012e-05,1.0,0.49289757013320923,0.8480902777777778
815,6.183527148095891e-05,1.0,0.49298912286758423,0.8480902777777778
816,6.169104017317295e-05,1.0,0.4930826425552368,0.8480902777777778
817,6.155395385576412e-05,1.0,0.49318113923072815,0.8480902777777778
818,6.141806079540402e-05,1.0,0.4932817816734314,0.8480902777777778
819,6.127621600171551e-05,1.0,0.49338454008102417,0.8480902777777778
820,6.114509596955031e-05,1.0,0.4934857189655304,0.8480902777777778
821,6.100920290919021e-05,1.0,0.4935823976993561,0.8480902777777778
822,6.086974099162035e-05,1.0,0.49367794394493103,0.8480902777777778
823,6.073266195016913e-05,1.0,0.4937708079814911,0.8480902777777778
824,6.0600348660955206e-05,1.0,0.49386557936668396,0.8480902777777778
825,6.046683847671375e-05,1.0,0.4939703345298767,0.8480902777777778
826,6.032737292116508e-05,1.0,0.49407264590263367,0.8480902777777778
827,6.019625288899988e-05,1.0,0.4941701292991638,0.8480902777777778
828,6.006394323776476e-05,1.0,0.49425560235977173,0.8480902777777778
829,5.9932819567620754e-05,1.0,0.4943483769893646,0.8480902777777778
830,5.980408604955301e-05,1.0,0.4944496154785156,0.8480902777777778
831,5.966223034192808e-05,1.0,0.49455711245536804,0.8480902777777778
832,5.9540649090195075e-05,1.0,0.49465346336364746,0.8480902777777778
833,5.940475966781378e-05,1.0,0.4947476089000702,0.8480902777777778
834,5.927363599766977e-05,1.0,0.494843065738678,0.8480902777777778
835,5.9149668231839314e-05,1.0,0.4949423372745514,0.8480902777777778
836,5.9014968428527936e-05,1.0,0.49503645300865173,0.8480902777777778
837,5.888861414860003e-05,1.0,0.49512678384780884,0.8480902777777778
838,5.87563008593861e-05,1.0,0.4952256679534912,0.8480902777777778
839,5.862875696038827e-05,1.0,0.4953276216983795,0.8480902777777778
840,5.8501213061390445e-05,1.0,0.49541547894477844,0.8480902777777778
841,5.8371282648295164e-05,1.0,0.4955056607723236,0.8480902777777778
842,5.824612162541598e-05,1.0,0.49560460448265076,0.8480902777777778
843,5.8118574088439345e-05,1.0,0.4957103729248047,0.8480902777777778
844,5.7999375712824985e-05,1.0,0.49580252170562744,0.8480902777777778
845,5.7869445299729705e-05,1.0,0.4958953857421875,0.8480902777777778
846,5.7741901400731876e-05,1.0,0.49599146842956543,0.8480902777777778
847,5.762031287304126e-05,1.0,0.4960874021053314,0.8480902777777778
848,5.749038245994598e-05,1.0,0.49618765711784363,0.8480902777777778
849,5.737356696045026e-05,1.0,0.4962843954563141,0.8480902777777778
850,5.724363654735498e-05,1.0,0.4963744878768921,0.8480902777777778
851,5.712443817174062e-05,1.0,0.4964600205421448,0.8480902777777778
852,5.6998080253833905e-05,1.0,0.49655577540397644,0.8480902777777778
853,5.6882458011386916e-05,1.0,0.49665114283561707,0.8480902777777778
854,5.67608694836963e-05,1.0,0.49674558639526367,0.8480902777777778
855,5.662855619448237e-05,1.0,0.49683207273483276,0.8480902777777778
856,5.65141235711053e-05,1.0,0.4969298541545868,0.8480902777777778
857,5.638896254822612e-05,1.0,0.49703338742256165,0.8480902777777778
858,5.6274533562827855e-05,1.0,0.4971272647380829,0.8480902777777778
859,5.615532791125588e-05,1.0,0.49721983075141907,0.8480902777777778
860,5.603374302154407e-05,1.0,0.497314453125,0.8480902777777778
861,5.590857836068608e-05,1.0,0.4974052309989929,0.8480902777777778
862,5.579414573730901e-05,1.0,0.49749326705932617,0.8480902777777778
863,5.567017797147855e-05,1.0,0.4975857436656952,0.8480902777777778
864,5.555812458624132e-05,1.0,0.49768900871276855,0.8480902777777778
865,5.5432967201340944e-05,1.0,0.4977838695049286,0.8480902777777778
866,5.532091381610371e-05,1.0,0.4978641867637634,0.8480902777777778
867,5.520767444977537e-05,1.0,0.49795088171958923,0.8480902777777778
868,5.5086089560063556e-05,1.0,0.49805402755737305,0.8480902777777778
869,5.497046731761657e-05,1.0,0.4981529116630554,0.8480902777777778
870,5.485006840899587e-05,1.0,0.49824362993240356,0.8480902777777778
871,5.473801866173744e-05,1.0,0.49833250045776367,0.8480902777777778
872,5.462120316224173e-05,1.0,0.4984196126461029,0.8480902777777778
873,5.449961463455111e-05,1.0,0.498513400554657,0.8480902777777778
874,5.439233427750878e-05,1.0,0.49861034750938416,0.8480902777777778
875,5.4273128625936806e-05,1.0,0.49870359897613525,0.8480902777777778
876,5.416227213572711e-05,1.0,0.4987936317920685,0.8480902777777778
877,5.404664989328012e-05,1.0,0.49888521432876587,0.8480902777777778
878,5.393698302214034e-05,1.0,0.4989778697490692,0.8480902777777778
879,5.381659138947725e-05,1.0,0.49906980991363525,0.8480902777777778
880,5.370811413740739e-05,1.0,0.49915656447410583,0.8480902777777778
881,5.3597254009218886e-05,1.0,0.499246209859848,0.8480902777777778
882,5.348520789993927e-05,1.0,0.4993399679660797,0.8480902777777778
883,5.3377923904918134e-05,1.0,0.49943098425865173,0.8480902777777778
884,5.325753227225505e-05,1.0,0.4995177388191223,0.8480902777777778
885,5.315859743859619e-05,1.0,0.49961256980895996,0.8480902777777778
886,5.303461875882931e-05,1.0,0.49970343708992004,0.8480902777777778
887,5.292853165883571e-05,1.0,0.49979645013809204,0.8480902777777778
888,5.282006168272346e-05,1.0,0.49988314509391785,0.8480902777777778
889,5.27115844306536e-05,1.0,0.49997249245643616,0.8480902777777778
890,5.260073157842271e-05,1.0,0.5000693202018738,0.8480902777777778
891,5.2498213335638866e-05,1.0,0.5001506805419922,0.8480902777777778
892,5.2388546464499086e-05,1.0,0.5002387166023254,0.8480902777777778
893,5.2280069212429225e-05,1.0,0.5003347396850586,0.8480902777777778
894,5.216802310314961e-05,1.0,0.5004310011863708,0.8480902777777778
895,5.206432251725346e-05,1.0,0.5005171298980713,0.8480902777777778
896,5.195941776037216e-05,1.0,0.5005983710289001,0.8480902777777778
897,5.185333066037856e-05,1.0,0.500691831111908,0.8480902777777778
898,5.17448534083087e-05,1.0,0.5007873177528381,0.8480902777777778
899,5.1639959565363824e-05,1.0,0.5008741617202759,0.8480902777777778
900,5.1531482313293964e-05,1.0,0.5009623765945435,0.8480902777777778
901,5.142181908013299e-05,1.0,0.5010541677474976,0.8480902777777778
902,5.1322880608495325e-05,1.0,0.5011405944824219,0.8480902777777778
903,5.1214403356425464e-05,1.0,0.5012297034263611,0.8480902777777778
904,5.110950951348059e-05,1.0,0.5013225078582764,0.8480902777777778
905,5.100341513752937e-05,1.0,0.5014019012451172,0.8480902777777778
906,5.090686317998916e-05,1.0,0.50148606300354,0.8480902777777778
907,5.0799579184968024e-05,1.0,0.5015844702720642,0.8480902777777778
908,5.0704220484476537e-05,1.0,0.5016834139823914,0.8480902777777778
909,5.059336035628803e-05,1.0,0.5017654299736023,0.8480902777777778
910,5.0493232265580446e-05,1.0,0.5018491148948669,0.8480902777777778
911,5.0388331146677956e-05,1.0,0.501944363117218,0.8480902777777778
912,5.029297244618647e-05,1.0,0.5020335912704468,0.8480902777777778
913,5.018688170821406e-05,1.0,0.5021202564239502,0.8480902777777778
914,5.008079097024165e-05,1.0,0.5022023916244507,0.8480902777777778
915,4.9985428631771356e-05,1.0,0.5022897720336914,0.8480902777777778
916,4.9885296903084964e-05,1.0,0.5023836493492126,0.8480902777777778
917,4.978516517439857e-05,1.0,0.5024670958518982,0.8480902777777778
918,4.96755019412376e-05,1.0,0.5025556087493896,0.8480902777777778
919,4.958609861205332e-05,1.0,0.5026464462280273,0.8480902777777778
920,4.948120113112964e-05,1.0,0.5027358531951904,0.8480902777777778
921,4.937630001222715e-05,1.0,0.5028239488601685,0.8480902777777778
922,4.928571070195176e-05,1.0,0.5029082894325256,0.8480902777777778
923,4.9182002840097994e-05,1.0,0.5029898881912231,0.8480902777777778
924,4.9089023377746344e-05,1.0,0.5030924677848816,0.8480902777777778
925,4.8986508772941306e-05,1.0,0.503190279006958,0.8480902777777778
926,4.889472620561719e-05,1.0,0.5032758712768555,0.8480902777777778
927,4.878982872469351e-05,1.0,0.5033548474311829,0.8480902777777778
928,4.869565600529313e-05,1.0,0.5034471154212952,0.8480902777777778
929,4.8596717533655465e-05,1.0,0.503549337387085,0.8480902777777778
930,4.850135519518517e-05,1.0,0.5036354064941406,0.8480902777777778
931,4.841076224693097e-05,1.0,0.5037205219268799,0.8480902777777778
932,4.8311823775293306e-05,1.0,0.5038066506385803,0.8480902777777778
933,4.821646507480182e-05,1.0,0.5039018392562866,0.8480902777777778
934,4.811752660316415e-05,1.0,0.5039823651313782,0.8480902777777778
935,4.802097100764513e-05,1.0,0.5040625929832458,0.8480902777777778
936,4.793156767846085e-05,1.0,0.5041571855545044,0.8480902777777778
937,4.783501208294183e-05,1.0,0.5042550563812256,0.8480902777777778
938,4.773726686835289e-05,1.0,0.5043351650238037,0.8480902777777778
939,4.764786353916861e-05,1.0,0.5044193267822266,0.8480902777777778
940,4.755488407681696e-05,1.0,0.5045161843299866,0.8480902777777778
941,4.745714250020683e-05,1.0,0.5046141147613525,0.8480902777777778
942,4.736415939987637e-05,1.0,0.5046941041946411,0.8480902777777778
943,4.7272376832552254e-05,1.0,0.5047760605812073,0.8480902777777778
944,4.71793937322218e-05,1.0,0.5048668384552002,0.8480902777777778
945,4.708284541266039e-05,1.0,0.5049514770507812,0.8480902777777778
946,4.6991059207357466e-05,1.0,0.5050351619720459,0.8480902777777778
947,4.6899269364075735e-05,1.0,0.5051279664039612,0.8480902777777778
948,4.680867641582154e-05,1.0,0.5052167177200317,0.8480902777777778
949,4.6720466343685985e-05,1.0,0.5053030252456665,0.8480902777777778
950,4.661914499592967e-05,1.0,0.5053956508636475,0.8480902777777778
951,4.653927680919878e-05,1.0,0.5054867267608643,0.8480902777777778
952,4.6437948185484856e-05,1.0,0.5055699944496155,0.8480902777777778
953,4.635332152247429e-05,1.0,0.5056542158126831,0.8480902777777778
954,4.6269877202576026e-05,1.0,0.5057394504547119,0.8480902777777778
955,4.617093873093836e-05,1.0,0.5058251023292542,0.8480902777777778
956,4.6085118810879067e-05,1.0,0.5059150457382202,0.8480902777777778
957,4.598855957738124e-05,1.0,0.5059939026832581,0.8480902777777778
958,4.590869139065035e-05,1.0,0.506066083908081,0.8480902777777778
959,4.5820481318514794e-05,1.0,0.506155788898468,0.8480902777777778
960,4.573227124637924e-05,1.0,0.5062500834465027,0.8480902777777778
961,4.5641678298125044e-05,1.0,0.5063385367393494,0.8480902777777778
962,4.5539163693320006e-05,1.0,0.5064239501953125,0.8480902777777778
963,4.546525815385394e-05,1.0,0.5065019130706787,0.8480902777777778
964,4.537943095783703e-05,1.0,0.5065885186195374,0.8480902777777778
965,4.528883800958283e-05,1.0,0.5066761374473572,0.8480902777777778
966,4.5194665290182456e-05,1.0,0.5067604780197144,0.8480902777777778
967,4.5108841732144356e-05,1.0,0.5068390369415283,0.8480902777777778
968,4.502182127907872e-05,1.0,0.5069214105606079,0.8480902777777778
969,4.494076347327791e-05,1.0,0.5070081353187561,0.8480902777777778
970,4.485731915337965e-05,1.0,0.5070934891700745,0.8480902777777778
971,4.476553658605553e-05,1.0,0.5071752071380615,0.8480902777777778
972,4.467851249501109e-05,1.0,0.5072576999664307,0.8480902777777778
973,4.4593885832000524e-05,1.0,0.5073434114456177,0.8480902777777778
974,4.450805499800481e-05,1.0,0.5074300169944763,0.8480902777777778
975,4.4427000830182806e-05,1.0,0.5075122117996216,0.8480902777777778
976,4.4336400605970994e-05,1.0,0.5075944662094116,0.8480902777777778
977,4.4258918933337554e-05,1.0,0.5076747536659241,0.8480902777777778
978,4.4170708861202e-05,1.0,0.5077507495880127,0.8480902777777778
979,4.4087268179282546e-05,1.0,0.5078337788581848,0.8480902777777778
980,4.4006210373481736e-05,1.0,0.5079216957092285,0.8480902777777778
981,4.392037953948602e-05,1.0,0.5080046057701111,0.8480902777777778
982,4.383694249554537e-05,1.0,0.5080854892730713,0.8480902777777778
983,4.3752304918598384e-05,1.0,0.5081719160079956,0.8480902777777778
984,4.367005385574885e-05,1.0,0.5082523822784424,0.8480902777777778
985,4.358422665973194e-05,1.0,0.5083393454551697,0.8480902777777778
986,4.350913150119595e-05,1.0,0.508422315120697,0.8480902777777778
987,4.3426880438346416e-05,1.0,0.5085025429725647,0.8480902777777778
988,4.3344633013475686e-05,1.0,0.5085805654525757,0.8480902777777778
989,4.326238195062615e-05,1.0,0.5086671113967896,0.8480902777777778
990,4.318132050684653e-05,1.0,0.5087589025497437,0.8480902777777778
991,4.3089537939522415e-05,1.0,0.5088387727737427,0.8480902777777778
992,4.301324224798009e-05,1.0,0.5089165568351746,0.8480902777777778
993,4.293457459425554e-05,1.0,0.508998453617096,0.8480902777777778
994,4.285231989342719e-05,1.0,0.5090832114219666,0.8480902777777778
995,4.2770072468556464e-05,1.0,0.5091690421104431,0.8480902777777778
996,4.2696166929090396e-05,1.0,0.5092469453811646,0.8480902777777778
997,4.261510184733197e-05,1.0,0.5093271732330322,0.8480902777777778
998,4.2528085032245144e-05,1.0,0.509415864944458,0.8480902777777778
999,4.245298987370916e-05,1.0,0.509501576423645,0.8480902777777778
