,loss,recall,val_loss,val_recall
0,0.5444836616516113,0.7900000214576721,0.7006195187568665,0.36000001430511475
1,0.34861770272254944,0.8399999737739563,0.6861774921417236,0.47999998927116394
2,0.24322789907455444,0.8999999761581421,0.6926813721656799,0.38999998569488525
3,0.20364435017108917,0.9100000262260437,0.7222709059715271,0.36000001430511475
4,0.19658012688159943,0.9399999976158142,0.7731835246086121,0.36000001430511475
5,0.13169920444488525,0.949999988079071,0.831403911113739,0.36000001430511475
6,0.25297626852989197,0.8999999761581421,0.9860747456550598,0.36000001430511475
7,0.1545048952102661,0.949999988079071,1.0418683290481567,0.36000001430511475
8,0.10380537062883377,0.9700000286102295,0.8643971085548401,0.36000001430511475
9,0.14251932501792908,0.9700000286102295,1.1303203105926514,0.36000001430511475
10,0.13443155586719513,0.9399999976158142,0.7499377727508545,0.3799999952316284
11,0.1018725335597992,0.9700000286102295,0.9505233764648438,0.36000001430511475
12,0.06878969818353653,0.9800000190734863,0.8842748403549194,0.3499999940395355
13,0.07725360244512558,0.9800000190734863,0.6862286925315857,0.6100000143051147
14,0.0307381059974432,1.0,1.0103590488433838,0.36000001430511475
15,0.0783909410238266,0.9800000190734863,0.9332722425460815,0.36000001430511475
16,0.19941820204257965,0.9399999976158142,0.9406208992004395,0.36000001430511475
17,0.10238122940063477,0.9800000190734863,0.5114007592201233,0.7699999809265137
18,0.07400844246149063,0.9599999785423279,0.537798285484314,0.7900000214576721
19,0.05539366602897644,0.9900000095367432,0.6158294677734375,0.7300000190734863
20,0.06470625847578049,0.9800000190734863,0.4846014678478241,0.800000011920929
21,0.07083108276128769,0.9800000190734863,0.789315938949585,0.6299999952316284
22,0.03333977237343788,1.0,0.6160682439804077,0.7400000095367432
23,0.04213951155543327,0.9900000095367432,0.9827039837837219,0.6800000071525574
24,0.028896933421492577,0.9900000095367432,0.47919750213623047,0.800000011920929
25,0.06987911462783813,0.9800000190734863,0.46808281540870667,0.800000011920929
26,0.04567699879407883,0.9800000190734863,0.4078562557697296,0.800000011920929
27,0.04212897643446922,0.9900000095367432,0.7104527354240417,0.800000011920929
28,0.040639109909534454,0.9700000286102295,0.9742191433906555,0.7300000190734863
29,0.017742466181516647,1.0,0.4586469233036041,0.8600000143051147
30,0.040720753371715546,0.9800000190734863,0.44361206889152527,0.7900000214576721
31,0.03653354570269585,0.9900000095367432,0.5091568827629089,0.7599999904632568
32,0.13618820905685425,0.9700000286102295,0.6433426141738892,0.8600000143051147
33,0.14961391687393188,0.9200000166893005,1.384243369102478,0.699999988079071
34,0.129092738032341,0.9300000071525574,0.3866257965564728,0.8899999856948853
35,0.11802377551794052,0.9700000286102295,0.8622455596923828,0.7799999713897705
36,0.07765769958496094,0.9800000190734863,1.0453811883926392,0.7699999809265137
37,0.0621580109000206,0.9700000286102295,1.1918033361434937,0.7300000190734863
38,0.092141292989254,0.9700000286102295,0.6090893745422363,0.8399999737739563
39,0.057317961007356644,0.9800000190734863,0.4135211110115051,0.8700000047683716
40,0.02738010883331299,0.9900000095367432,0.35909900069236755,0.8799999952316284
41,0.01729869470000267,1.0,0.372987300157547,0.8500000238418579
42,0.02384389378130436,1.0,0.45975205302238464,0.8600000143051147
43,0.031880058348178864,0.9800000190734863,0.4542806148529053,0.8600000143051147
44,0.01763167232275009,0.9900000095367432,0.5950544476509094,0.8299999833106995
45,0.015097844414412975,1.0,0.7312631011009216,0.8600000143051147
46,0.010790676809847355,1.0,0.9720538854598999,0.8199999928474426
47,0.0039008145686239004,1.0,0.8131479024887085,0.8299999833106995
48,0.0072557092644274235,1.0,0.6926283240318298,0.8600000143051147
49,0.0036234608851373196,1.0,0.6266598701477051,0.8600000143051147
50,0.00612354651093483,1.0,0.554486095905304,0.8600000143051147
51,0.006331373937427998,1.0,0.545555591583252,0.8600000143051147
52,0.0026249648071825504,1.0,0.6542317271232605,0.8500000238418579
53,0.002302589127793908,1.0,0.5937363505363464,0.8600000143051147
54,0.012540983036160469,1.0,0.6178856492042542,0.8700000047683716
55,0.010167977772653103,0.9900000095367432,0.45369675755500793,0.8899999856948853
56,0.0336640439927578,0.9900000095367432,0.53989577293396,0.8500000238418579
57,0.024236230179667473,0.9900000095367432,1.0580413341522217,0.7900000214576721
58,0.012807370163500309,1.0,0.5789902806282043,0.8399999737739563
59,0.01133032888174057,1.0,0.9228209853172302,0.8100000023841858
60,0.004266966134309769,1.0,0.753153383731842,0.8399999737739563
61,0.005730608478188515,1.0,0.5099576711654663,0.8700000047683716
62,0.0020980758126825094,1.0,0.4573647379875183,0.8700000047683716
63,0.0069677154533565044,1.0,0.4741574227809906,0.8799999952316284
64,0.003788016503676772,1.0,0.5726649761199951,0.8600000143051147
65,0.011028281413018703,1.0,0.4628972113132477,0.8100000023841858
66,0.021693985909223557,1.0,0.428832471370697,0.8700000047683716
67,0.0482049286365509,0.9800000190734863,0.5615425109863281,0.8700000047683716
68,0.04979122057557106,0.9900000095367432,0.6602610945701599,0.8399999737739563
69,0.09677785634994507,0.949999988079071,0.5684075355529785,0.8500000238418579
70,0.0553191676735878,0.9599999785423279,0.8781501650810242,0.8399999737739563
71,0.035112377256155014,0.9900000095367432,1.244282841682434,0.8199999928474426
72,0.11707238107919693,0.9599999785423279,0.6095420718193054,0.8700000047683716
73,0.11556722968816757,0.9599999785423279,4.252488613128662,0.3799999952316284
74,0.09210808575153351,0.949999988079071,0.6213353872299194,0.8799999952316284
75,0.2116476446390152,0.8899999856948853,1.146692156791687,0.7200000286102295
76,0.05911090224981308,0.9800000190734863,7.033957481384277,0.36000001430511475
77,0.022916598245501518,1.0,0.858353853225708,0.8500000238418579
78,0.01878257654607296,0.9900000095367432,0.8905825614929199,0.8299999833106995
79,0.021643156185746193,1.0,0.9197815656661987,0.8100000023841858
80,0.03255906701087952,0.9900000095367432,0.5837380290031433,0.8299999833106995
81,0.020769810304045677,0.9900000095367432,0.533082902431488,0.8299999833106995
82,0.016759874299168587,0.9900000095367432,1.200989007949829,0.7699999809265137
83,0.09136421978473663,0.9700000286102295,0.6931806206703186,0.8399999737739563
84,0.03859230875968933,0.9900000095367432,0.7795924544334412,0.8299999833106995
85,0.053915925323963165,0.9800000190734863,0.6112314462661743,0.8700000047683716
86,0.010870779864490032,1.0,0.49183404445648193,0.8700000047683716
87,0.009164887480437756,1.0,0.46986228227615356,0.8899999856948853
88,0.0036211165133863688,1.0,0.49178773164749146,0.8899999856948853
89,0.0034914975985884666,1.0,0.45572441816329956,0.8899999856948853
90,0.07283130288124084,0.9800000190734863,0.5282058715820312,0.8399999737739563
91,0.008895691484212875,1.0,0.6838926076889038,0.75
92,0.0070313382893800735,1.0,0.4489099979400635,0.8999999761581421
93,0.006756503134965897,1.0,0.4359751045703888,0.8999999761581421
94,0.010639466345310211,1.0,0.4064522087574005,0.8999999761581421
95,0.021266410127282143,1.0,0.5132538676261902,0.8799999952316284
96,0.021192893385887146,0.9900000095367432,0.47832924127578735,0.8799999952316284
97,0.007015050854533911,1.0,0.3933001458644867,0.8600000143051147
98,0.0027471687644720078,1.0,0.40058889985084534,0.8999999761581421
99,0.002856181003153324,1.0,0.4040369391441345,0.8899999856948853
100,0.0033619508612900972,1.0,0.4121336042881012,0.8899999856948853
101,0.0006085078348405659,1.0,0.42555320262908936,0.8899999856948853
102,0.005829596891999245,1.0,0.41626036167144775,0.8600000143051147
103,0.0016032224521040916,1.0,0.41221725940704346,0.8799999952316284
104,0.0044626640155911446,1.0,0.4557458162307739,0.8899999856948853
105,0.021716810762882233,0.9900000095367432,0.8355324268341064,0.8500000238418579
106,0.012234823778271675,1.0,1.056640386581421,0.8399999737739563
107,0.021173834800720215,1.0,0.7716733813285828,0.8500000238418579
108,0.014679917134344578,0.9900000095367432,0.4823917746543884,0.8799999952316284
109,0.01628636009991169,0.9900000095367432,0.4503921866416931,0.8799999952316284
110,0.019014082849025726,0.9900000095367432,0.45872563123703003,0.8700000047683716
111,0.012425967492163181,0.9900000095367432,0.8034109473228455,0.8500000238418579
112,0.0034912466071546078,1.0,0.9342365860939026,0.8399999737739563
113,0.008632204495370388,1.0,0.9186496734619141,0.8299999833106995
114,0.003174147102981806,1.0,0.7159512042999268,0.8500000238418579
115,0.003473111893981695,1.0,0.534676730632782,0.8600000143051147
116,0.001082802889868617,1.0,0.5019209980964661,0.8799999952316284
117,0.002753725042566657,1.0,0.5338850021362305,0.8600000143051147
118,0.0009940798627212644,1.0,0.5649919509887695,0.8600000143051147
119,0.0011573932133615017,1.0,0.5927112698554993,0.8600000143051147
120,0.0010398844024166465,1.0,0.6105340719223022,0.8600000143051147
121,0.00046949044917710125,1.0,0.6223114132881165,0.8600000143051147
122,0.003303022123873234,1.0,0.6440563797950745,0.8600000143051147
123,0.0008816184126771986,1.0,0.6917216777801514,0.8500000238418579
124,0.002347252331674099,1.0,0.5654210448265076,0.8600000143051147
125,0.0012658365303650498,1.0,0.5203740000724792,0.8799999952316284
126,0.0032257477287203074,1.0,0.5287535190582275,0.8899999856948853
127,0.0009101410396397114,1.0,0.5169405341148376,0.8899999856948853
128,0.0011860824888572097,1.0,0.4959574043750763,0.8999999761581421
129,0.0004298556305002421,1.0,0.498613178730011,0.8799999952316284
130,0.0006917088758200407,1.0,0.5185115337371826,0.8799999952316284
131,0.0196395143866539,0.9900000095367432,0.4593152701854706,0.8700000047683716
132,0.008998410776257515,1.0,0.7811508178710938,0.8600000143051147
133,0.005964903626590967,1.0,3.9229323863983154,0.6600000262260437
134,0.045297350734472275,0.9800000190734863,3.5900774002075195,0.6600000262260437
135,0.09144535660743713,0.9700000286102295,2.4201693534851074,0.5199999809265137
136,0.1456817090511322,0.9399999976158142,1.757788062095642,0.6899999976158142
137,0.0526583157479763,0.9900000095367432,0.7377575039863586,0.8299999833106995
138,0.036242932081222534,0.9900000095367432,0.8098586797714233,0.8399999737739563
139,0.017670007422566414,1.0,0.6055972576141357,0.8600000143051147
140,0.01461202371865511,1.0,0.5049468278884888,0.8899999856948853
141,0.002903465647250414,1.0,0.6231222748756409,0.8600000143051147
142,0.007735517807304859,1.0,0.6983591318130493,0.8700000047683716
143,0.0015628286637365818,1.0,0.8066468238830566,0.8500000238418579
144,0.0034828640054911375,1.0,0.7422499656677246,0.8500000238418579
145,0.003180526429787278,1.0,0.7169358134269714,0.8500000238418579
146,0.01657576486468315,1.0,1.203639030456543,0.8600000143051147
147,0.0088803144171834,1.0,1.0725756883621216,0.8500000238418579
148,0.0012679881183430552,1.0,0.89124596118927,0.8500000238418579
149,0.001504229148849845,1.0,0.7985777854919434,0.8700000047683716
150,0.00520293228328228,1.0,0.8457932472229004,0.8600000143051147
151,0.0010613718768581748,1.0,0.8342318534851074,0.8700000047683716
152,0.03000049665570259,0.9900000095367432,0.5126935839653015,0.8700000047683716
153,0.050557054579257965,0.9700000286102295,0.7380622625350952,0.7799999713897705
154,0.13040201365947723,0.9599999785423279,8.169795989990234,0.6499999761581421
155,0.09013628214597702,0.9599999785423279,8.121611595153809,0.6399999856948853
156,0.09990110248327255,0.9599999785423279,6.13399600982666,0.6600000262260437
157,0.06001993268728256,0.9900000095367432,4.407314777374268,0.6899999976158142
158,0.01483585312962532,1.0,1.9823050498962402,0.7900000214576721
159,0.005136274266988039,1.0,1.309152364730835,0.8199999928474426
160,0.0030687919352203608,1.0,0.8691969513893127,0.8199999928474426
161,0.0030735270120203495,1.0,0.6943159699440002,0.8299999833106995
162,0.0029232108499854803,1.0,0.649289071559906,0.8500000238418579
163,0.0008544349693693221,1.0,0.6244476437568665,0.8799999952316284
164,0.0015814719954505563,1.0,0.6057788133621216,0.8799999952316284
165,0.001129567506723106,1.0,0.5825798511505127,0.8799999952316284
166,0.0006908239447511733,1.0,0.5610613822937012,0.8799999952316284
167,0.0006557214073836803,1.0,0.5476133227348328,0.8799999952316284
168,0.000624480948317796,1.0,0.5389248728752136,0.8799999952316284
169,0.0007361239404417574,1.0,0.5378397703170776,0.8799999952316284
170,0.0021871349308639765,1.0,0.5473896265029907,0.8799999952316284
171,0.001251162844710052,1.0,0.5459504127502441,0.8799999952316284
172,0.0006066320347599685,1.0,0.5372911691665649,0.8799999952316284
173,0.000523095834068954,1.0,0.5340167284011841,0.8799999952316284
174,0.0014944038121029735,1.0,0.5192345976829529,0.8799999952316284
175,0.0010588732548058033,1.0,0.5164563655853271,0.8799999952316284
176,0.0023807615507394075,1.0,0.5227876901626587,0.8799999952316284
177,0.0013264714507386088,1.0,0.5388681292533875,0.8799999952316284
178,0.0002397328644292429,1.0,0.5458260178565979,0.8799999952316284
179,0.0017719529569149017,1.0,0.5437765717506409,0.8799999952316284
180,0.0004194827051833272,1.0,0.5408567786216736,0.8799999952316284
181,0.0007388603407889605,1.0,0.5413908362388611,0.8799999952316284
182,0.000684490951243788,1.0,0.5429832935333252,0.8799999952316284
183,0.0009708914440125227,1.0,0.5393864512443542,0.8799999952316284
184,0.00037689213058911264,1.0,0.5362116098403931,0.8799999952316284
185,0.0005232760449871421,1.0,0.5352872610092163,0.8799999952316284
186,0.00029634078964591026,1.0,0.5356375575065613,0.8799999952316284
187,0.0005823225365020335,1.0,0.5389716625213623,0.8799999952316284
188,0.0014352973084896803,1.0,0.546334981918335,0.8799999952316284
189,0.0003949479723814875,1.0,0.5547952055931091,0.8799999952316284
190,0.0014542937278747559,1.0,0.5591940879821777,0.8799999952316284
191,0.0002537826949264854,1.0,0.5625874996185303,0.8799999952316284
192,0.0007935823523439467,1.0,0.5622817277908325,0.8799999952316284
193,0.00027538734138943255,1.0,0.5598253011703491,0.8799999952316284
194,0.000747249519918114,1.0,0.558425784111023,0.8799999952316284
195,0.0005130292847752571,1.0,0.5618684887886047,0.8799999952316284
196,0.0004852770362049341,1.0,0.5670667886734009,0.8799999952316284
197,0.00044150359462946653,1.0,0.5711945295333862,0.8799999952316284
198,0.001013927860185504,1.0,0.5898644924163818,0.8799999952316284
199,0.00031847271020524204,1.0,0.6048684120178223,0.8799999952316284
200,0.0010348064824938774,1.0,0.6046106219291687,0.8799999952316284
201,0.0003029663930647075,1.0,0.598758339881897,0.8799999952316284
202,0.0011111879721283913,1.0,0.5980756282806396,0.8799999952316284
203,0.00018806580919772387,1.0,0.6018913388252258,0.8799999952316284
204,0.0014282037736847997,1.0,0.6131932735443115,0.8799999952316284
205,0.0001728008355712518,1.0,0.629371166229248,0.8799999952316284
206,0.0004968568100593984,1.0,0.6282382011413574,0.8799999952316284
207,0.0007315067923627794,1.0,0.6253731846809387,0.8799999952316284
208,0.00021770664898213,1.0,0.620718777179718,0.8799999952316284
209,0.0001645928277866915,1.0,0.6190298199653625,0.8799999952316284
210,0.0004326751222833991,1.0,0.620685875415802,0.8799999952316284
211,0.0002363265084568411,1.0,0.6258796453475952,0.8799999952316284
212,0.00023759626492392272,1.0,0.62657231092453,0.8799999952316284
213,0.00029888059361837804,1.0,0.6226856112480164,0.8799999952316284
214,0.0002074639342026785,1.0,0.6211341619491577,0.8799999952316284
215,0.00023621143191121519,1.0,0.6197220683097839,0.8799999952316284
216,0.00022473257558885962,1.0,0.6181924939155579,0.8799999952316284
217,0.00027481027063913643,1.0,0.6161575317382812,0.8799999952316284
218,0.0018412426579743624,1.0,0.5795435905456543,0.8799999952316284
219,0.00022589262516703457,1.0,0.5635493993759155,0.8799999952316284
220,0.0006859452114440501,1.0,0.5702731609344482,0.8799999952316284
221,0.0004416085430420935,1.0,0.5815283060073853,0.8799999952316284
222,0.00014191279478836805,1.0,0.5873146653175354,0.8799999952316284
223,0.0003536152944434434,1.0,0.5901334881782532,0.8799999952316284
224,0.00035303254844620824,1.0,0.5911725163459778,0.8799999952316284
225,0.0006005191244184971,1.0,0.5950947403907776,0.8799999952316284
226,0.0002580420987214893,1.0,0.6027717590332031,0.8799999952316284
227,0.0008724653162062168,1.0,0.5979024767875671,0.8799999952316284
228,0.0003893270040862262,1.0,0.5958343744277954,0.8799999952316284
229,0.0001490448194090277,1.0,0.5964391827583313,0.8799999952316284
230,0.00024271571601275355,1.0,0.5979217886924744,0.8799999952316284
231,0.00042715136078186333,1.0,0.6002780795097351,0.8799999952316284
232,0.0001613310887478292,1.0,0.6005064249038696,0.8799999952316284
233,0.0006911371601745486,1.0,0.600729763507843,0.8799999952316284
234,0.0001824006758397445,1.0,0.6014562845230103,0.8799999952316284
235,0.0008279480971395969,1.0,0.6022889018058777,0.8799999952316284
236,0.0008855754276737571,1.0,0.6031134724617004,0.8799999952316284
237,0.0006552761769853532,1.0,0.6035889983177185,0.8799999952316284
238,0.0002694882859941572,1.0,0.6046642065048218,0.8799999952316284
239,0.000231987374718301,1.0,0.6068185567855835,0.8799999952316284
240,0.00022642100520897657,1.0,0.6086210012435913,0.8799999952316284
241,0.0032038677018135786,1.0,0.5941315293312073,0.8799999952316284
242,0.0007368583464995027,1.0,0.5776633620262146,0.8899999856948853
243,0.00046555508743040264,1.0,0.5779166221618652,0.8899999856948853
244,0.0004527870914898813,1.0,0.5828714966773987,0.8899999856948853
245,0.00016656160005368292,1.0,0.5884949564933777,0.8899999856948853
246,0.00018502982857171446,1.0,0.5923817157745361,0.8899999856948853
247,0.00027224014047533274,1.0,0.5962974429130554,0.8899999856948853
248,0.0005990650388412178,1.0,0.5993592143058777,0.8899999856948853
249,0.0008657125290483236,1.0,0.6079238653182983,0.8899999856948853
250,0.00024888801272027194,1.0,0.6135721802711487,0.8899999856948853
251,0.00040872590034268796,1.0,0.6171526312828064,0.8899999856948853
252,8.588032505940646e-05,1.0,0.6189441084861755,0.8899999856948853
253,0.00011188877397216856,1.0,0.6199479103088379,0.8899999856948853
254,0.0005582012818194926,1.0,0.623296856880188,0.8799999952316284
255,0.00033875086228363216,1.0,0.6269321441650391,0.8799999952316284
256,0.00012529658852145076,1.0,0.6291921138763428,0.8799999952316284
257,0.00019467284437268972,1.0,0.6294077038764954,0.8799999952316284
258,0.0002032594638876617,1.0,0.6295809745788574,0.8799999952316284
259,0.00030502400477416813,1.0,0.627804696559906,0.8799999952316284
260,0.0005880225216969848,1.0,0.630587637424469,0.8799999952316284
261,0.00014088726311456412,1.0,0.634002685546875,0.8799999952316284
262,0.0003232609014958143,1.0,0.637086808681488,0.8799999952316284
263,0.0001762848551152274,1.0,0.6376148462295532,0.8799999952316284
264,0.00045228106318973005,1.0,0.6385677456855774,0.8799999952316284
265,0.0007358894217759371,1.0,0.6395052075386047,0.8799999952316284
266,6.57814962323755e-05,1.0,0.6396516561508179,0.8799999952316284
267,5.483517816173844e-05,1.0,0.6391139030456543,0.8799999952316284
268,0.0006489306688308716,1.0,0.6393106579780579,0.8799999952316284
269,0.00022826720669399947,1.0,0.6389365196228027,0.8799999952316284
270,0.0003375390078872442,1.0,0.6392917633056641,0.8799999952316284
271,0.00023811582650523633,1.0,0.6389535665512085,0.8799999952316284
272,0.00019363933824934065,1.0,0.6388809084892273,0.8799999952316284
273,0.00010741379082901403,1.0,0.6382797360420227,0.8799999952316284
274,0.0002571885415818542,1.0,0.6406888365745544,0.8799999952316284
275,0.0010718033881857991,1.0,0.645331859588623,0.8799999952316284
276,0.0001064935204340145,1.0,0.6452244520187378,0.8799999952316284
277,0.00033675224403850734,1.0,0.6460363864898682,0.8799999952316284
278,0.00012900562433060259,1.0,0.6460626721382141,0.8799999952316284
279,0.0004232375940773636,1.0,0.6500911116600037,0.8799999952316284
280,0.00045826155110262334,1.0,0.6510004997253418,0.8799999952316284
281,0.00016310933278873563,1.0,0.6490285396575928,0.8799999952316284
282,0.0009286195272579789,1.0,0.6445748805999756,0.8799999952316284
283,0.00018063056631945074,1.0,0.6415422558784485,0.8799999952316284
284,0.00014320526679512113,1.0,0.6400116682052612,0.8799999952316284
285,0.00016990088624879718,1.0,0.6392089128494263,0.8799999952316284
286,0.0001798769080778584,1.0,0.6390668153762817,0.8799999952316284
287,0.00013284917804412544,1.0,0.6393976211547852,0.8799999952316284
288,0.0005671486724168062,1.0,0.6383679509162903,0.8799999952316284
289,0.00017597638361621648,1.0,0.6345482468605042,0.8799999952316284
290,0.00018708145944401622,1.0,0.6339225769042969,0.8799999952316284
291,0.00047331996029242873,1.0,0.632244884967804,0.8799999952316284
292,9.912271343637258e-05,1.0,0.6283265352249146,0.8799999952316284
293,0.00012338630040176213,1.0,0.6270673871040344,0.8799999952316284
294,0.000905474997125566,1.0,0.6278910636901855,0.8799999952316284
295,0.0002562628360465169,1.0,0.6286091804504395,0.8799999952316284
296,0.00010032459249487147,1.0,0.6284989714622498,0.8799999952316284
297,0.0008187954663299024,1.0,0.6333404183387756,0.8799999952316284
298,0.00021127845684532076,1.0,0.6366729140281677,0.8799999952316284
299,6.876586121506989e-05,1.0,0.6369475722312927,0.8799999952316284
300,7.000346522545442e-05,1.0,0.6364918947219849,0.8799999952316284
301,0.0004271765355952084,1.0,0.6384872198104858,0.8799999952316284
302,0.0001635064254514873,1.0,0.6405322551727295,0.8799999952316284
303,0.000420163560193032,1.0,0.6414479613304138,0.8799999952316284
304,0.00022152243764139712,1.0,0.6413350701332092,0.8799999952316284
305,0.00013573875185102224,1.0,0.6420088410377502,0.8799999952316284
306,0.0001528963475720957,1.0,0.6426407098770142,0.8799999952316284
307,0.00018666329560801387,1.0,0.643674373626709,0.8799999952316284
308,0.00010277031105943024,1.0,0.6439709663391113,0.8799999952316284
309,0.0002110591740347445,1.0,0.6446208357810974,0.8799999952316284
310,0.000322166335536167,1.0,0.6446502804756165,0.8799999952316284
311,0.0006979376776143909,1.0,0.6459713578224182,0.8799999952316284
312,0.0002198486472479999,1.0,0.6465852856636047,0.8799999952316284
313,8.628053910797462e-05,1.0,0.6465839147567749,0.8799999952316284
314,0.00012179939221823588,1.0,0.6466699838638306,0.8799999952316284
315,0.0003501135215628892,1.0,0.6483969688415527,0.8799999952316284
316,5.959191912552342e-05,1.0,0.6485850811004639,0.8799999952316284
317,0.0002469765313435346,1.0,0.6475435495376587,0.8799999952316284
318,0.00018962375179398805,1.0,0.6474840641021729,0.8799999952316284
319,0.00021503644529730082,1.0,0.6478765606880188,0.8799999952316284
320,0.005037826951593161,1.0,0.5897102355957031,0.8899999856948853
321,0.0007885702652856708,1.0,0.5777841806411743,0.8799999952316284
322,0.000531906436663121,1.0,0.580398678779602,0.8799999952316284
323,0.00012832909123972058,1.0,0.5856577157974243,0.8799999952316284
324,0.00021043421293143183,1.0,0.5897162556648254,0.8799999952316284
325,0.00015865819295868278,1.0,0.5934010148048401,0.8899999856948853
326,0.0005696531152352691,1.0,0.5972033739089966,0.8899999856948853
327,5.789728675154038e-05,1.0,0.5999279022216797,0.8899999856948853
328,0.00022776835248805583,1.0,0.6037232875823975,0.8899999856948853
329,0.00023455019982066005,1.0,0.6062836647033691,0.8899999856948853
330,0.00011825321416836232,1.0,0.608424723148346,0.8899999856948853
331,0.00016500242054462433,1.0,0.6104229092597961,0.8899999856948853
332,0.00037508129025809467,1.0,0.6136259436607361,0.8899999856948853
333,0.0007076298352330923,1.0,0.6175285577774048,0.8799999952316284
334,0.0005578791606239974,1.0,0.621590256690979,0.8799999952316284
335,8.589458593633026e-05,1.0,0.6227766275405884,0.8799999952316284
336,0.00016946744290180504,1.0,0.6245181560516357,0.8799999952316284
337,0.00031544524244964123,1.0,0.6266704201698303,0.8799999952316284
338,0.00035305070923641324,1.0,0.6289695501327515,0.8799999952316284
339,0.00036454066867008805,1.0,0.6338185667991638,0.8799999952316284
340,0.0004302267625462264,1.0,0.6378709673881531,0.8799999952316284
341,0.00020134936494287103,1.0,0.6407508254051208,0.8799999952316284
342,0.00026203322340734303,1.0,0.6418251991271973,0.8799999952316284
343,8.3871629612986e-05,1.0,0.6416113376617432,0.8799999952316284
344,0.00042603109613992274,1.0,0.6435816884040833,0.8799999952316284
345,0.00015028197958599776,1.0,0.6434430480003357,0.8799999952316284
346,0.00046315521467477083,1.0,0.6438538432121277,0.8799999952316284
347,6.68029097141698e-05,1.0,0.643269419670105,0.8799999952316284
348,8.101634011836722e-05,1.0,0.641832172870636,0.8799999952316284
349,0.00010263759759254754,1.0,0.6408840417861938,0.8799999952316284
350,8.64732573973015e-05,1.0,0.6408075094223022,0.8799999952316284
351,0.0004759727162308991,1.0,0.6406996250152588,0.8799999952316284
352,6.273406324908137e-05,1.0,0.6392636895179749,0.8799999952316284
353,0.0003861397854052484,1.0,0.6413835287094116,0.8799999952316284
354,8.980957500170916e-05,1.0,0.6425050497055054,0.8799999952316284
355,6.489779480034485e-05,1.0,0.6425102949142456,0.8799999952316284
356,0.00022341030125971884,1.0,0.6436110734939575,0.8799999952316284
357,0.00010735020623542368,1.0,0.6444728374481201,0.8799999952316284
358,8.346288814209402e-05,1.0,0.6447505950927734,0.8799999952316284
359,0.00019943356164731085,1.0,0.6458505392074585,0.8799999952316284
360,0.0003735163190867752,1.0,0.6474690437316895,0.8799999952316284
361,0.00011738492321455851,1.0,0.6484272480010986,0.8799999952316284
362,0.0686081200838089,0.9700000286102295,0.7251074314117432,0.8799999952316284
363,0.00022772142256144434,1.0,1.016915202140808,0.8500000238418579
364,0.002808617427945137,1.0,1.0652451515197754,0.8399999737739563
365,0.00454514566808939,1.0,0.9856525659561157,0.8399999737739563
366,0.002703289035707712,1.0,0.8961665630340576,0.8600000143051147
367,0.0007597847143188119,1.0,0.8341208100318909,0.8600000143051147
368,0.001045847311615944,1.0,0.7924007177352905,0.8700000047683716
369,0.00045578309800475836,1.0,0.7612639665603638,0.8700000047683716
370,0.0010900680208578706,1.0,0.7280986309051514,0.8700000047683716
371,0.0005799541831947863,1.0,0.6997759342193604,0.8700000047683716
372,0.0037844215985387564,1.0,0.671488344669342,0.8799999952316284
373,0.00026777281891554594,1.0,0.6466845870018005,0.8799999952316284
374,0.0005426260177046061,1.0,0.6392837762832642,0.8799999952316284
375,0.0004847553791478276,1.0,0.6338165402412415,0.8799999952316284
376,0.0010807415237650275,1.0,0.6258814334869385,0.8799999952316284
377,0.002176821930333972,1.0,0.6247503757476807,0.8799999952316284
378,0.0008327324758283794,1.0,0.6244456768035889,0.8799999952316284
379,0.002906333189457655,1.0,0.6404858231544495,0.8799999952316284
380,0.0003036080743186176,1.0,0.6477298140525818,0.8799999952316284
381,0.00035677343839779496,1.0,0.6465200185775757,0.8799999952316284
382,0.0005057646194472909,1.0,0.6427735090255737,0.8799999952316284
383,0.0002775902103167027,1.0,0.6388922333717346,0.8799999952316284
384,0.0006617989856749773,1.0,0.6356792449951172,0.8799999952316284
385,0.00046216577175073326,1.0,0.6302499175071716,0.8799999952316284
386,0.00042436138028278947,1.0,0.6257501244544983,0.8799999952316284
387,0.000311542593408376,1.0,0.6206714510917664,0.8799999952316284
388,0.0006186145474202931,1.0,0.6175918579101562,0.8799999952316284
389,0.00039752572774887085,1.0,0.6163458228111267,0.8799999952316284
390,0.0006296462379395962,1.0,0.6161177754402161,0.8799999952316284
391,0.00018907994672190398,1.0,0.6135808825492859,0.8799999952316284
392,0.00018493823881726712,1.0,0.6130994558334351,0.8799999952316284
393,0.001303760102018714,1.0,0.6087080836296082,0.8799999952316284
394,0.00016881637566257268,1.0,0.6018574833869934,0.8799999952316284
395,0.00057921779807657,1.0,0.5990670919418335,0.8799999952316284
396,0.0008545385207980871,1.0,0.5981022119522095,0.8799999952316284
397,0.0007727944175712764,1.0,0.6012972593307495,0.8799999952316284
398,0.0019819731824100018,1.0,0.5818926095962524,0.8799999952316284
399,0.0004552489845082164,1.0,0.5551956295967102,0.8799999952316284
400,0.0007354005356319249,1.0,0.5520679354667664,0.8799999952316284
401,0.00020366362878121436,1.0,0.5551247000694275,0.8799999952316284
402,0.00024679352645762265,1.0,0.5594341158866882,0.8799999952316284
403,0.0007882634527049959,1.0,0.5654200911521912,0.8799999952316284
404,0.0003119819739367813,1.0,0.5697388648986816,0.8799999952316284
405,0.0002696679439395666,1.0,0.5745708346366882,0.8799999952316284
406,0.0006320297252386808,1.0,0.580039918422699,0.8799999952316284
407,0.0001345186901744455,1.0,0.5841819643974304,0.8799999952316284
408,0.000825726892799139,1.0,0.5887190699577332,0.8799999952316284
409,0.00013744669558946043,1.0,0.5929351449012756,0.8799999952316284
410,0.0004714635433629155,1.0,0.5969288349151611,0.8799999952316284
411,0.00010372032556915656,1.0,0.5989679098129272,0.8799999952316284
412,8.249009260907769e-05,1.0,0.600595235824585,0.8799999952316284
413,0.00014226340863388032,1.0,0.602021336555481,0.8799999952316284
414,0.00010124403343070298,1.0,0.603617250919342,0.8799999952316284
415,0.0001729896175675094,1.0,0.6048176884651184,0.8799999952316284
416,0.0005433687474578619,1.0,0.6058021783828735,0.8799999952316284
417,0.00030692541622556746,1.0,0.6050459146499634,0.8799999952316284
418,0.00018181503401137888,1.0,0.6060644388198853,0.8799999952316284
419,0.00018293583707418293,1.0,0.607414722442627,0.8799999952316284
420,0.00024939735885709524,1.0,0.6073830127716064,0.8799999952316284
421,0.0001094016624847427,1.0,0.6072618961334229,0.8799999952316284
422,0.00018663742230273783,1.0,0.6076790690422058,0.8799999952316284
423,9.608103573555127e-05,1.0,0.6081539392471313,0.8799999952316284
424,0.000821913534309715,1.0,0.6145826578140259,0.8799999952316284
425,0.00031376827973872423,1.0,0.6178325414657593,0.8799999952316284
426,0.00066849694121629,1.0,0.6205600500106812,0.8799999952316284
427,0.0002651369431987405,1.0,0.6222980618476868,0.8799999952316284
428,0.00028902478516101837,1.0,0.6243703365325928,0.8799999952316284
429,6.452335219364613e-05,1.0,0.6237116456031799,0.8799999952316284
430,0.00023062073159962893,1.0,0.6238283514976501,0.8799999952316284
431,0.0007386553334072232,1.0,0.6240511536598206,0.8799999952316284
432,7.678920519538224e-05,1.0,0.6237174272537231,0.8799999952316284
433,0.00032519560772925615,1.0,0.6222114562988281,0.8799999952316284
434,0.00040357603575102985,1.0,0.6213794946670532,0.8799999952316284
435,0.0005636308342218399,1.0,0.6228860020637512,0.8799999952316284
436,0.00037157218321226537,1.0,0.624289333820343,0.8799999952316284
437,0.0001962003152584657,1.0,0.6243215799331665,0.8799999952316284
438,0.00018488058412913233,1.0,0.6232332587242126,0.8799999952316284
439,6.956271681701764e-05,1.0,0.623043417930603,0.8799999952316284
440,0.00019227380107622594,1.0,0.6237872838973999,0.8799999952316284
441,0.00042239754111506045,1.0,0.6268741488456726,0.8799999952316284
442,0.00047640380216762424,1.0,0.6273161172866821,0.8799999952316284
443,0.00023908335424493998,1.0,0.6277384161949158,0.8799999952316284
444,8.656256250105798e-05,1.0,0.6278471350669861,0.8799999952316284
445,0.00022683203860651702,1.0,0.6287575960159302,0.8799999952316284
446,0.0003126095107290894,1.0,0.6280406713485718,0.8799999952316284
447,0.0004051915311720222,1.0,0.6285507082939148,0.8799999952316284
448,0.0001501473452663049,1.0,0.630018413066864,0.8799999952316284
449,0.0003029296058230102,1.0,0.6326723694801331,0.8799999952316284
450,0.00019332394003868103,1.0,0.6340014934539795,0.8799999952316284
451,0.0006284841801971197,1.0,0.6334012746810913,0.8799999952316284
452,0.00030613335547968745,1.0,0.6270045638084412,0.8799999952316284
453,0.00012671320291701704,1.0,0.6236409544944763,0.8799999952316284
454,4.870612610829994e-05,1.0,0.6226809024810791,0.8799999952316284
455,0.0001137334038503468,1.0,0.6236525177955627,0.8799999952316284
456,0.0003325759316794574,1.0,0.6243742108345032,0.8799999952316284
457,8.660514140501618e-05,1.0,0.624690592288971,0.8799999952316284
458,0.00048096879618242383,1.0,0.6272264122962952,0.8799999952316284
459,0.0007161948014982045,1.0,0.6281160116195679,0.8799999952316284
460,0.00024961886811070144,1.0,0.6274603009223938,0.8799999952316284
461,0.00025417088181711733,1.0,0.6270692348480225,0.8799999952316284
462,9.631991997594014e-05,1.0,0.6273473501205444,0.8799999952316284
463,0.000315136625431478,1.0,0.6281144022941589,0.8799999952316284
464,8.704343781573698e-05,1.0,0.6291542649269104,0.8799999952316284
465,0.0006209893617779016,1.0,0.6328735947608948,0.8799999952316284
466,0.0001737997808959335,1.0,0.6363012790679932,0.8799999952316284
467,0.00014024860865902156,1.0,0.6383489370346069,0.8799999952316284
468,0.0001668732293182984,1.0,0.6391311883926392,0.8799999952316284
469,8.702650666236877e-05,1.0,0.638495683670044,0.8799999952316284
470,0.00013290243805386126,1.0,0.6388546228408813,0.8799999952316284
471,0.0002209512167610228,1.0,0.6398969292640686,0.8799999952316284
472,0.0001830005057854578,1.0,0.6409133672714233,0.8799999952316284
473,0.00012571676052175462,1.0,0.6413285732269287,0.8799999952316284
474,8.578904089517891e-05,1.0,0.6417214274406433,0.8799999952316284
475,0.0001787635264918208,1.0,0.6399177312850952,0.8799999952316284
476,0.000343752937624231,1.0,0.6429480910301208,0.8799999952316284
477,0.00011827976413769647,1.0,0.6439557671546936,0.8799999952316284
478,0.00013948522973805666,1.0,0.6441310048103333,0.8799999952316284
479,0.000100471886980813,1.0,0.6442506313323975,0.8799999952316284
480,4.706066465587355e-05,1.0,0.6447949409484863,0.8799999952316284
481,0.00014677183935418725,1.0,0.6457815766334534,0.8799999952316284
482,0.00010278893023496494,1.0,0.6461448669433594,0.8799999952316284
483,0.0007060127099975944,1.0,0.6484680771827698,0.8799999952316284
484,0.00028588264831341803,1.0,0.6502892374992371,0.8799999952316284
485,4.6326218580361456e-05,1.0,0.6498716473579407,0.8799999952316284
486,0.00041620858246460557,1.0,0.6507117748260498,0.8799999952316284
487,0.00021107503562234342,1.0,0.6506146192550659,0.8799999952316284
488,0.0002976016839966178,1.0,0.6497461199760437,0.8799999952316284
489,6.382281571859494e-05,1.0,0.649178683757782,0.8799999952316284
490,0.0003320461546536535,1.0,0.6477305889129639,0.8799999952316284
491,0.00010359123552916571,1.0,0.6442530751228333,0.8799999952316284
492,0.00010574293264653534,1.0,0.6431470513343811,0.8799999952316284
493,9.076264541363344e-05,1.0,0.642944872379303,0.8799999952316284
494,0.0003000734723173082,1.0,0.6431273818016052,0.8799999952316284
495,3.962452683481388e-05,1.0,0.6433724761009216,0.8799999952316284
496,0.00021628629474435002,1.0,0.646166980266571,0.8799999952316284
497,8.774863817961887e-05,1.0,0.6464748382568359,0.8799999952316284
498,0.000267404830083251,1.0,0.6464530825614929,0.8799999952316284
499,0.0002987944462802261,1.0,0.6462429165840149,0.8799999952316284
500,0.00011574148084037006,1.0,0.6455237865447998,0.8799999952316284
501,0.00021825818112120032,1.0,0.6458562612533569,0.8799999952316284
502,6.215789471752942e-05,1.0,0.6461223363876343,0.8799999952316284
503,0.0001219625337398611,1.0,0.6469511985778809,0.8799999952316284
504,0.0004627850139513612,1.0,0.6485864520072937,0.8799999952316284
505,6.944487540749833e-05,1.0,0.6501783728599548,0.8799999952316284
506,0.00022661325056105852,1.0,0.6526671051979065,0.8799999952316284
507,0.00018475722754374146,1.0,0.6533515453338623,0.8799999952316284
508,0.00013083021622151136,1.0,0.6541653275489807,0.8799999952316284
509,0.0003127111995127052,1.0,0.6553052663803101,0.8799999952316284
510,6.866302283015102e-05,1.0,0.6570762395858765,0.8799999952316284
511,0.00010498666961211711,1.0,0.6579990386962891,0.8799999952316284
512,0.00020922647672705352,1.0,0.6592743396759033,0.8799999952316284
513,7.8969904279802e-05,1.0,0.6604840159416199,0.8799999952316284
514,0.00037049208185635507,1.0,0.6584099531173706,0.8799999952316284
515,0.00014905771240592003,1.0,0.6588385701179504,0.8799999952316284
516,5.629653969663195e-05,1.0,0.6586029529571533,0.8799999952316284
517,5.9376856370363384e-05,1.0,0.6589362621307373,0.8799999952316284
518,0.00011510281183291227,1.0,0.6591034531593323,0.8799999952316284
519,0.00011004241241607815,1.0,0.6593274474143982,0.8799999952316284
520,8.828361751511693e-05,1.0,0.6599439382553101,0.8799999952316284
521,9.945280908141285e-05,1.0,0.6608205437660217,0.8799999952316284
522,7.137253123801202e-05,1.0,0.6612526178359985,0.8799999952316284
523,0.00015084697224665433,1.0,0.6632909178733826,0.8799999952316284
524,0.0001288650673814118,1.0,0.6631022691726685,0.8799999952316284
525,0.00012980008614249527,1.0,0.6635888814926147,0.8799999952316284
526,0.0002930923947133124,1.0,0.6667173504829407,0.8799999952316284
527,0.00022560192155651748,1.0,0.6686834096908569,0.8799999952316284
528,0.00019130893633700907,1.0,0.6703466773033142,0.8799999952316284
529,0.00010210955224465579,1.0,0.6718453764915466,0.8799999952316284
530,0.00010115043551195413,1.0,0.672926127910614,0.8799999952316284
531,0.00011663691839203238,1.0,0.6724728345870972,0.8799999952316284
532,0.0001275526883546263,1.0,0.6700196862220764,0.8799999952316284
533,0.00011375746544217691,1.0,0.6697046756744385,0.8799999952316284
534,0.0004370950919110328,1.0,0.6704378724098206,0.8799999952316284
535,4.1063678509090096e-05,1.0,0.6702671647071838,0.8799999952316284
536,0.00018060544971376657,1.0,0.6724262833595276,0.8799999952316284
537,0.00030611385591328144,1.0,0.6704750061035156,0.8799999952316284
538,5.4054522479418665e-05,1.0,0.6677758097648621,0.8799999952316284
539,5.3559117077384144e-05,1.0,0.6665106415748596,0.8799999952316284
540,6.619223131565377e-05,1.0,0.6662521958351135,0.8799999952316284
541,0.0004670683993026614,1.0,0.6705788969993591,0.8799999952316284
542,5.730657358071767e-05,1.0,0.6748177409172058,0.8799999952316284
543,6.439258140744641e-05,1.0,0.6761764287948608,0.8799999952316284
544,8.075342338997871e-05,1.0,0.6766917705535889,0.8799999952316284
545,0.000289841671474278,1.0,0.6785458326339722,0.8799999952316284
546,0.0002030192263191566,1.0,0.6772454977035522,0.8799999952316284
547,8.491594053339213e-05,1.0,0.6762504577636719,0.8799999952316284
548,0.0003518895828165114,1.0,0.6785814762115479,0.8799999952316284
549,4.002171408501454e-05,1.0,0.6810103058815002,0.8799999952316284
550,0.00015994554269127548,1.0,0.681805431842804,0.8799999952316284
551,0.0005213765543885529,1.0,0.6733536720275879,0.8799999952316284
552,9.888660133583471e-05,1.0,0.6619983911514282,0.8799999952316284
553,9.740054520079866e-05,1.0,0.6585230231285095,0.8799999952316284
554,0.0001426466042175889,1.0,0.656726598739624,0.8799999952316284
555,0.00020975373627152294,1.0,0.6582940816879272,0.8799999952316284
556,7.627846935065463e-05,1.0,0.6589391231536865,0.8799999952316284
557,8.628815703559667e-05,1.0,0.6603866815567017,0.8799999952316284
558,0.00025728746550157666,1.0,0.662611722946167,0.8799999952316284
559,4.606490983860567e-05,1.0,0.6632875204086304,0.8799999952316284
560,6.862625741632655e-05,1.0,0.6636785864830017,0.8799999952316284
561,0.0003121437912341207,1.0,0.6661881804466248,0.8799999952316284
562,8.541563875041902e-05,1.0,0.6721233129501343,0.8799999952316284
563,5.581213190453127e-05,1.0,0.6736084222793579,0.8799999952316284
564,0.00010263341391691938,1.0,0.6752615571022034,0.8799999952316284
565,4.78091933473479e-05,1.0,0.6755332946777344,0.8799999952316284
566,0.0006318812957033515,1.0,0.6832730174064636,0.8799999952316284
567,0.0001416867453372106,1.0,0.691378116607666,0.8799999952316284
568,0.00010324498725822195,1.0,0.6917359828948975,0.8799999952316284
569,0.0003809518238995224,1.0,0.6896440982818604,0.8799999952316284
570,3.948764060623944e-05,1.0,0.6874781847000122,0.8799999952316284
571,6.088697773520835e-05,1.0,0.6865403652191162,0.8799999952316284
572,0.000235338942729868,1.0,0.6836357116699219,0.8799999952316284
573,5.519123806152493e-05,1.0,0.6814181804656982,0.8799999952316284
574,0.0034882479812949896,1.0,0.6469104290008545,0.8899999856948853
575,6.0828664572909474e-05,1.0,0.6377655863761902,0.8899999856948853
576,0.0001452964497730136,1.0,0.6363567113876343,0.8999999761581421
577,0.00014680754975415766,1.0,0.6372838020324707,0.8999999761581421
578,0.00020849183783866465,1.0,0.6398851871490479,0.8899999856948853
579,0.0005261117476038635,1.0,0.6409987807273865,0.8899999856948853
580,7.006262603681535e-05,1.0,0.6440691947937012,0.8899999856948853
581,0.00013864465290680528,1.0,0.6464895009994507,0.8799999952316284
582,9.745323768584058e-05,1.0,0.6482818126678467,0.8799999952316284
583,0.00019411987159401178,1.0,0.6487758159637451,0.8799999952316284
584,0.0002532641519792378,1.0,0.6487657427787781,0.8799999952316284
585,3.924616612493992e-05,1.0,0.6474427580833435,0.8799999952316284
586,4.4543747208081186e-05,1.0,0.6477757096290588,0.8799999952316284
587,4.282784720999189e-05,1.0,0.6483699083328247,0.8799999952316284
588,0.0004037101462017745,1.0,0.6419360637664795,0.8799999952316284
589,0.0001489614660385996,1.0,0.6401340961456299,0.8799999952316284
590,0.00013280159328132868,1.0,0.6415302157402039,0.8799999952316284
591,7.210409239633009e-05,1.0,0.6437277793884277,0.8799999952316284
592,0.00030397388036362827,1.0,0.6494620442390442,0.8799999952316284
593,0.00010570370795903727,1.0,0.6535219550132751,0.8799999952316284
594,0.00032175297383219004,1.0,0.6623609066009521,0.8799999952316284
595,7.93886574683711e-05,1.0,0.670432984828949,0.8799999952316284
596,0.00015038176206871867,1.0,0.6735275983810425,0.8799999952316284
597,0.00012306065764278173,1.0,0.674225926399231,0.8799999952316284
598,0.00010293922969140112,1.0,0.6741178631782532,0.8799999952316284
599,5.3098858188604936e-05,1.0,0.6731102466583252,0.8799999952316284
600,0.000142130593303591,1.0,0.6738956570625305,0.8799999952316284
601,8.277306915260851e-05,1.0,0.6725963354110718,0.8799999952316284
602,0.0001547549181850627,1.0,0.6738407611846924,0.8799999952316284
603,0.00019578049250412732,1.0,0.6760578751564026,0.8799999952316284
604,8.337995677720755e-05,1.0,0.6769576072692871,0.8799999952316284
605,6.409225898096338e-05,1.0,0.6778115630149841,0.8799999952316284
606,0.0002824699622578919,1.0,0.6794683933258057,0.8799999952316284
607,8.007788710528985e-05,1.0,0.68227219581604,0.8799999952316284
608,0.0002992016088683158,1.0,0.6821949481964111,0.8799999952316284
609,0.00020180045976303518,1.0,0.6798285841941833,0.8799999952316284
610,4.7721463488414884e-05,1.0,0.6803836822509766,0.8799999952316284
611,5.200144732953049e-05,1.0,0.6808701157569885,0.8799999952316284
612,5.482246706378646e-05,1.0,0.6810445189476013,0.8799999952316284
613,0.00016442897322122008,1.0,0.6824503540992737,0.8799999952316284
614,0.0001400966284563765,1.0,0.6829899549484253,0.8799999952316284
615,5.695865911548026e-05,1.0,0.6821423172950745,0.8799999952316284
616,9.130200487561524e-05,1.0,0.682009756565094,0.8799999952316284
617,0.00018648745026439428,1.0,0.6827775835990906,0.8799999952316284
618,0.00014613255916628987,1.0,0.6843127608299255,0.8799999952316284
619,6.044804467819631e-05,1.0,0.6865894794464111,0.8799999952316284
620,0.0003139605396427214,1.0,0.6941171884536743,0.8799999952316284
621,0.00014749521506018937,1.0,0.6966335773468018,0.8799999952316284
622,0.00014093564823269844,1.0,0.6976028680801392,0.8799999952316284
623,0.0003770215844269842,1.0,0.6958250999450684,0.8799999952316284
624,3.625225872383453e-05,1.0,0.6891373991966248,0.8799999952316284
625,3.24462671414949e-05,1.0,0.6871536374092102,0.8799999952316284
626,6.206889520399272e-05,1.0,0.6869567632675171,0.8799999952316284
627,9.256946941604838e-05,1.0,0.6857874393463135,0.8799999952316284
628,3.2157517125597224e-05,1.0,0.6855210065841675,0.8799999952316284
629,3.182997170370072e-05,1.0,0.6858447194099426,0.8799999952316284
630,8.64958856254816e-05,1.0,0.6858732104301453,0.8799999952316284
631,4.271204670658335e-05,1.0,0.6855621337890625,0.8799999952316284
632,0.0001765250344760716,1.0,0.6861964464187622,0.8799999952316284
633,0.00012114328274037689,1.0,0.6881725192070007,0.8799999952316284
634,4.7919329517753795e-05,1.0,0.689107358455658,0.8799999952316284
635,3.198223566869274e-05,1.0,0.6886684894561768,0.8799999952316284
636,8.733706636121497e-05,1.0,0.6885662078857422,0.8799999952316284
637,9.4787341367919e-05,1.0,0.6895302534103394,0.8799999952316284
638,0.00020996762032154948,1.0,0.6919369697570801,0.8799999952316284
639,6.967669469304383e-05,1.0,0.6928882002830505,0.8799999952316284
640,5.411056918092072e-05,1.0,0.6931639909744263,0.8799999952316284
641,7.564610859844834e-05,1.0,0.69441819190979,0.8799999952316284
642,0.00019563177193049341,1.0,0.6937111020088196,0.8799999952316284
643,2.6986832381226122e-05,1.0,0.6943948268890381,0.8799999952316284
644,6.095724165788852e-05,1.0,0.6951619982719421,0.8799999952316284
645,5.330031126504764e-05,1.0,0.6960135102272034,0.8799999952316284
646,0.00013844663044437766,1.0,0.6974201798439026,0.8799999952316284
647,0.0008043110137805343,1.0,0.6940008401870728,0.8799999952316284
648,0.00010232144268229604,1.0,0.6745820045471191,0.8799999952316284
649,4.3761247070506215e-05,1.0,0.6692937612533569,0.8799999952316284
650,6.589257100131363e-05,1.0,0.6682373285293579,0.8799999952316284
651,6.409290654119104e-05,1.0,0.668428897857666,0.8799999952316284
652,0.00010491805733181536,1.0,0.6689549088478088,0.8799999952316284
653,8.833596803015098e-05,1.0,0.6702290177345276,0.8799999952316284
654,6.016612678649835e-05,1.0,0.671842098236084,0.8799999952316284
655,7.812253898009658e-05,1.0,0.6742553114891052,0.8799999952316284
656,0.00015652085130568594,1.0,0.6730212569236755,0.8799999952316284
657,0.00015100030577741563,1.0,0.6760092973709106,0.8799999952316284
658,0.00010588220902718604,1.0,0.6784694194793701,0.8799999952316284
659,3.4942597267217934e-05,1.0,0.6798171401023865,0.8799999952316284
660,4.112864917260595e-05,1.0,0.6807518601417542,0.8799999952316284
661,2.1611698684864677e-05,1.0,0.6813281774520874,0.8799999952316284
662,3.159408151987009e-05,1.0,0.6825332641601562,0.8799999952316284
663,0.0011990193743258715,1.0,0.687690258026123,0.8799999952316284
664,0.00037661485839635134,1.0,0.7041002511978149,0.8799999952316284
665,9.716009662952274e-05,1.0,0.7093713879585266,0.8799999952316284
666,0.00010224984725937247,1.0,0.7096759080886841,0.8799999952316284
667,5.858676377101801e-05,1.0,0.7086175680160522,0.8799999952316284
668,0.00015188050747383386,1.0,0.7080411314964294,0.8799999952316284
669,0.00017779342306312174,1.0,0.7043091058731079,0.8799999952316284
670,0.00016459598555229604,1.0,0.7015547156333923,0.8799999952316284
671,8.124910527840257e-05,1.0,0.6923556327819824,0.8799999952316284
672,6.526290962938219e-05,1.0,0.6902669668197632,0.8799999952316284
673,2.7170377506990917e-05,1.0,0.6889742016792297,0.8799999952316284
674,6.385717279044911e-05,1.0,0.6897560358047485,0.8799999952316284
675,6.0575319366762415e-05,1.0,0.6898880004882812,0.8799999952316284
676,3.503882180666551e-05,1.0,0.6903017163276672,0.8799999952316284
677,1.5859892300795764e-05,1.0,0.6903405785560608,0.8799999952316284
678,9.015690739033744e-05,1.0,0.692401111125946,0.8799999952316284
679,3.074657797697e-05,1.0,0.693412721157074,0.8799999952316284
680,3.317635855637491e-05,1.0,0.6939536929130554,0.8799999952316284
681,0.00025274421204812825,1.0,0.6951791644096375,0.8799999952316284
682,3.195363751729019e-05,1.0,0.6957048773765564,0.8799999952316284
683,2.8512708013295196e-05,1.0,0.6967986822128296,0.8799999952316284
684,0.0001359185262117535,1.0,0.6987612247467041,0.8799999952316284
685,2.564462374721188e-05,1.0,0.6989047527313232,0.8799999952316284
686,3.5965233109891415e-05,1.0,0.6988844275474548,0.8799999952316284
687,4.630381226888858e-05,1.0,0.6999021172523499,0.8799999952316284
688,4.756834823638201e-05,1.0,0.7004369497299194,0.8799999952316284
689,4.6348999603651464e-05,1.0,0.7019427418708801,0.8799999952316284
690,0.0005756248137913644,1.0,0.7079104781150818,0.8799999952316284
691,5.5266067647608e-05,1.0,0.7128413915634155,0.8799999952316284
692,4.7604666178813204e-05,1.0,0.7132232785224915,0.8799999952316284
693,0.00014264702622313052,1.0,0.7146040201187134,0.8799999952316284
694,9.941403550328687e-05,1.0,0.7156795263290405,0.8799999952316284
695,5.4013667977415025e-05,1.0,0.714934229850769,0.8799999952316284
696,2.265465445816517e-05,1.0,0.7129428386688232,0.8799999952316284
697,2.863643749151379e-05,1.0,0.7115663290023804,0.8799999952316284
698,0.0002067748282570392,1.0,0.7152798175811768,0.8799999952316284
699,2.612769640109036e-05,1.0,0.720548689365387,0.8799999952316284
700,0.00015023240121081471,1.0,0.7224865555763245,0.8799999952316284
701,0.00011614248796831816,1.0,0.7239801287651062,0.8799999952316284
702,2.8139429559814744e-05,1.0,0.7221747040748596,0.8799999952316284
703,6.214943277882412e-05,1.0,0.7215941548347473,0.8799999952316284
704,0.000114272246719338,1.0,0.7214142084121704,0.8799999952316284
705,0.0001588224113220349,1.0,0.728364884853363,0.8799999952316284
706,3.184143133694306e-05,1.0,0.7307324409484863,0.8799999952316284
707,0.00011186549090780318,1.0,0.7288141846656799,0.8799999952316284
708,4.17803785239812e-05,1.0,0.7260486483573914,0.8799999952316284
709,1.761555358825717e-05,1.0,0.7241455316543579,0.8799999952316284
710,0.0009091336978599429,1.0,0.6645414233207703,0.8799999952316284
711,2.1440466298372485e-05,1.0,0.6479998230934143,0.8799999952316284
712,0.00015767448348924518,1.0,0.6462527513504028,0.8799999952316284
713,0.00012593186693266034,1.0,0.6484513282775879,0.8799999952316284
714,0.0001289427891606465,1.0,0.6561118960380554,0.8799999952316284
715,0.00034961264464072883,1.0,0.6812275648117065,0.8799999952316284
716,0.00020595529349520802,1.0,0.7064725756645203,0.8799999952316284
717,5.333341323421337e-05,1.0,0.7215965390205383,0.8799999952316284
718,3.553557689883746e-05,1.0,0.7263640761375427,0.8799999952316284
719,3.3439126127632335e-05,1.0,0.726621687412262,0.8799999952316284
720,8.654973498778418e-05,1.0,0.7285889387130737,0.8799999952316284
721,5.0618211389519274e-05,1.0,0.7287107110023499,0.8799999952316284
722,4.243580769980326e-05,1.0,0.7277204394340515,0.8799999952316284
723,3.7901914765825495e-05,1.0,0.7260943055152893,0.8799999952316284
724,8.859342051437125e-05,1.0,0.7246785163879395,0.8799999952316284
725,0.00011690975952660665,1.0,0.7287282347679138,0.8799999952316284
726,4.024011650471948e-05,1.0,0.7291261553764343,0.8799999952316284
727,0.0001791744289221242,1.0,0.7300329804420471,0.8799999952316284
728,0.00013103557284921408,1.0,0.7308918237686157,0.8799999952316284
729,0.00015790788165759295,1.0,0.7354850769042969,0.8799999952316284
730,6.446763291023672e-05,1.0,0.7365880012512207,0.8799999952316284
731,1.5706338672316633e-05,1.0,0.7363439202308655,0.8799999952316284
732,5.3516236221184954e-05,1.0,0.7359879016876221,0.8799999952316284
733,0.00011325462401146069,1.0,0.7355849742889404,0.8799999952316284
734,1.752163007040508e-05,1.0,0.7352501749992371,0.8799999952316284
735,1.5759813322802074e-05,1.0,0.7346112728118896,0.8799999952316284
736,3.310085958219133e-05,1.0,0.7344720959663391,0.8799999952316284
737,0.0002775222819764167,1.0,0.7398070693016052,0.8799999952316284
738,6.0895163187524304e-05,1.0,0.7403577566146851,0.8799999952316284
739,3.411949728615582e-05,1.0,0.7401229739189148,0.8799999952316284
740,1.3027981367486063e-05,1.0,0.7404036521911621,0.8799999952316284
741,5.8996636653319e-05,1.0,0.7417247295379639,0.8799999952316284
742,5.100991984363645e-05,1.0,0.7412436604499817,0.8799999952316284
743,3.7464498745976016e-05,1.0,0.741072416305542,0.8799999952316284
744,0.00016272813081741333,1.0,0.748191237449646,0.8799999952316284
745,4.384071144158952e-05,1.0,0.7499098777770996,0.8799999952316284
746,1.514805990154855e-05,1.0,0.7490946054458618,0.8799999952316284
747,0.00015524054470006377,1.0,0.7495683431625366,0.8799999952316284
748,3.680067675304599e-05,1.0,0.7484950423240662,0.8799999952316284
749,0.0007163084810599685,1.0,0.7493492364883423,0.8799999952316284
750,7.005514635238796e-05,1.0,0.7472348213195801,0.8799999952316284
751,0.0001037660040310584,1.0,0.7412257194519043,0.8799999952316284
752,8.391296432819217e-05,1.0,0.7364695072174072,0.8799999952316284
753,4.037364851683378e-05,1.0,0.7316175103187561,0.8799999952316284
754,2.1151268811081536e-05,1.0,0.7303670644760132,0.8799999952316284
755,3.59068981197197e-05,1.0,0.7298938035964966,0.8799999952316284
756,4.7743553295731544e-05,1.0,0.7312497496604919,0.8799999952316284
757,6.0522117564687505e-05,1.0,0.7305765748023987,0.8799999952316284
758,3.50235823134426e-05,1.0,0.7297170162200928,0.8799999952316284
759,3.121519694104791e-05,1.0,0.7311545014381409,0.8799999952316284
760,0.0001489200658397749,1.0,0.7337280511856079,0.8799999952316284
761,2.3388047338812612e-05,1.0,0.7351128458976746,0.8799999952316284
762,3.281559474999085e-05,1.0,0.7365514636039734,0.8799999952316284
763,3.636120891314931e-05,1.0,0.7383630871772766,0.8799999952316284
764,9.054524707607925e-05,1.0,0.7414570450782776,0.8799999952316284
765,1.3343582395464182e-05,1.0,0.7424935698509216,0.8799999952316284
766,8.507267921231687e-05,1.0,0.7400327324867249,0.8799999952316284
767,9.668821439845487e-05,1.0,0.7316930294036865,0.8799999952316284
768,4.9225520342588425e-05,1.0,0.729241132736206,0.8799999952316284
769,0.00014773564180359244,1.0,0.7317757606506348,0.8799999952316284
770,1.5458288544323295e-05,1.0,0.7348380088806152,0.8799999952316284
771,1.5981942851794884e-05,1.0,0.7359611392021179,0.8799999952316284
772,5.4660435125697404e-05,1.0,0.7379485368728638,0.8799999952316284
773,1.6101830624393187e-05,1.0,0.7388308644294739,0.8799999952316284
774,3.6653076676884666e-05,1.0,0.7399051189422607,0.8799999952316284
775,9.069221414392814e-05,1.0,0.7409315705299377,0.8799999952316284
776,5.3515745094046e-05,1.0,0.7413842678070068,0.8799999952316284
777,0.00011997366527793929,1.0,0.7458248734474182,0.8799999952316284
778,0.00015390189946629107,1.0,0.7516573071479797,0.8799999952316284
779,6.985814252402633e-05,1.0,0.7520610690116882,0.8799999952316284
780,1.3139696420694236e-05,1.0,0.7521278262138367,0.8799999952316284
781,9.060902812052518e-06,1.0,0.7513826489448547,0.8799999952316284
782,0.00025068680406548083,1.0,0.7740126252174377,0.8799999952316284
783,1.715096368570812e-05,1.0,0.7881773114204407,0.8799999952316284
784,2.0374975065351464e-05,1.0,0.7878341674804688,0.8799999952316284
785,7.46409350540489e-05,1.0,0.780457615852356,0.8799999952316284
786,4.9442252930020913e-05,1.0,0.7714456915855408,0.8799999952316284
787,1.1261407962592784e-05,1.0,0.765418529510498,0.8799999952316284
788,4.557734791887924e-05,1.0,0.7640844583511353,0.8799999952316284
789,9.602159116184339e-05,1.0,0.7624078392982483,0.8799999952316284
790,1.3746650438406505e-05,1.0,0.7619064450263977,0.8799999952316284
791,5.063945718575269e-05,1.0,0.7611320614814758,0.8799999952316284
792,0.0001026825702865608,1.0,0.7570237517356873,0.8799999952316284
793,2.1896699763601646e-05,1.0,0.7513859272003174,0.8799999952316284
794,1.5986508515197784e-05,1.0,0.7495774030685425,0.8799999952316284
795,8.23917071102187e-05,1.0,0.7494637966156006,0.8799999952316284
796,3.0023078579688445e-05,1.0,0.7494125962257385,0.8799999952316284
797,8.459256787318736e-05,1.0,0.7484884858131409,0.8799999952316284
798,0.0001254762028111145,1.0,0.7540204524993896,0.8799999952316284
799,3.157863102387637e-05,1.0,0.7621792554855347,0.8799999952316284
800,2.614345430629328e-05,1.0,0.763034999370575,0.8799999952316284
801,2.0457731807255186e-05,1.0,0.7629168629646301,0.8799999952316284
802,3.818682307610288e-05,1.0,0.7620113492012024,0.8799999952316284
803,9.582995699020103e-05,1.0,0.7613231539726257,0.8799999952316284
804,2.7104728360427544e-05,1.0,0.7600057721138,0.8799999952316284
805,3.09722927340772e-05,1.0,0.7582059502601624,0.8799999952316284
806,2.0337640307843685e-05,1.0,0.7582508325576782,0.8799999952316284
807,2.6202096705674194e-05,1.0,0.7580358386039734,0.8799999952316284
808,8.803523087408394e-05,1.0,0.7442976236343384,0.8799999952316284
809,0.00012026567128486931,1.0,0.7394445538520813,0.8799999952316284
810,1.152791992353741e-05,1.0,0.7398417592048645,0.8799999952316284
811,6.799286347813904e-05,1.0,0.7437219023704529,0.8799999952316284
812,3.119071698165499e-05,1.0,0.7487736344337463,0.8799999952316284
813,1.5042531231301837e-05,1.0,0.7503964900970459,0.8799999952316284
814,2.1929387003183365e-05,1.0,0.7513304352760315,0.8799999952316284
815,9.379065886605531e-06,1.0,0.7524487376213074,0.8799999952316284
816,1.1819241080957e-05,1.0,0.7519488334655762,0.8799999952316284
817,0.00017407069390174001,1.0,0.7274430990219116,0.8799999952316284
818,8.617483217676636e-06,1.0,0.6995745301246643,0.8899999856948853
819,5.1381084631429985e-05,1.0,0.6977119445800781,0.8899999856948853
820,1.6572041204199195e-05,1.0,0.703259289264679,0.8899999856948853
821,3.3428881579311565e-05,1.0,0.7091217637062073,0.8799999952316284
822,3.7734131183242425e-05,1.0,0.7162383794784546,0.8799999952316284
823,2.3169644919107668e-05,1.0,0.724101185798645,0.8799999952316284
824,3.0222359782783315e-05,1.0,0.7302284240722656,0.8799999952316284
825,6.0268961533438414e-05,1.0,0.7365447878837585,0.8799999952316284
826,2.29443048738176e-05,1.0,0.7414776086807251,0.8799999952316284
827,7.818694575689733e-05,1.0,0.7509185671806335,0.8799999952316284
828,4.159233139944263e-05,1.0,0.7569593191146851,0.8799999952316284
829,1.52702286868589e-05,1.0,0.7605726718902588,0.8799999952316284
830,0.00011931169865420088,1.0,0.765709638595581,0.8799999952316284
831,2.5757688490557484e-05,1.0,0.7719359397888184,0.8799999952316284
832,2.3859318389440887e-05,1.0,0.7750345468521118,0.8799999952316284
833,2.419057818769943e-05,1.0,0.7776533365249634,0.8799999952316284
834,1.9841256289510056e-05,1.0,0.7784180641174316,0.8799999952316284
835,2.136105285899248e-05,1.0,0.7797027826309204,0.8799999952316284
836,1.5379586329800077e-05,1.0,0.7804343700408936,0.8799999952316284
837,1.9075703676207922e-05,1.0,0.780515193939209,0.8799999952316284
838,0.0001042756048263982,1.0,0.7858333587646484,0.8799999952316284
839,1.866043749032542e-05,1.0,0.7841085195541382,0.8799999952316284
840,2.2111416910775006e-05,1.0,0.7837299108505249,0.8799999952316284
841,1.943515962921083e-05,1.0,0.782823383808136,0.8799999952316284
842,6.63693790556863e-05,1.0,0.7819012999534607,0.8799999952316284
843,0.00013138171925675124,1.0,0.7896469235420227,0.8799999952316284
844,2.879482963180635e-05,1.0,0.7940958142280579,0.8799999952316284
845,3.6713521694764495e-05,1.0,0.7943115830421448,0.8799999952316284
846,2.5364057364640757e-05,1.0,0.7950862050056458,0.8799999952316284
847,6.187838152982295e-05,1.0,0.7848283648490906,0.8799999952316284
848,6.463120371336117e-05,1.0,0.7786900401115417,0.8799999952316284
849,2.2997408450464718e-05,1.0,0.7752023339271545,0.8799999952316284
850,1.4644125258200802e-05,1.0,0.7744448781013489,0.8799999952316284
851,2.3282085749087855e-05,1.0,0.7744355797767639,0.8799999952316284
852,4.609445750247687e-05,1.0,0.7755418419837952,0.8799999952316284
853,5.48968200746458e-05,1.0,0.7781603336334229,0.8799999952316284
854,0.0001184059219667688,1.0,0.7916483879089355,0.8799999952316284
855,2.3994356524781324e-05,1.0,0.7966036200523376,0.8799999952316284
856,1.2843171134591103e-05,1.0,0.7958888411521912,0.8799999952316284
857,0.00011833086318802088,1.0,0.8033046722412109,0.8799999952316284
858,7.18722803867422e-05,1.0,0.8067469000816345,0.8799999952316284
859,1.791550857888069e-05,1.0,0.8075261116027832,0.8799999952316284
860,4.614096906152554e-05,1.0,0.8058757185935974,0.8799999952316284
861,3.4429263905622065e-05,1.0,0.8027330636978149,0.8799999952316284
862,7.904576705186628e-06,1.0,0.7992068529129028,0.8799999952316284
863,1.6329819118254818e-05,1.0,0.7964429259300232,0.8799999952316284
864,2.0338302419986576e-05,1.0,0.7941178679466248,0.8799999952316284
865,1.8447897673468105e-05,1.0,0.7916943430900574,0.8799999952316284
866,8.9367495093029e-06,1.0,0.7892208695411682,0.8799999952316284
867,1.9758688722504303e-05,1.0,0.7880488038063049,0.8799999952316284
868,4.1656381654320285e-05,1.0,0.7874431014060974,0.8799999952316284
869,1.8384675058769062e-05,1.0,0.7862861156463623,0.8799999952316284
870,9.531694558972958e-06,1.0,0.7855411767959595,0.8799999952316284
871,0.0001457969774492085,1.0,0.7951927185058594,0.8799999952316284
872,2.356590448471252e-05,1.0,0.8012150526046753,0.8799999952316284
873,1.1853342584799975e-05,1.0,0.801347553730011,0.8799999952316284
874,1.2618996152014006e-05,1.0,0.8002651929855347,0.8799999952316284
875,1.2100274034310132e-05,1.0,0.7990109324455261,0.8799999952316284
876,3.074710912187584e-05,1.0,0.794697105884552,0.8799999952316284
877,7.427725904562976e-06,1.0,0.7910415530204773,0.8799999952316284
878,2.4486849724780768e-05,1.0,0.7902711629867554,0.8799999952316284
879,9.050144399225246e-06,1.0,0.7890409231185913,0.8799999952316284
880,9.815375051402953e-06,1.0,0.7877358794212341,0.8799999952316284
881,1.7541709894430824e-05,1.0,0.7866806983947754,0.8799999952316284
882,1.5948351574479602e-05,1.0,0.7861154675483704,0.8799999952316284
883,9.277422213926911e-05,1.0,0.7781268954277039,0.8799999952316284
884,6.832914550614078e-06,1.0,0.7749835848808289,0.8799999952316284
885,1.5751800674479455e-05,1.0,0.7750083208084106,0.8799999952316284
886,7.694845407968387e-06,1.0,0.7750855088233948,0.8799999952316284
887,1.996388891711831e-05,1.0,0.775749683380127,0.8799999952316284
888,4.2982937884517014e-05,1.0,0.7736258506774902,0.8799999952316284
889,1.7250875316676684e-05,1.0,0.77298903465271,0.8799999952316284
890,1.6147834685398266e-05,1.0,0.7728617191314697,0.8799999952316284
891,1.811734000511933e-05,1.0,0.7738978862762451,0.8799999952316284
892,4.508509300649166e-05,1.0,0.7765167355537415,0.8799999952316284
893,3.902655225829221e-05,1.0,0.779070258140564,0.8799999952316284
894,5.086480814497918e-05,1.0,0.7743285894393921,0.8799999952316284
895,1.224332027049968e-05,1.0,0.7707432508468628,0.8799999952316284
896,5.8156801969744265e-05,1.0,0.7786393761634827,0.8799999952316284
897,4.924587847199291e-05,1.0,0.7841604351997375,0.8799999952316284
898,1.964816328836605e-05,1.0,0.7878970503807068,0.8799999952316284
899,0.00014327008102554828,1.0,0.7857560515403748,0.8799999952316284
900,1.1502022061904427e-05,1.0,0.7786720991134644,0.8799999952316284
901,1.0441021004226059e-05,1.0,0.7762641906738281,0.8799999952316284
902,3.350924816913903e-05,1.0,0.7771931290626526,0.8799999952316284
903,1.9009683455806226e-05,1.0,0.776702880859375,0.8799999952316284
904,3.625668614404276e-05,1.0,0.7798457145690918,0.8799999952316284
905,3.5680852306541055e-05,1.0,0.7831779718399048,0.8799999952316284
906,0.0001519913348602131,1.0,0.777048647403717,0.8899999856948853
907,5.083025371277472e-06,1.0,0.7622402310371399,0.8899999856948853
908,3.0244393201428466e-05,1.0,0.7602756023406982,0.8899999856948853
909,0.00011119071132270619,1.0,0.7724887132644653,0.8899999856948853
910,5.318619150784798e-05,1.0,0.7844474911689758,0.8899999856948853
911,0.0001821811165427789,1.0,0.8002201318740845,0.8799999952316284
912,4.503554373513907e-05,1.0,0.8067814111709595,0.8700000047683716
913,1.1195690603926778e-05,1.0,0.8054739236831665,0.8700000047683716
914,1.8586568330647424e-05,1.0,0.8034959435462952,0.8700000047683716
915,1.642023016756866e-05,1.0,0.8010825514793396,0.8700000047683716
916,2.4356502763112076e-05,1.0,0.8016747832298279,0.8700000047683716
917,6.945801578694955e-05,1.0,0.801445484161377,0.8700000047683716
918,3.846129766316153e-05,1.0,0.8009601831436157,0.8700000047683716
919,1.932514896907378e-05,1.0,0.7942450046539307,0.8700000047683716
920,6.68866277919733e-06,1.0,0.7909379005432129,0.8700000047683716
921,1.944289579114411e-05,1.0,0.7906098961830139,0.8700000047683716
922,4.2863386624958366e-05,1.0,0.7827191352844238,0.8799999952316284
923,3.814192314166576e-05,1.0,0.7797966003417969,0.8799999952316284
924,0.00011364268721081316,1.0,0.7930805683135986,0.8799999952316284
925,4.891467688139528e-05,1.0,0.8094754219055176,0.8700000047683716
926,9.339735697722062e-06,1.0,0.8129934072494507,0.8700000047683716
927,1.8087695934809744e-05,1.0,0.8125621676445007,0.8700000047683716
928,1.185124710900709e-05,1.0,0.8113960027694702,0.8700000047683716
929,0.00015809229807928205,1.0,0.7997158169746399,0.8700000047683716
930,8.998747034638654e-06,1.0,0.744056761264801,0.8799999952316284
931,4.189538594800979e-05,1.0,0.7365432977676392,0.8799999952316284
932,1.5127051483432297e-05,1.0,0.7367594838142395,0.8799999952316284
933,5.3390256653074175e-05,1.0,0.7468032836914062,0.8799999952316284
934,1.5550120224361308e-05,1.0,0.75330650806427,0.8799999952316284
935,2.2983134840615094e-05,1.0,0.7603386640548706,0.8799999952316284
936,2.023838897002861e-05,1.0,0.7659847736358643,0.8799999952316284
937,4.6299224777612835e-05,1.0,0.7691143751144409,0.8799999952316284
938,1.9124592654407024e-05,1.0,0.7732699513435364,0.8799999952316284
939,1.3833823686582036e-05,1.0,0.774916410446167,0.8799999952316284
940,1.2581909686559811e-05,1.0,0.7762556672096252,0.8799999952316284
941,1.571197935845703e-05,1.0,0.7770205140113831,0.8799999952316284
942,1.5050568435981404e-05,1.0,0.7782045006752014,0.8799999952316284
943,1.23615745906136e-05,1.0,0.7797497510910034,0.8799999952316284
944,4.941167844663141e-06,1.0,0.7805134057998657,0.8799999952316284
945,1.8757524230750278e-05,1.0,0.782387912273407,0.8799999952316284
946,8.354263263754547e-05,1.0,0.7893856167793274,0.8799999952316284
947,9.306450010626577e-06,1.0,0.7928633689880371,0.8799999952316284
948,1.4495034520223271e-05,1.0,0.7941784858703613,0.8799999952316284
949,6.0092334024375305e-06,1.0,0.7939722537994385,0.8799999952316284
950,5.065474033472128e-05,1.0,0.7958222031593323,0.8799999952316284
951,4.308503048378043e-05,1.0,0.7978196740150452,0.8799999952316284
952,1.1123063814011402e-05,1.0,0.7980249524116516,0.8799999952316284
953,3.214581738575362e-05,1.0,0.7996090054512024,0.8799999952316284
954,4.5198932639323175e-05,1.0,0.8011552691459656,0.8799999952316284
955,1.4316602573671844e-05,1.0,0.8070910573005676,0.8799999952316284
956,1.9148226783727296e-05,1.0,0.8085920214653015,0.8799999952316284
957,4.5311375288292766e-05,1.0,0.8084558248519897,0.8799999952316284
958,2.9058170184725896e-05,1.0,0.8086105585098267,0.8799999952316284
959,1.4537193237629253e-05,1.0,0.8102605938911438,0.8799999952316284
960,2.4151055185939185e-05,1.0,0.8098381161689758,0.8799999952316284
961,2.035951183643192e-05,1.0,0.8074142932891846,0.8799999952316284
962,1.247456566488836e-05,1.0,0.8066092133522034,0.8799999952316284
963,9.436204709345475e-05,1.0,0.800770103931427,0.8799999952316284
964,9.256186785933096e-06,1.0,0.7954666018486023,0.8799999952316284
965,8.705664185981732e-06,1.0,0.7939256429672241,0.8799999952316284
966,1.6647922166157514e-05,1.0,0.7941809892654419,0.8799999952316284
967,8.568575140088797e-06,1.0,0.7935585975646973,0.8799999952316284
968,2.8523081709863618e-05,1.0,0.7961421012878418,0.8799999952316284
969,1.5632951544830576e-05,1.0,0.7981696128845215,0.8799999952316284
970,4.369238013168797e-05,1.0,0.8023950457572937,0.8799999952316284
971,4.227050521876663e-05,1.0,0.8089828491210938,0.8799999952316284
972,6.962770839891164e-06,1.0,0.8120386600494385,0.8799999952316284
973,1.3394802408583928e-05,1.0,0.8120364546775818,0.8799999952316284
974,3.0663901270600036e-05,1.0,0.8132244944572449,0.8799999952316284
975,1.0999946425727103e-05,1.0,0.8143100738525391,0.8799999952316284
976,1.7239877706742845e-05,1.0,0.8148203492164612,0.8799999952316284
977,2.5914474463206716e-05,1.0,0.8164933919906616,0.8799999952316284
978,8.168015483533964e-06,1.0,0.8116349577903748,0.8799999952316284
979,2.6196659746346995e-05,1.0,0.8109782934188843,0.8799999952316284
980,3.0871000490151346e-05,1.0,0.814017117023468,0.8799999952316284
981,2.0989240510971285e-05,1.0,0.8135945796966553,0.8799999952316284
982,6.655340712313773e-06,1.0,0.8104711174964905,0.8799999952316284
983,8.801963303994853e-06,1.0,0.8093966841697693,0.8799999952316284
984,6.485961876023794e-06,1.0,0.8072546124458313,0.8799999952316284
985,8.820006769383326e-06,1.0,0.8064637780189514,0.8799999952316284
986,1.0162070793739986e-05,1.0,0.8063640594482422,0.8799999952316284
987,1.1493738384160679e-05,1.0,0.8063898682594299,0.8799999952316284
988,3.258505239500664e-05,1.0,0.8113318085670471,0.8799999952316284
989,2.513219806132838e-05,1.0,0.8161815404891968,0.8799999952316284
990,7.66502671467606e-06,1.0,0.8206808567047119,0.8799999952316284
991,5.340484221960651e-06,1.0,0.82073575258255,0.8700000047683716
992,6.923158798599616e-05,1.0,0.8279564380645752,0.8799999952316284
993,3.0210272598196752e-05,1.0,0.8282394409179688,0.8799999952316284
994,2.5007302610902116e-05,1.0,0.8278595805168152,0.8799999952316284
995,7.368206752289552e-06,1.0,0.8270242214202881,0.8799999952316284
996,5.162772595213028e-06,1.0,0.8261318802833557,0.8799999952316284
997,7.6125461418996565e-06,1.0,0.8254607319831848,0.8799999952316284
998,2.1083245883346535e-05,1.0,0.8227994441986084,0.8799999952316284
999,3.870763612212613e-05,1.0,0.8237552046775818,0.8799999952316284
1000,7.3491282819304615e-06,1.0,0.8215311169624329,0.8799999952316284
1001,6.172656867420301e-05,1.0,0.827622652053833,0.8799999952316284
1002,7.060624739096966e-06,1.0,0.8443097472190857,0.8799999952316284
1003,1.1308928151265718e-05,1.0,0.848024308681488,0.8799999952316284
1004,7.608984560647514e-06,1.0,0.8478793501853943,0.8799999952316284
1005,1.601569601916708e-05,1.0,0.8438611626625061,0.8799999952316284
1006,9.208661140291952e-06,1.0,0.8415116667747498,0.8799999952316284
1007,6.305841088760644e-05,1.0,0.8382956981658936,0.8799999952316284
1008,0.0006510484381578863,1.0,0.7041204571723938,0.8700000047683716
1009,0.0016218211967498064,1.0,0.7043860554695129,0.8999999761581421
1010,0.00014298762835096568,1.0,1.5423178672790527,0.8299999833106995
1011,0.0005255230353213847,1.0,1.7259392738342285,0.8299999833106995
1012,0.0006699003279209137,1.0,1.338983178138733,0.8600000143051147
1013,0.0007482921937480569,1.0,1.279229760169983,0.8600000143051147
1014,0.0002737539180088788,1.0,1.230403184890747,0.8600000143051147
1015,0.00042274006409570575,1.0,1.1334547996520996,0.8600000143051147
1016,0.0018597963498905301,1.0,0.7918666005134583,0.8500000238418579
1017,0.011288974434137344,0.9900000095367432,0.5510216355323792,0.8799999952316284
1018,0.005465942434966564,1.0,1.7425669431686401,0.5799999833106995
1019,0.0120767243206501,0.9900000095367432,1.416356086730957,0.6100000143051147
1020,0.0011637706775218248,1.0,0.7360401153564453,0.8399999737739563
1021,0.0012980620376765728,1.0,0.8366407155990601,0.8500000238418579
1022,0.000553799734916538,1.0,0.8866302371025085,0.8500000238418579
1023,0.000492136343382299,1.0,0.891655683517456,0.8500000238418579
1024,0.0004900252097286284,1.0,0.8550929427146912,0.8600000143051147
1025,0.0008349628769792616,1.0,0.8484292030334473,0.8600000143051147
1026,0.00013972334272693843,1.0,0.8397758603096008,0.8600000143051147
1027,0.00022230800823308527,1.0,0.8365001678466797,0.8600000143051147
1028,0.00016197265358641744,1.0,0.8331387042999268,0.8600000143051147
1029,0.00042615283746272326,1.0,0.8372576236724854,0.8600000143051147
1030,0.0005025421851314604,1.0,0.8378868103027344,0.8600000143051147
1031,0.0003679742803797126,1.0,0.8283389806747437,0.8600000143051147
1032,0.0005106681492179632,1.0,0.8232920169830322,0.8600000143051147
1033,8.554357918910682e-05,1.0,0.8037014603614807,0.8600000143051147
1034,0.0011694052955135703,1.0,0.8054653406143188,0.8600000143051147
1035,4.835939398617484e-05,1.0,0.8104844093322754,0.8600000143051147
1036,0.00013853239943273365,1.0,0.8095711469650269,0.8600000143051147
1037,6.471076630987227e-05,1.0,0.807528018951416,0.8600000143051147
1038,3.2925228879321367e-05,1.0,0.8058648705482483,0.8600000143051147
1039,0.00029837869806215167,1.0,0.8041205406188965,0.8600000143051147
1040,8.333905861945823e-05,1.0,0.8017236590385437,0.8600000143051147
1041,4.826720032724552e-05,1.0,0.7998559474945068,0.8600000143051147
1042,0.00014639613800682127,1.0,0.7965613007545471,0.8600000143051147
1043,0.000758130569010973,1.0,0.8119032979011536,0.8600000143051147
1044,6.684503750875592e-05,1.0,0.8199958801269531,0.8600000143051147
1045,4.186759178992361e-05,1.0,0.8218352794647217,0.8600000143051147
1046,9.004794992506504e-05,1.0,0.8207607269287109,0.8600000143051147
1047,0.00013431468687485904,1.0,0.8177949786186218,0.8600000143051147
1048,9.283889085054398e-05,1.0,0.8145961761474609,0.8600000143051147
1049,0.00012101764878025278,1.0,0.8118932843208313,0.8600000143051147
1050,0.00011707354133250192,1.0,0.8080422878265381,0.8600000143051147
1051,0.00012114653509343043,1.0,0.8003754615783691,0.8600000143051147
1052,0.0001976025669137016,1.0,0.7925562262535095,0.8600000143051147
1053,6.624397792620584e-05,1.0,0.7892668843269348,0.8600000143051147
1054,0.00012163604696979746,1.0,0.7870257496833801,0.8600000143051147
1055,0.00044511747546494007,1.0,0.7884799838066101,0.8600000143051147
1056,0.000186725432286039,1.0,0.7933875322341919,0.8600000143051147
1057,5.311044515110552e-05,1.0,0.7944161295890808,0.8600000143051147
1058,2.7043804948334582e-05,1.0,0.7953552007675171,0.8600000143051147
1059,3.059600567212328e-05,1.0,0.7957931756973267,0.8600000143051147
1060,3.6441801057662815e-05,1.0,0.7976281642913818,0.8600000143051147
1061,4.1125986172119156e-05,1.0,0.7983577251434326,0.8600000143051147
1062,9.124425560003147e-05,1.0,0.8007004261016846,0.8600000143051147
1063,2.4279694116557948e-05,1.0,0.8024928569793701,0.8600000143051147
1064,0.00014736453886143863,1.0,0.8066847324371338,0.8600000143051147
1065,4.766306665260345e-05,1.0,0.8089979290962219,0.8600000143051147
1066,7.920792268123478e-05,1.0,0.8101063370704651,0.8600000143051147
1067,4.5869754103478044e-05,1.0,0.811932384967804,0.8600000143051147
1068,5.6839304306777194e-05,1.0,0.8128839731216431,0.8600000143051147
1069,5.810010407003574e-05,1.0,0.8145655989646912,0.8600000143051147
1070,5.4826516134198755e-05,1.0,0.8158555626869202,0.8600000143051147
1071,9.455284452997148e-05,1.0,0.8154364824295044,0.8600000143051147
1072,2.274089456477668e-05,1.0,0.8153305053710938,0.8600000143051147
1073,4.262880247551948e-05,1.0,0.8147111535072327,0.8600000143051147
1074,6.24988169874996e-05,1.0,0.8144676089286804,0.8600000143051147
1075,4.9687241698848084e-05,1.0,0.8161133527755737,0.8600000143051147
1076,5.626550773740746e-05,1.0,0.8154547214508057,0.8600000143051147
1077,3.971646219724789e-05,1.0,0.8156208992004395,0.8600000143051147
1078,5.8881687436951324e-05,1.0,0.815631628036499,0.8600000143051147
1079,0.0017601294675841928,1.0,0.7856717705726624,0.8600000143051147
1080,5.934476212132722e-05,1.0,0.727699339389801,0.8600000143051147
1081,4.373217961983755e-05,1.0,0.7066581845283508,0.8700000047683716
1082,5.916981535847299e-05,1.0,0.7021020650863647,0.8700000047683716
1083,5.975205931463279e-05,1.0,0.7039732336997986,0.8700000047683716
1084,4.355402779765427e-05,1.0,0.7072035074234009,0.8700000047683716
1085,5.3835778089705855e-05,1.0,0.7124265432357788,0.8700000047683716
1086,4.161495598964393e-05,1.0,0.7166705131530762,0.8700000047683716
1087,6.45117906969972e-05,1.0,0.7238548994064331,0.8700000047683716
1088,0.00015156359586399049,1.0,0.7298544049263,0.8700000047683716
1089,7.672693755012006e-05,1.0,0.7354212999343872,0.8700000047683716
1090,4.631864430848509e-05,1.0,0.7380793690681458,0.8600000143051147
1091,5.369806967792101e-05,1.0,0.736985445022583,0.8700000047683716
1092,5.564061939367093e-05,1.0,0.7376613020896912,0.8600000143051147
1093,1.8161170373787172e-05,1.0,0.7381938695907593,0.8600000143051147
1094,0.00020014509209431708,1.0,0.744335412979126,0.8600000143051147
1095,9.614088776288554e-05,1.0,0.7474267482757568,0.8600000143051147
1096,4.8094090743688866e-05,1.0,0.7482630014419556,0.8600000143051147
1097,0.00036996958078816533,1.0,0.7545311450958252,0.8600000143051147
1098,7.585169078083709e-05,1.0,0.7583580017089844,0.8600000143051147
1099,1.3876738194085192e-05,1.0,0.75856614112854,0.8600000143051147
1100,4.256137981428765e-05,1.0,0.7586622834205627,0.8700000047683716
1101,4.6920020395191386e-05,1.0,0.7603985667228699,0.8700000047683716
1102,8.094408258330077e-05,1.0,0.7597473859786987,0.8700000047683716
1103,1.9915434677386656e-05,1.0,0.7587401866912842,0.8700000047683716
1104,6.666698754997924e-05,1.0,0.7605334520339966,0.8700000047683716
1105,3.0873616196913645e-05,1.0,0.7609971761703491,0.8700000047683716
1106,3.780933911912143e-05,1.0,0.7620765566825867,0.8700000047683716
1107,4.1722014429979026e-05,1.0,0.7623699307441711,0.8700000047683716
1108,2.2032758351997472e-05,1.0,0.762401819229126,0.8700000047683716
1109,0.00034325517481192946,1.0,0.768970251083374,0.8700000047683716
1110,2.948836117866449e-05,1.0,0.795900821685791,0.8600000143051147
1111,1.2430604328983463e-05,1.0,0.8022643327713013,0.8700000047683716
1112,1.3526023394661024e-05,1.0,0.8025575876235962,0.8700000047683716
1113,5.831674570799805e-05,1.0,0.7998709678649902,0.8700000047683716
1114,8.825963595882058e-05,1.0,0.7991335391998291,0.8700000047683716
1115,0.0001347204379271716,1.0,0.7940599322319031,0.8700000047683716
1116,4.167421138845384e-05,1.0,0.7906989455223083,0.8700000047683716
1117,5.288529064273462e-05,1.0,0.7885302901268005,0.8700000047683716
1118,1.6040510672610253e-05,1.0,0.7875523567199707,0.8700000047683716
1119,5.958696056040935e-05,1.0,0.7866557836532593,0.8700000047683716
1120,6.720250530634075e-05,1.0,0.7877388000488281,0.8700000047683716
1121,3.631709478213452e-05,1.0,0.7862469553947449,0.8700000047683716
1122,7.120452937670052e-05,1.0,0.7866050601005554,0.8700000047683716
1123,6.932381802471355e-05,1.0,0.7846842408180237,0.8700000047683716
1124,1.8928285498986952e-05,1.0,0.7837753891944885,0.8700000047683716
1125,3.0122613679850474e-05,1.0,0.7829219698905945,0.8700000047683716
1126,3.305697828182019e-05,1.0,0.7817829847335815,0.8700000047683716
1127,5.7456021750112996e-05,1.0,0.7823728322982788,0.8700000047683716
1128,1.1367316801624838e-05,1.0,0.7823493480682373,0.8700000047683716
1129,1.4833132809144445e-05,1.0,0.7825680375099182,0.8700000047683716
1130,0.0002448349550832063,1.0,0.782642126083374,0.8700000047683716
1131,3.153875513817184e-05,1.0,0.7726277112960815,0.8700000047683716
1132,1.2405395864334423e-05,1.0,0.7700807452201843,0.8700000047683716
1133,7.438799366354942e-05,1.0,0.772152304649353,0.8700000047683716
1134,2.4787035727058537e-05,1.0,0.7750717997550964,0.8700000047683716
1135,6.129295070422813e-05,1.0,0.7768955230712891,0.8700000047683716
1136,8.515916124451905e-05,1.0,0.7780669331550598,0.8700000047683716
1137,3.189423296134919e-05,1.0,0.7776640057563782,0.8700000047683716
1138,8.705111395101994e-05,1.0,0.7825543284416199,0.8700000047683716
1139,3.9976057450985536e-05,1.0,0.7837515473365784,0.8700000047683716
1140,8.114302545436658e-06,1.0,0.7838014364242554,0.8700000047683716
1141,4.739040377899073e-05,1.0,0.7854515314102173,0.8700000047683716
1142,1.9737750335480087e-05,1.0,0.7850894331932068,0.8700000047683716
1143,2.2789779904996976e-05,1.0,0.7849658131599426,0.8700000047683716
1144,2.6594185328576714e-05,1.0,0.7852100133895874,0.8700000047683716
1145,5.153746315045282e-05,1.0,0.7872586250305176,0.8700000047683716
1146,3.8469737773993984e-05,1.0,0.789910078048706,0.8700000047683716
1147,7.769928743073251e-06,1.0,0.792538583278656,0.8700000047683716
1148,0.00011705642828019336,1.0,0.8011012077331543,0.8700000047683716
1149,1.4656023267889395e-05,1.0,0.8059881329536438,0.8700000047683716
1150,4.2174891859758645e-05,1.0,0.8070371747016907,0.8700000047683716
1151,3.0233157303882763e-05,1.0,0.8072918653488159,0.8700000047683716
1152,4.55877925560344e-05,1.0,0.8080955743789673,0.8700000047683716
1153,4.553600592771545e-05,1.0,0.8075438737869263,0.8700000047683716
1154,2.34918188652955e-05,1.0,0.8055362701416016,0.8700000047683716
1155,2.74993999482831e-05,1.0,0.804577648639679,0.8700000047683716
1156,1.3443113857647404e-05,1.0,0.8038657307624817,0.8700000047683716
1157,1.724138746794779e-05,1.0,0.8045151233673096,0.8700000047683716
1158,0.0002216057328041643,1.0,0.824282705783844,0.8700000047683716
1159,2.2881989934830926e-05,1.0,0.8298729062080383,0.8700000047683716
1160,1.566342507430818e-05,1.0,0.8298370838165283,0.8700000047683716
1161,9.225276698998641e-06,1.0,0.8279240131378174,0.8700000047683716
1162,2.6836547476705164e-05,1.0,0.8263847827911377,0.8700000047683716
1163,1.8203754734713584e-05,1.0,0.824725866317749,0.8700000047683716
1164,8.225560304708779e-05,1.0,0.8236571550369263,0.8700000047683716
1165,4.9684036639519036e-05,1.0,0.8203796148300171,0.8700000047683716
1166,3.1408890208695084e-05,1.0,0.8150550723075867,0.8700000047683716
1167,1.3225426300778054e-05,1.0,0.8136594295501709,0.8700000047683716
1168,3.2017691410146654e-05,1.0,0.812843382358551,0.8700000047683716
1169,3.0941464501665905e-05,1.0,0.8129017353057861,0.8700000047683716
1170,1.8366295989835635e-05,1.0,0.812757134437561,0.8700000047683716
1171,2.4984115952975117e-05,1.0,0.8129032254219055,0.8700000047683716
1172,2.2307127437670715e-05,1.0,0.8124793767929077,0.8700000047683716
1173,1.232549584528897e-05,1.0,0.811562180519104,0.8700000047683716
1174,8.595312101533636e-05,1.0,0.812709629535675,0.8700000047683716
1175,7.42060774427955e-06,1.0,0.8140281438827515,0.8700000047683716
1176,1.5178180547081865e-05,1.0,0.8143187761306763,0.8700000047683716
1177,1.318172780884197e-05,1.0,0.8155540227890015,0.8700000047683716
1178,2.4242059225798585e-05,1.0,0.8169412016868591,0.8700000047683716
1179,2.1479032511706464e-05,1.0,0.8150805830955505,0.8700000047683716
1180,9.890554792946205e-06,1.0,0.8143176436424255,0.8700000047683716
1181,9.898738790070638e-05,1.0,0.8149667382240295,0.8700000047683716
1182,3.451260636211373e-05,1.0,0.8166609406471252,0.8700000047683716
1183,1.6046806194935925e-05,1.0,0.8169144988059998,0.8700000047683716
1184,0.00023074894852470607,1.0,0.8098142743110657,0.8700000047683716
1185,1.2444477761164308e-05,1.0,0.7969520688056946,0.8700000047683716
1186,6.514575943583623e-05,1.0,0.7913490533828735,0.8799999952316284
1187,3.041185664187651e-05,1.0,0.7869284152984619,0.8799999952316284
1188,4.74089574709069e-05,1.0,0.7875666618347168,0.8799999952316284
1189,3.229889989597723e-05,1.0,0.7897178530693054,0.8799999952316284
1190,1.1513950084918179e-05,1.0,0.7920524477958679,0.8700000047683716
1191,1.0152616596315056e-05,1.0,0.7943385243415833,0.8700000047683716
1192,8.399930811719969e-05,1.0,0.8093245625495911,0.8700000047683716
1193,9.35997195483651e-06,1.0,0.8168790340423584,0.8700000047683716
1194,9.983303243643604e-06,1.0,0.8188107013702393,0.8700000047683716
1195,2.8144144380348735e-05,1.0,0.8173315525054932,0.8700000047683716
1196,2.672630398592446e-05,1.0,0.8144312500953674,0.8700000047683716
1197,4.295146936783567e-05,1.0,0.8143380880355835,0.8700000047683716
1198,2.1663960069417953e-05,1.0,0.814371645450592,0.8700000047683716
1199,0.00012091238022549078,1.0,0.8136804103851318,0.8700000047683716
1200,2.6939111194224097e-05,1.0,0.812577486038208,0.8700000047683716
1201,0.00010589828889351338,1.0,0.8133350610733032,0.8700000047683716
1202,2.0038653019582853e-05,1.0,0.8147636651992798,0.8700000047683716
1203,8.911491931939963e-06,1.0,0.8143877983093262,0.8700000047683716
1204,4.239032023178879e-06,1.0,0.8141214847564697,0.8700000047683716
1205,0.0001447983959224075,1.0,0.8236572742462158,0.8700000047683716
1206,1.907547630253248e-05,1.0,0.827602207660675,0.8700000047683716
1207,1.5102426914381795e-05,1.0,0.8269906640052795,0.8700000047683716
1208,3.550264591467567e-05,1.0,0.8277677297592163,0.8700000047683716
1209,3.132774872938171e-05,1.0,0.830644428730011,0.8700000047683716
1210,7.4526019488985185e-06,1.0,0.8307642340660095,0.8700000047683716
1211,1.0256375389872119e-05,1.0,0.831023097038269,0.8700000047683716
1212,5.220158345764503e-05,1.0,0.834033727645874,0.8700000047683716
1213,1.2759443052345887e-05,1.0,0.8334964513778687,0.8700000047683716
1214,5.0619812100194395e-05,1.0,0.8331636190414429,0.8700000047683716
1215,3.1989155104383826e-05,1.0,0.8326389789581299,0.8700000047683716
1216,6.884115919092437e-06,1.0,0.8325235247612,0.8700000047683716
1217,1.0459570148668718e-05,1.0,0.8320116996765137,0.8700000047683716
1218,1.859088115452323e-05,1.0,0.8317486643791199,0.8700000047683716
1219,2.266118099214509e-05,1.0,0.8296372294425964,0.8700000047683716
1220,1.1030163477698807e-05,1.0,0.8282806277275085,0.8700000047683716
1221,1.1664105841191486e-05,1.0,0.8280581831932068,0.8700000047683716
1222,4.0822244045557454e-05,1.0,0.8281579613685608,0.8700000047683716
1223,4.4275344407651573e-05,1.0,0.8313176035881042,0.8700000047683716
1224,5.4707881645299494e-05,1.0,0.8342335224151611,0.8700000047683716
1225,1.2461624464776833e-05,1.0,0.8347312211990356,0.8700000047683716
1226,1.1281452316325158e-05,1.0,0.8352304100990295,0.8700000047683716
1227,5.22738992003724e-05,1.0,0.836884617805481,0.8700000047683716
1228,5.3130406740820035e-05,1.0,0.8413993716239929,0.8700000047683716
1229,3.092849510721862e-05,1.0,0.8455482721328735,0.8700000047683716
1230,1.0301741895091254e-05,1.0,0.8460990786552429,0.8700000047683716
1231,4.8662037443136796e-05,1.0,0.8469297289848328,0.8700000047683716
1232,1.8829265172826126e-05,1.0,0.8436723947525024,0.8700000047683716
1233,1.094903109333245e-05,1.0,0.8420140147209167,0.8700000047683716
1234,4.677848846768029e-05,1.0,0.8418884873390198,0.8700000047683716
1235,1.5159836038947105e-05,1.0,0.8373932838439941,0.8700000047683716
1236,1.1038058801204897e-05,1.0,0.8349495530128479,0.8700000047683716
1237,1.3286266039358452e-05,1.0,0.8344419002532959,0.8700000047683716
1238,9.948649676516652e-06,1.0,0.8352241516113281,0.8700000047683716
1239,1.1537894351931754e-05,1.0,0.8355425000190735,0.8700000047683716
1240,1.402254929416813e-05,1.0,0.8362767100334167,0.8700000047683716
1241,7.922197255538777e-06,1.0,0.8366677165031433,0.8700000047683716
1242,5.895950380363502e-06,1.0,0.8359032273292542,0.8700000047683716
1243,5.383101597544737e-05,1.0,0.836446225643158,0.8700000047683716
1244,5.924595370743191e-06,1.0,0.8354595303535461,0.8700000047683716
1245,1.722594788589049e-05,1.0,0.8346467614173889,0.8700000047683716
1246,2.1240241039777175e-05,1.0,0.8351184129714966,0.8700000047683716
1247,1.877644535852596e-05,1.0,0.8359562158584595,0.8700000047683716
1248,8.907041774364188e-06,1.0,0.8361203670501709,0.8700000047683716
1249,9.491104719927534e-06,1.0,0.8356151580810547,0.8700000047683716
1250,3.2566684240009636e-05,1.0,0.8344900012016296,0.8700000047683716
1251,3.1468771339859813e-05,1.0,0.8306120038032532,0.8700000047683716
1252,4.7408324462594464e-05,1.0,0.832493007183075,0.8700000047683716
1253,2.798447894747369e-05,1.0,0.833941638469696,0.8700000047683716
1254,8.214481567847542e-06,1.0,0.834611713886261,0.8700000047683716
1255,2.8758964617736638e-05,1.0,0.8357203602790833,0.8700000047683716
1256,1.1015383279300295e-05,1.0,0.8372715711593628,0.8700000047683716
1257,1.5828514733584598e-05,1.0,0.8384841680526733,0.8700000047683716
1258,9.605344530427828e-06,1.0,0.8387596607208252,0.8700000047683716
1259,7.719549103057943e-06,1.0,0.8388103246688843,0.8700000047683716
1260,9.440709618502297e-06,1.0,0.8386852145195007,0.8700000047683716
1261,3.1132552976487204e-05,1.0,0.8402062058448792,0.8700000047683716
1262,2.7968177164439112e-05,1.0,0.8396162986755371,0.8700000047683716
1263,7.812937838025391e-05,1.0,0.8418149352073669,0.8700000047683716
1264,6.847234999440843e-06,1.0,0.8414736986160278,0.8700000047683716
1265,8.130964488373138e-06,1.0,0.8420146107673645,0.8700000047683716
1266,5.68012455914868e-06,1.0,0.8421803116798401,0.8700000047683716
1267,1.8582573829917237e-05,1.0,0.8421888947486877,0.8700000047683716
1268,6.522958756249864e-06,1.0,0.8413398265838623,0.8700000047683716
1269,1.020746731228428e-05,1.0,0.8411766886711121,0.8700000047683716
1270,4.239722329657525e-05,1.0,0.8424156904220581,0.8700000047683716
1271,1.7789832782000303e-05,1.0,0.8419877886772156,0.8700000047683716
1272,5.40839346285793e-06,1.0,0.8407766222953796,0.8700000047683716
1273,1.4379080312210135e-05,1.0,0.8408865332603455,0.8700000047683716
1274,2.5355690013384447e-05,1.0,0.8413426280021667,0.8700000047683716
1275,3.5669592762133107e-05,1.0,0.8437301516532898,0.8700000047683716
1276,5.7481224757793825e-06,1.0,0.8436552286148071,0.8700000047683716
1277,7.354918579949299e-06,1.0,0.8443542718887329,0.8700000047683716
1278,2.7876028980244882e-05,1.0,0.8450666666030884,0.8700000047683716
1279,3.8687769119860604e-05,1.0,0.8474606275558472,0.8700000047683716
1280,1.188829537568381e-05,1.0,0.8478825092315674,0.8700000047683716
1281,1.2625562703760806e-05,1.0,0.8479856848716736,0.8700000047683716
1282,9.856938049779274e-06,1.0,0.8483566045761108,0.8700000047683716
1283,7.266601187438937e-06,1.0,0.84877610206604,0.8700000047683716
1284,0.002713746391236782,1.0,1.6325680017471313,0.6800000071525574
1285,0.001716475933790207,1.0,0.7906902432441711,0.8199999928474426
1286,3.6483594158198684e-05,1.0,0.6728625297546387,0.8799999952316284
1287,0.00024068536004051566,1.0,0.7408992052078247,0.8700000047683716
1288,9.83212303253822e-05,1.0,0.7726615071296692,0.8700000047683716
1289,0.0004026166279800236,1.0,0.7766976356506348,0.8700000047683716
1290,4.0208025893662125e-05,1.0,0.7803045511245728,0.8700000047683716
1291,0.0003967206284869462,1.0,0.778062641620636,0.8799999952316284
1292,2.3440394215867855e-05,1.0,0.7749966382980347,0.8799999952316284
1293,1.9406665160204284e-05,1.0,0.7711820006370544,0.8799999952316284
1294,4.157470175414346e-05,1.0,0.7694514393806458,0.8799999952316284
1295,0.00010244840814266354,1.0,0.7665823101997375,0.8799999952316284
1296,5.7915054640034214e-05,1.0,0.7648754715919495,0.8799999952316284
1297,4.197525413474068e-05,1.0,0.7655315399169922,0.8799999952316284
1298,2.012266486417502e-05,1.0,0.766603410243988,0.8799999952316284
1299,5.463490742840804e-05,1.0,0.7661775350570679,0.8799999952316284
1300,2.3158161639003083e-05,1.0,0.7687491774559021,0.8799999952316284
1301,4.743833051179536e-05,1.0,0.7709647417068481,0.8799999952316284
1302,0.00021027919137850404,1.0,0.7846639752388,0.8799999952316284
1303,2.3027638235362247e-05,1.0,0.7902633547782898,0.8799999952316284
1304,0.0002774042368400842,1.0,0.7943664789199829,0.8799999952316284
1305,1.8753215044853278e-05,1.0,0.7938600778579712,0.8799999952316284
1306,8.900972170522436e-05,1.0,0.7988417148590088,0.8799999952316284
1307,2.451518776069861e-05,1.0,0.8026232123374939,0.8799999952316284
1308,0.000187629324500449,1.0,0.8094853162765503,0.8799999952316284
1309,0.0001353759435005486,1.0,0.8065528273582458,0.8799999952316284
1310,8.47851115395315e-05,1.0,0.8024916648864746,0.8799999952316284
1311,1.3407523510977626e-05,1.0,0.801810622215271,0.8799999952316284
1312,6.779155955882743e-05,1.0,0.8038578629493713,0.8799999952316284
1313,6.607584509765729e-05,1.0,0.8049257397651672,0.8799999952316284
1314,1.5539580999757163e-05,1.0,0.8032374382019043,0.8799999952316284
1315,1.4331690181279555e-05,1.0,0.8019978404045105,0.8799999952316284
1316,8.365641406271607e-06,1.0,0.8007314205169678,0.8799999952316284
1317,1.206078832183266e-05,1.0,0.7990782856941223,0.8799999952316284
1318,1.0941415894194506e-05,1.0,0.7985602617263794,0.8799999952316284
1319,2.6315661671105772e-05,1.0,0.7979092597961426,0.8799999952316284
1320,2.0985222363378853e-05,1.0,0.7979476451873779,0.8799999952316284
1321,1.5682066077715717e-05,1.0,0.798224925994873,0.8799999952316284
1322,1.1841458217531908e-05,1.0,0.7983208298683167,0.8799999952316284
1323,0.00011905860446859151,1.0,0.8020848631858826,0.8799999952316284
1324,1.3603393199446145e-05,1.0,0.8049134612083435,0.8799999952316284
1325,8.767158578848466e-05,1.0,0.8003201484680176,0.8799999952316284
1326,1.486338169343071e-05,1.0,0.795429527759552,0.8799999952316284
1327,1.954212348209694e-05,1.0,0.7941564321517944,0.8799999952316284
1328,1.374733074044343e-05,1.0,0.7933138012886047,0.8799999952316284
1329,1.855359187175054e-05,1.0,0.7941372394561768,0.8799999952316284
1330,1.7109450709540397e-05,1.0,0.7947418689727783,0.8799999952316284
1331,3.0483399314107373e-05,1.0,0.7942167520523071,0.8799999952316284
1332,0.0001877809700090438,1.0,0.7964490652084351,0.8799999952316284
1333,0.000126854662084952,1.0,0.7868594527244568,0.8799999952316284
1334,6.456115443143062e-06,1.0,0.7843048572540283,0.8799999952316284
1335,4.677699962485349e-06,1.0,0.7848252654075623,0.8799999952316284
1336,8.137858458212577e-06,1.0,0.7862128615379333,0.8799999952316284
1337,1.13361074909335e-05,1.0,0.7880373597145081,0.8799999952316284
1338,5.210507879382931e-06,1.0,0.7892407774925232,0.8799999952316284
1339,1.143124154623365e-05,1.0,0.7901109457015991,0.8799999952316284
1340,1.771794086380396e-05,1.0,0.7930765748023987,0.8799999952316284
1341,3.1784635211806744e-05,1.0,0.7938339114189148,0.8799999952316284
1342,1.139117193815764e-05,1.0,0.7945711612701416,0.8799999952316284
1343,4.274767889000941e-06,1.0,0.7957210540771484,0.8799999952316284
1344,4.875566901318962e-06,1.0,0.7968086004257202,0.8799999952316284
1345,7.303751772269607e-06,1.0,0.7979273796081543,0.8799999952316284
1346,1.6085870811366476e-05,1.0,0.7996431589126587,0.8799999952316284
1347,7.192883458628785e-06,1.0,0.8003422617912292,0.8799999952316284
1348,1.3467518328980077e-05,1.0,0.8024894595146179,0.8799999952316284
1349,1.1707029443641659e-05,1.0,0.8035399913787842,0.8799999952316284
1350,1.681262074271217e-05,1.0,0.8031709790229797,0.8799999952316284
1351,1.7511269106762484e-05,1.0,0.8040736317634583,0.8799999952316284
1352,5.694480478268815e-06,1.0,0.804307222366333,0.8799999952316284
1353,0.00012050017539877445,1.0,0.8257829546928406,0.8799999952316284
1354,2.453507659083698e-05,1.0,0.8298067450523376,0.8799999952316284
1355,1.2527618309832178e-05,1.0,0.829235851764679,0.8799999952316284
1356,9.959559065464418e-06,1.0,0.8285321593284607,0.8799999952316284
1357,2.2743015506421216e-05,1.0,0.8292009234428406,0.8799999952316284
1358,6.990662950556725e-05,1.0,0.8341203927993774,0.8799999952316284
1359,2.8175283659948036e-05,1.0,0.8320549726486206,0.8799999952316284
1360,3.6692263165605254e-06,1.0,0.8306443095207214,0.8799999952316284
1361,1.1898730917891953e-05,1.0,0.8301937580108643,0.8799999952316284
1362,9.0698194981087e-06,1.0,0.8286060094833374,0.8799999952316284
1363,1.1815423022198956e-05,1.0,0.8276481628417969,0.8799999952316284
1364,6.124767423898447e-06,1.0,0.8277729749679565,0.8799999952316284
1365,7.61365072321496e-06,1.0,0.8271356225013733,0.8799999952316284
1366,1.2598392459040042e-05,1.0,0.8271886706352234,0.8799999952316284
1367,2.1740059310104698e-05,1.0,0.8285335302352905,0.8799999952316284
1368,9.235307516064495e-05,1.0,0.8299758434295654,0.8799999952316284
1369,8.302152127726004e-05,1.0,0.8370702862739563,0.8799999952316284
1370,2.95526442641858e-05,1.0,0.8380982875823975,0.8799999952316284
1371,3.650964208645746e-05,1.0,0.8423529267311096,0.8799999952316284
1372,2.4580489480285905e-05,1.0,0.8420498371124268,0.8799999952316284
1373,1.3359825970837846e-05,1.0,0.8405101895332336,0.8799999952316284
1374,0.00020533600763883442,1.0,0.8076106905937195,0.8799999952316284
1375,6.876623501739232e-06,1.0,0.7928228974342346,0.8799999952316284
1376,1.1692164662235882e-05,1.0,0.7909529805183411,0.8799999952316284
1377,0.00018678774358704686,1.0,0.8008507490158081,0.8899999856948853
1378,9.696630513644777e-06,1.0,0.8072722554206848,0.8899999856948853
1379,3.5228476917836815e-05,1.0,0.8143669962882996,0.8899999856948853
1380,2.66405004367698e-05,1.0,0.8203537464141846,0.8899999856948853
1381,1.846805025706999e-05,1.0,0.8249841928482056,0.8899999856948853
1382,2.572177254478447e-05,1.0,0.8286656141281128,0.8799999952316284
1383,1.1241716492804699e-05,1.0,0.8313483595848083,0.8799999952316284
1384,2.278813553857617e-05,1.0,0.8317429423332214,0.8799999952316284
1385,4.522694780462189e-06,1.0,0.8327070474624634,0.8799999952316284
1386,9.575239346304443e-06,1.0,0.8329663276672363,0.8799999952316284
1387,2.9057378924335353e-05,1.0,0.8319822549819946,0.8799999952316284
1388,1.9998529751319438e-05,1.0,0.830661952495575,0.8799999952316284
1389,0.00013676185335498303,1.0,0.7989528179168701,0.8799999952316284
1390,3.14442950184457e-05,1.0,0.7913616895675659,0.8799999952316284
1391,3.0755729767406592e-06,1.0,0.7924043536186218,0.8799999952316284
1392,8.175029506674036e-06,1.0,0.795885443687439,0.8799999952316284
1393,9.085094461624976e-06,1.0,0.7999864816665649,0.8799999952316284
1394,6.320268312265398e-06,1.0,0.8038005232810974,0.8799999952316284
1395,3.046696110686753e-05,1.0,0.8087275624275208,0.8799999952316284
1396,1.1119118425995111e-05,1.0,0.8128526210784912,0.8799999952316284
1397,6.070026302040787e-06,1.0,0.8160766363143921,0.8799999952316284
1398,1.036365210893564e-05,1.0,0.8197868466377258,0.8799999952316284
1399,7.290483154065441e-06,1.0,0.8226925730705261,0.8799999952316284
1400,5.175635578780202e-06,1.0,0.8251470923423767,0.8799999952316284
1401,1.3237150596978609e-05,1.0,0.8277433514595032,0.8799999952316284
1402,1.1374164387234487e-05,1.0,0.8295246362686157,0.8799999952316284
1403,5.453652192954905e-06,1.0,0.8317175507545471,0.8799999952316284
1404,2.528413006075425e-06,1.0,0.8324933648109436,0.8799999952316284
1405,4.7789953896426596e-06,1.0,0.8338764905929565,0.8799999952316284
1406,1.9993598471046425e-05,1.0,0.8353828191757202,0.8799999952316284
1407,2.17866399907507e-05,1.0,0.8397946357727051,0.8799999952316284
1408,1.8334634660277516e-05,1.0,0.8432996869087219,0.8799999952316284
1409,7.191611985035706e-06,1.0,0.8444092273712158,0.8799999952316284
1410,1.4785635357839055e-05,1.0,0.8473376631736755,0.8799999952316284
1411,6.514639153465396e-06,1.0,0.8484008312225342,0.8799999952316284
1412,8.814000466372818e-06,1.0,0.8487193584442139,0.8799999952316284
1413,1.0868105164263397e-05,1.0,0.8498790860176086,0.8799999952316284
1414,3.2476305932505056e-05,1.0,0.8530614972114563,0.8799999952316284
1415,1.0325868061045185e-05,1.0,0.8540058732032776,0.8799999952316284
1416,3.2447931062051794e-06,1.0,0.8516194820404053,0.8799999952316284
1417,1.8044784155790694e-05,1.0,0.8548003435134888,0.8799999952316284
1418,2.1339013983379118e-05,1.0,0.8593368530273438,0.8799999952316284
1419,7.642816854058765e-06,1.0,0.8606407046318054,0.8799999952316284
1420,7.775543963361997e-06,1.0,0.8612073659896851,0.8799999952316284
1421,2.0758185200975277e-05,1.0,0.8624653816223145,0.8799999952316284
1422,1.8009817722486332e-05,1.0,0.8645598888397217,0.8799999952316284
1423,6.42164650344057e-06,1.0,0.865416407585144,0.8799999952316284
1424,4.712276677310001e-06,1.0,0.8651516437530518,0.8799999952316284
1425,8.392069503315724e-06,1.0,0.8653309345245361,0.8799999952316284
1426,4.718220679933438e-06,1.0,0.8647070527076721,0.8799999952316284
1427,6.212524749571458e-05,1.0,0.8787750005722046,0.8799999952316284
1428,7.363266377069522e-06,1.0,0.8864802718162537,0.8799999952316284
1429,8.695124961377587e-06,1.0,0.8855312466621399,0.8799999952316284
1430,2.5870807803585194e-05,1.0,0.8863889575004578,0.8799999952316284
1431,3.372393621248193e-06,1.0,0.8860569000244141,0.8799999952316284
1432,4.247471588314511e-05,1.0,0.8831360340118408,0.8799999952316284
1433,1.8665585230337456e-05,1.0,0.8799207210540771,0.8799999952316284
1434,3.461789219727507e-06,1.0,0.878101646900177,0.8799999952316284
1435,1.0851458682736848e-05,1.0,0.8771016001701355,0.8799999952316284
1436,2.3448094452760415e-06,1.0,0.8754362463951111,0.8799999952316284
1437,5.5597924983885605e-06,1.0,0.8744823932647705,0.8799999952316284
1438,9.864155799732544e-06,1.0,0.8738752603530884,0.8799999952316284
1439,3.8578338717343286e-05,1.0,0.8778868317604065,0.8799999952316284
1440,1.599567440280225e-05,1.0,0.8795193433761597,0.8799999952316284
1441,1.1962108146690298e-05,1.0,0.8802727460861206,0.8799999952316284
1442,4.5656324800802395e-06,1.0,0.8801723718643188,0.8799999952316284
1443,2.253036200272618e-06,1.0,0.8783628940582275,0.8799999952316284
1444,5.851855348737445e-06,1.0,0.8774603009223938,0.8799999952316284
1445,0.00012963786139152944,1.0,0.8696807026863098,0.8799999952316284
1446,4.063776941620745e-06,1.0,0.8390098810195923,0.8799999952316284
1447,4.724190603155876e-06,1.0,0.8293687701225281,0.8799999952316284
1448,2.217546534666326e-05,1.0,0.8303020000457764,0.8799999952316284
1449,4.554871338768862e-05,1.0,0.8308860659599304,0.8799999952316284
1450,6.484766345238313e-06,1.0,0.8261356353759766,0.8799999952316284
1451,1.3867177585780155e-05,1.0,0.826612114906311,0.8799999952316284
1452,1.1052293302782346e-05,1.0,0.8280023336410522,0.8799999952316284
1453,2.0903749827994034e-05,1.0,0.8326184153556824,0.8799999952316284
1454,1.7309117765762494e-06,1.0,0.836039125919342,0.8799999952316284
1455,3.143148933304474e-05,1.0,0.8403592109680176,0.8799999952316284
1456,6.640706033067545e-06,1.0,0.8425288200378418,0.8799999952316284
1457,9.691285413282458e-06,1.0,0.8460752367973328,0.8799999952316284
1458,5.441768280434189e-06,1.0,0.8485126495361328,0.8799999952316284
1459,1.926342520164326e-05,1.0,0.8507578372955322,0.8799999952316284
1460,7.324947091547074e-06,1.0,0.8528618812561035,0.8799999952316284
1461,5.771947144239675e-06,1.0,0.854179322719574,0.8799999952316284
1462,1.2541820979095064e-05,1.0,0.8557482957839966,0.8799999952316284
1463,3.193509201082634e-06,1.0,0.8581971526145935,0.8799999952316284
1464,5.216520366957411e-05,1.0,0.861164927482605,0.8799999952316284
1465,1.2392024473228958e-05,1.0,0.8650937080383301,0.8799999952316284
1466,4.349784376245225e-06,1.0,0.8642286062240601,0.8799999952316284
1467,3.567885869415477e-05,1.0,0.8665652275085449,0.8799999952316284
1468,1.5294452850866946e-06,1.0,0.8653714656829834,0.8799999952316284
1469,1.9843455447698943e-05,1.0,0.8685928583145142,0.8799999952316284
1470,3.6309972983872285e-06,1.0,0.8702927231788635,0.8799999952316284
1471,4.274749699106906e-06,1.0,0.8705224394798279,0.8799999952316284
1472,1.8368569726590067e-05,1.0,0.8728326559066772,0.8799999952316284
1473,1.0788082363433205e-05,1.0,0.8757752180099487,0.8799999952316284
1474,5.29633598489454e-06,1.0,0.8757660388946533,0.8799999952316284
1475,1.00111565188854e-05,1.0,0.8763481974601746,0.8799999952316284
1476,2.717687311815098e-05,1.0,0.8789672255516052,0.8799999952316284
1477,6.202319127623923e-06,1.0,0.8797855973243713,0.8799999952316284
1478,2.853825208148919e-06,1.0,0.8787297010421753,0.8799999952316284
1479,3.0433855044975644e-06,1.0,0.8785068988800049,0.8799999952316284
1480,4.8338165470340755e-06,1.0,0.8787192702293396,0.8799999952316284
1481,5.913826953474199e-06,1.0,0.878556489944458,0.8799999952316284
1482,1.3433260392048396e-05,1.0,0.8787044286727905,0.8799999952316284
1483,3.4569932267913828e-06,1.0,0.8767305016517639,0.8799999952316284
1484,2.5939755232684547e-06,1.0,0.876211404800415,0.8799999952316284
1485,2.2081774659454823e-05,1.0,0.8792486786842346,0.8799999952316284
1486,1.6628071534796618e-05,1.0,0.8824524879455566,0.8799999952316284
1487,1.4414847100852057e-05,1.0,0.8845587968826294,0.8799999952316284
1488,4.7599346544302534e-06,1.0,0.8851559162139893,0.8799999952316284
1489,6.884468893986195e-05,1.0,0.8812165260314941,0.8799999952316284
1490,1.634578438824974e-05,1.0,0.8685368895530701,0.8799999952316284
1491,1.0432470844534691e-05,1.0,0.8649133443832397,0.8799999952316284
1492,1.986183997360058e-05,1.0,0.8668616414070129,0.8799999952316284
1493,4.0672789509699214e-06,1.0,0.8675218224525452,0.8799999952316284
1494,2.3813228835933842e-05,1.0,0.8679835796356201,0.8799999952316284
1495,1.7380510826114914e-06,1.0,0.8675026893615723,0.8799999952316284
1496,2.3019013042357983e-06,1.0,0.8678371906280518,0.8799999952316284
1497,1.7821527080741362e-06,1.0,0.8679054379463196,0.8799999952316284
1498,8.856735803419724e-06,1.0,0.8698880076408386,0.8799999952316284
1499,4.913651537208352e-06,1.0,0.8712667226791382,0.8799999952316284
