,loss,recall,val_loss,val_recall
0,0.5822049975395203,0.5215561224489795,0.6077647805213928,0.3125
1,0.46465209126472473,0.7982719661291089,0.5328684449195862,0.7673849959564245
2,0.41414207220077515,0.8508194186765615,0.4781988561153412,0.7857915893630179
3,0.3786541521549225,0.8421768707482994,0.43739572167396545,0.7795145330859617
4,0.34933438897132874,0.8752354788069073,0.4105243980884552,0.8445776445776446
5,0.3252556622028351,0.8801056086770372,0.39008718729019165,0.8011698618841475
6,0.30480438470840454,0.8953463203463203,0.37508127093315125,0.8295351473922902
7,0.28622666001319885,0.8953463203463203,0.3739865720272064,0.8392857142857143
8,0.27337029576301575,0.8715367965367965,0.3554864823818207,0.8314909297052154
9,0.26261812448501587,0.8859307359307359,0.3989644944667816,0.8422619047619045
10,0.2708877623081207,0.8666666666666666,0.35236746072769165,0.8287775716347143
11,0.24795572459697723,0.8947845804988662,0.32358384132385254,0.8910018552875696
12,0.23462240397930145,0.9308905380333953,0.38552841544151306,0.8422619047619045
13,0.21076175570487976,0.9333333333333333,0.3156919777393341,0.882034632034632
14,0.2028426080942154,0.9261904761904762,0.3319571316242218,0.832908163265306
15,0.18187366425991058,0.9435064935064935,0.33000198006629944,0.881547619047619
16,0.19611753523349762,0.9261904761904762,0.3008081614971161,0.8848587920016493
17,0.18400046229362488,0.9200680272108844,0.28244784474372864,0.8941558441558443
18,0.17520880699157715,0.9452380952380953,0.3116684854030609,0.8816893424036281
19,0.1569136530160904,0.9523809523809524,0.35814234614372253,0.8699229342086484
20,0.15143288671970367,0.9523809523809524,0.4615619480609894,0.7345804988662131
21,0.13992170989513397,0.9642857142857143,0.36030691862106323,0.866042291042291
22,0.13430270552635193,0.9333333333333333,0.44634851813316345,0.7351473922902494
23,0.11201108247041702,0.9642857142857143,0.28640517592430115,0.8934523809523809
24,0.11265615373849869,0.9523809523809524,0.3003595173358917,0.8988344988344988
25,0.10449856519699097,0.9642857142857143,0.3087248206138611,0.8732142857142857
26,0.10671740770339966,0.9642857142857143,0.369179904460907,0.8610080395794683
27,0.12549707293510437,0.948639455782313,0.2864038050174713,0.8875
28,0.12561210989952087,0.9571428571428572,0.4054427742958069,0.8434232434232435
29,0.1315489560365677,0.9333333333333333,0.32024046778678894,0.8911358482787054
30,0.11510617285966873,0.9642857142857143,0.3610551655292511,0.8401077097505668
31,0.09047811478376389,0.9761904761904762,0.32423171401023865,0.8791666666666667
32,0.08127491176128387,0.9642857142857143,0.27467137575149536,0.8904143475572047
33,0.06578148156404495,0.9761904761904762,0.33356326818466187,0.8732142857142857
34,0.06274022907018661,0.9761904761904762,0.2826540470123291,0.8941558441558443
35,0.060953836888074875,0.9761904761904762,0.29255804419517517,0.8904143475572047
36,0.0639621764421463,0.9761904761904762,0.3042728006839752,0.8953463203463203
37,0.06557977944612503,0.9642857142857143,0.2944208085536957,0.8904143475572047
38,0.06688260287046432,0.9761904761904762,0.418220192193985,0.8695578231292517
39,0.06900207698345184,0.9761904761904762,0.5797896385192871,0.7219336219336219
40,0.06586996465921402,0.9761904761904762,0.6149469614028931,0.7640112863327149
41,0.04321230202913284,0.9761904761904762,0.6301876902580261,0.7992063492063491
42,0.03865646570920944,0.9761904761904762,0.31019672751426697,0.8904143475572047
43,0.029320871457457542,1.0,0.31385135650634766,0.8904143475572047
44,0.02654835768043995,1.0,0.32795292139053345,0.8951762523191095
45,0.02189740724861622,1.0,0.34547075629234314,0.8900432900432901
46,0.02078901045024395,1.0,0.32508373260498047,0.8904143475572047
47,0.019603392109274864,1.0,0.37379416823387146,0.8805194805194806
48,0.017373384907841682,1.0,0.335144966840744,0.8992578849721706
49,0.016543205827474594,1.0,0.400761216878891,0.8949383949383949
50,0.015670470893383026,1.0,0.3501783013343811,0.8992578849721706
51,0.015452252700924873,1.0,0.4026142656803131,0.9004329004329004
52,0.014474439434707165,1.0,0.3432571291923523,0.8992578849721706
53,0.014188563451170921,1.0,0.44366803765296936,0.8949383949383949
54,0.014653115533292294,1.0,0.34784093499183655,0.8992578849721706
55,0.014146901667118073,1.0,0.4195408821105957,0.8949383949383949
56,0.013714654371142387,1.0,0.3564135730266571,0.8904143475572047
57,0.012397161684930325,1.0,0.4296416938304901,0.8861471861471861
58,0.012447154149413109,1.0,0.37144166231155396,0.8904143475572047
59,0.011093954555690289,1.0,0.3882121443748474,0.8798701298701298
60,0.009631357155740261,1.0,0.3766569197177887,0.8900432900432901
61,0.0075211068615317345,1.0,0.37905317544937134,0.898917748917749
62,0.006511401850730181,1.0,0.40044304728507996,0.8941558441558443
63,0.005989952478557825,1.0,0.391570508480072,0.8900432900432901
64,0.005446580238640308,1.0,0.36592307686805725,0.9040197897340754
65,0.005177835933864117,1.0,0.38375863432884216,0.8798701298701298
66,0.004839954432100058,1.0,0.3808482587337494,0.8951762523191095
67,0.004579811356961727,1.0,0.38596275448799133,0.8798701298701298
68,0.0044084335677325726,1.0,0.3842925429344177,0.8798701298701298
69,0.004202043171972036,1.0,0.38303524255752563,0.8904143475572047
70,0.004031929653137922,1.0,0.38750511407852173,0.8798701298701298
71,0.003882733639329672,1.0,0.3880004286766052,0.8798701298701298
72,0.0037276181392371655,1.0,0.38893482089042664,0.8798701298701298
73,0.0035996867809444666,1.0,0.3897155225276947,0.8798701298701298
74,0.0034670543391257524,1.0,0.39102816581726074,0.8798701298701298
75,0.0033520967699587345,1.0,0.39142465591430664,0.8798701298701298
76,0.0032339724712073803,1.0,0.3921734690666199,0.8798701298701298
77,0.0031327158212661743,1.0,0.3926309645175934,0.8798701298701298
78,0.003028587903827429,1.0,0.3940615952014923,0.8941558441558443
79,0.0029319513123482466,1.0,0.3945886492729187,0.8941558441558443
80,0.0028415597043931484,1.0,0.3960110545158386,0.8941558441558443
81,0.002754066837951541,1.0,0.39680352807044983,0.8941558441558443
82,0.002670376095920801,1.0,0.39712780714035034,0.8941558441558443
83,0.002592833712697029,1.0,0.3987410366535187,0.8941558441558443
84,0.002516773995012045,1.0,0.3990247845649719,0.8941558441558443
85,0.002446921542286873,1.0,0.39965203404426575,0.8941558441558443
86,0.0023771370761096478,1.0,0.40090328454971313,0.8941558441558443
87,0.0023129950277507305,1.0,0.40079036355018616,0.8941558441558443
88,0.0022496480960398912,1.0,0.4023497998714447,0.8941558441558443
89,0.0021902373991906643,1.0,0.4039327800273895,0.8941558441558443
90,0.0021320704836398363,1.0,0.4027615487575531,0.8941558441558443
91,0.0020773387514054775,1.0,0.40626031160354614,0.8941558441558443
92,0.0020216733682900667,1.0,0.40386414527893066,0.8941558441558443
93,0.0019750562496483326,1.0,0.406807005405426,0.8941558441558443
94,0.0019222147529944777,1.0,0.4067574143409729,0.8941558441558443
95,0.0018781250109896064,1.0,0.4068189263343811,0.8941558441558443
96,0.0018304601544514298,1.0,0.4084731638431549,0.8941558441558443
97,0.0017893395852297544,1.0,0.4093950390815735,0.8941558441558443
98,0.0017455191118642688,1.0,0.40847453474998474,0.8941558441558443
99,0.001705370144918561,1.0,0.411456435918808,0.8941558441558443
100,0.0016649113968014717,1.0,0.4095742702484131,0.8941558441558443
101,0.0016284354496747255,1.0,0.4126163125038147,0.8941558441558443
102,0.0015901254955679178,1.0,0.41115251183509827,0.8941558441558443
103,0.0015569059178233147,1.0,0.41314300894737244,0.8941558441558443
104,0.001520182704553008,1.0,0.41278380155563354,0.8941558441558443
105,0.0014893182087689638,1.0,0.41391271352767944,0.8941558441558443
106,0.0014562836149707437,1.0,0.41371288895606995,0.8941558441558443
107,0.0014262866461649537,1.0,0.4158766567707062,0.8941558441558443
108,0.0013948269188404083,1.0,0.414104700088501,0.8941558441558443
109,0.0013675378868356347,1.0,0.4175187945365906,0.8941558441558443
110,0.0013375405687838793,1.0,0.4158642888069153,0.8941558441558443
111,0.0013116805348545313,1.0,0.41836050152778625,0.8941558441558443
112,0.0012837175745517015,1.0,0.417298287153244,0.8941558441558443
113,0.0012591450940817595,1.0,0.41886457800865173,0.8941558441558443
114,0.0012338783126324415,1.0,0.41874879598617554,0.8941558441558443
115,0.0012100933818146586,1.0,0.42028990387916565,0.8941558441558443
116,0.0011866346467286348,1.0,0.4192560613155365,0.8941558441558443
117,0.001164273708127439,1.0,0.422477662563324,0.8941558441558443
118,0.001140578300692141,1.0,0.41962841153144836,0.8941558441558443
119,0.0011213530087843537,1.0,0.42286786437034607,0.8941558441558443
120,0.0010979644721373916,1.0,0.4212856888771057,0.8941558441558443
121,0.001080023474059999,1.0,0.42326512932777405,0.8941558441558443
122,0.0010589166777208447,1.0,0.42252451181411743,0.8941558441558443
123,0.001040094532072544,1.0,0.42433351278305054,0.8941558441558443
124,0.0010216485243290663,1.0,0.42307955026626587,0.8941558441558443
125,0.001003067009150982,1.0,0.4262908399105072,0.8941558441558443
126,0.0009853822411969304,1.0,0.42374351620674133,0.8941558441558443
127,0.000968569831456989,1.0,0.42626431584358215,0.8941558441558443
128,0.0009508049115538597,1.0,0.4256240725517273,0.8941558441558443
129,0.0009352830238640308,1.0,0.42664554715156555,0.8941558441558443
130,0.0009184340597130358,1.0,0.42709821462631226,0.8941558441558443
131,0.0009038475691340864,1.0,0.4277973771095276,0.8941558441558443
132,0.0008881347021088004,1.0,0.42755961418151855,0.8941558441558443
133,0.0008736305753700435,1.0,0.429386705160141,0.8941558441558443
134,0.0008587855263613164,1.0,0.4281485080718994,0.9029993815708102
135,0.0008450885652564466,1.0,0.4307996928691864,0.8941558441558443
136,0.0008308212854899466,1.0,0.4291314482688904,0.9029993815708102
137,0.0008171990630216897,1.0,0.4314393401145935,0.8941558441558443
138,0.0008042088011279702,1.0,0.43016815185546875,0.9077612863327149
139,0.0007912401342764497,1.0,0.43247097730636597,0.8941558441558443
140,0.0007782013854011893,1.0,0.43143489956855774,0.9029993815708102
141,0.0007664516451768577,1.0,0.4332357943058014,0.8941558441558443
142,0.0007538719801232219,1.0,0.4329322278499603,0.9077612863327149
143,0.0007424805662594736,1.0,0.43394550681114197,0.9029993815708102
144,0.0007308131898753345,1.0,0.43349310755729675,0.9077612863327149
145,0.0007192975608631968,1.0,0.4355301260948181,0.9029993815708102
146,0.0007086516707204282,1.0,0.43410438299179077,0.9077612863327149
147,0.0006978064775466919,1.0,0.4364112317562103,0.9029993815708102
148,0.0006871083751320839,1.0,0.4355912208557129,0.9077612863327149
149,0.0006772421183995903,1.0,0.4371684193611145,0.9077612863327149
150,0.0006668305140919983,1.0,0.43673473596572876,0.9077612863327149
151,0.0006565889343619347,1.0,0.43767204880714417,0.9077612863327149
152,0.0006477258866652846,1.0,0.4373690187931061,0.9077612863327149
153,0.0006378040416166186,1.0,0.4384252429008484,0.9077612863327149
154,0.0006284794653765857,1.0,0.43787503242492676,0.9077612863327149
155,0.0006198560004122555,1.0,0.43929770588874817,0.9077612863327149
156,0.000610541959758848,1.0,0.4396209418773651,0.9029993815708102
157,0.0006026868941262364,1.0,0.4397112727165222,0.9077612863327149
158,0.0005935447406955063,1.0,0.4404537081718445,0.9029993815708102
159,0.0005855077179148793,1.0,0.441057026386261,0.9029993815708102
160,0.0005776999751105905,1.0,0.44091659784317017,0.9029993815708102
161,0.000569483614526689,1.0,0.4419481158256531,0.9029993815708102
162,0.0005618394934572279,1.0,0.4416634142398834,0.9029993815708102
163,0.0005543745937757194,1.0,0.4427216053009033,0.9029993815708102
164,0.0005468774470500648,1.0,0.44262418150901794,0.9029993815708102
165,0.0005394076579250395,1.0,0.4433109760284424,0.9029993815708102
166,0.0005326409009285271,1.0,0.44337978959083557,0.9029993815708102
167,0.0005253042327240109,1.0,0.4445957541465759,0.9029993815708102
168,0.0005189075600355864,1.0,0.4442288279533386,0.9029993815708102
169,0.0005115577368997037,1.0,0.44442033767700195,0.9029993815708102
170,0.0005055346409790218,1.0,0.4458460211753845,0.9029993815708102
171,0.0004985592095181346,1.0,0.4447328746318817,0.9029993815708102
172,0.0004929220885969698,1.0,0.4465673267841339,0.9029993815708102
173,0.00048573658568784595,1.0,0.4458635151386261,0.9029993815708102
174,0.0004805993230547756,1.0,0.4469144940376282,0.9029993815708102
175,0.00047377104056067765,1.0,0.4471490979194641,0.9029993815708102
176,0.00046832876978442073,1.0,0.4476185142993927,0.9029993815708102
177,0.00046248576836660504,1.0,0.4471092224121094,0.9029993815708102
178,0.00045641724136658013,1.0,0.44956108927726746,0.9029993815708102
179,0.000451181287644431,1.0,0.4472309648990631,0.9029993815708102
180,0.0004453508590813726,1.0,0.4506414532661438,0.9029993815708102
181,0.0004399096069391817,1.0,0.44820263981819153,0.9029993815708102
182,0.0004347443173173815,1.0,0.4510742723941803,0.9029993815708102
183,0.0004290994256734848,1.0,0.4486508369445801,0.9029993815708102
184,0.00042454636422917247,1.0,0.4517705738544464,0.9029993815708102
185,0.000418847514083609,1.0,0.4506114423274994,0.9029993815708102
186,0.00041454582242295146,1.0,0.4514789879322052,0.9029993815708102
187,0.00040897756116464734,1.0,0.45167309045791626,0.9029993815708102
188,0.00040470861131325364,1.0,0.45256200432777405,0.9029993815708102
189,0.00039962484152056277,1.0,0.45149150490760803,0.9029993815708102
190,0.0003954670683015138,1.0,0.453246146440506,0.9029993815708102
191,0.0003903077740687877,1.0,0.45280665159225464,0.9029993815708102
192,0.0003866518964059651,1.0,0.45262637734413147,0.9029993815708102
193,0.0003814098599832505,1.0,0.45418235659599304,0.9029993815708102
194,0.00037770718336105347,1.0,0.45370981097221375,0.9029993815708102
195,0.0003729151503648609,1.0,0.4545140862464905,0.9029993815708102
196,0.0003690142766572535,1.0,0.4541383683681488,0.9029993815708102
197,0.0003646699769888073,1.0,0.455240398645401,0.9029993815708102
198,0.00036060661659576,1.0,0.4545968472957611,0.9029993815708102
199,0.00035683269379660487,1.0,0.45577552914619446,0.9029993815708102
200,0.0003525220963638276,1.0,0.45496341586112976,0.9029993815708102
201,0.00034900620812550187,1.0,0.45676976442337036,0.9029993815708102
202,0.0003448359202593565,1.0,0.4555377960205078,0.9029993815708102
203,0.0003412426740396768,1.0,0.4576534628868103,0.9029993815708102
204,0.00033758996869437397,1.0,0.45619532465934753,0.9029993815708102
205,0.0003339137474540621,1.0,0.4584713280200958,0.9029993815708102
206,0.000330145878251642,1.0,0.4567408561706543,0.9029993815708102
207,0.0003269877634011209,1.0,0.45894044637680054,0.9029993815708102
208,0.00032311779796145856,1.0,0.457697331905365,0.9029993815708102
209,0.00031999897328205407,1.0,0.4598102867603302,0.9029993815708102
210,0.0003164637309964746,1.0,0.45746421813964844,0.9029993815708102
211,0.00031327063334174454,1.0,0.4612555205821991,0.9029993815708102
212,0.0003096149885095656,1.0,0.4577002227306366,0.9029993815708102
213,0.0003069224185310304,1.0,0.46160146594047546,0.9029993815708102
214,0.00030312544549815357,1.0,0.4590316712856293,0.9029993815708102
215,0.0003004554600920528,1.0,0.4617723822593689,0.9029993815708102
216,0.00029705758788622916,1.0,0.4596482217311859,0.9029993815708102
217,0.00029433079180307686,1.0,0.4626893103122711,0.9029993815708102
218,0.00029092124896124005,1.0,0.46046119928359985,0.9029993815708102
219,0.00028848802321590483,1.0,0.462583065032959,0.9029993815708102
220,0.0002851116005331278,1.0,0.4614754617214203,0.9029993815708102
221,0.0002825770643539727,1.0,0.4634518623352051,0.9029993815708102
222,0.00027955378754995763,1.0,0.4611639976501465,0.9029993815708102
223,0.0002768641570582986,1.0,0.4643193185329437,0.9029993815708102
224,0.00027420747210271657,1.0,0.462109237909317,0.9029993815708102
225,0.0002713467983994633,1.0,0.4645525813102722,0.9029993815708102
226,0.0002690294641070068,1.0,0.46264466643333435,0.9029993815708102
227,0.0002658821758814156,1.0,0.4656600058078766,0.9029993815708102
228,0.0002638215955812484,1.0,0.46340444684028625,0.9029993815708102
229,0.0002606402267701924,1.0,0.46589550375938416,0.9029993815708102
230,0.0002587537164799869,1.0,0.4635314643383026,0.9029993815708102
231,0.0002558397245593369,1.0,0.4666662812232971,0.9029993815708102
232,0.00025341330911032856,1.0,0.4655117690563202,0.9029993815708102
233,0.0002511478087399155,1.0,0.46570828557014465,0.9029993815708102
234,0.00024851979105733335,1.0,0.4667721390724182,0.9029993815708102
235,0.0002464396529830992,1.0,0.465503454208374,0.9029993815708102
236,0.00024373698397539556,1.0,0.4680542051792145,0.9029993815708102
237,0.00024156528525054455,1.0,0.4657512307167053,0.9029993815708102
238,0.00023934712226036936,1.0,0.4680165946483612,0.9029993815708102
239,0.00023700548626948148,1.0,0.4675006866455078,0.9029993815708102
240,0.00023510293976869434,1.0,0.4670507311820984,0.9029993815708102
241,0.00023256697750184685,1.0,0.46961328387260437,0.9029993815708102
242,0.00023076047364156693,1.0,0.46623632311820984,0.9029993815708102
243,0.00022829898807685822,1.0,0.4708798825740814,0.9029993815708102
244,0.0002264232753077522,1.0,0.46746787428855896,0.9029993815708102
245,0.00022417891887016594,1.0,0.4696929454803467,0.9029993815708102
246,0.00022226224245969206,1.0,0.46967872977256775,0.9029993815708102
247,0.00022018348681740463,1.0,0.46959051489830017,0.9029993815708102
248,0.00021807258599437773,1.0,0.4703925549983978,0.9029993815708102
249,0.00021602600463666022,1.0,0.4692761301994324,0.9029993815708102
250,0.00021416628442239016,1.0,0.4710882604122162,0.9029993815708102
251,0.00021208854741416872,1.0,0.4706926643848419,0.9029993815708102
252,0.00021047268819529563,1.0,0.47044679522514343,0.9029993815708102
253,0.00020817229233216494,1.0,0.472151517868042,0.9029993815708102
254,0.00020681635942310095,1.0,0.470388263463974,0.9029993815708102
255,0.00020452409808058292,1.0,0.47348809242248535,0.9029993815708102
256,0.00020315351139288396,1.0,0.4699050784111023,0.9029993815708102
257,0.00020099304674658924,1.0,0.4742604196071625,0.9029993815708102
258,0.0001996607315959409,1.0,0.47074076533317566,0.9029993815708102
259,0.00019741200958378613,1.0,0.4741751253604889,0.9029993815708102
260,0.00019603160035330802,1.0,0.4721359312534332,0.9029993815708102
261,0.00019398555741645396,1.0,0.4736090302467346,0.9029993815708102
262,0.0001925896358443424,1.0,0.4731769263744354,0.9029993815708102
263,0.0001906490360852331,1.0,0.4736877381801605,0.9029993815708102
264,0.00018911182996816933,1.0,0.4737113416194916,0.9029993815708102
265,0.00018749891023617238,1.0,0.47407907247543335,0.9029993815708102
266,0.00018573256966192275,1.0,0.4751777946949005,0.9029993815708102
267,0.00018440936401020736,1.0,0.4734257757663727,0.9029993815708102
268,0.00018256311886943877,1.0,0.4758077561855316,0.9029993815708102
269,0.00018118142907042056,1.0,0.4743051528930664,0.9029993815708102
270,0.00017956492956727743,1.0,0.4759826362133026,0.9029993815708102
271,0.00017804701928980649,1.0,0.47525086998939514,0.9029993815708102
272,0.00017662849859334528,1.0,0.4764271080493927,0.9029993815708102
273,0.00017485188436694443,1.0,0.47542062401771545,0.9029993815708102
274,0.00017385592218488455,1.0,0.47704848647117615,0.9029993815708102
275,0.00017184724856633693,1.0,0.4763633608818054,0.9029993815708102
276,0.0001709215430309996,1.0,0.4773123562335968,0.9029993815708102
277,0.0001691287470748648,1.0,0.47621917724609375,0.9029993815708102
278,0.00016798937576822937,1.0,0.4782581925392151,0.9029993815708102
279,0.0001663857401581481,1.0,0.47623541951179504,0.9029993815708102
280,0.0001653039362281561,1.0,0.478880375623703,0.9029993815708102
281,0.0001635534135857597,1.0,0.4773222506046295,0.9029993815708102
282,0.00016267159662675112,1.0,0.4783361852169037,0.9029993815708102
283,0.00016086269170045853,1.0,0.4783760905265808,0.9029993815708102
284,0.00016003716154955328,1.0,0.4781331717967987,0.9029993815708102
285,0.0001582824334036559,1.0,0.47973719239234924,0.9029993815708102
286,0.00015742515097372234,1.0,0.47816088795661926,0.9029993815708102
287,0.00015580539184156805,1.0,0.48031243681907654,0.9029993815708102
288,0.00015462997544091195,1.0,0.4793241322040558,0.9029993815708102
289,0.0001535285118734464,1.0,0.4798893630504608,0.9029993815708102
290,0.00015206137322820723,1.0,0.4802526831626892,0.9029993815708102
291,0.00015102929319255054,1.0,0.4798232614994049,0.9029993815708102
292,0.0001496768818469718,1.0,0.4814315438270569,0.9029993815708102
293,0.00014845973055344075,1.0,0.4797733724117279,0.9029993815708102
294,0.000147596700116992,1.0,0.48125919699668884,0.9029993815708102
295,0.00014605607429984957,1.0,0.4808081090450287,0.9029993815708102
296,0.00014527073653880507,1.0,0.48185667395591736,0.9029993815708102
297,0.00014375887985806912,1.0,0.48093703389167786,0.9029993815708102
298,0.00014295645814854652,1.0,0.48306986689567566,0.9029993815708102
299,0.00014161168655846268,1.0,0.48042288422584534,0.9029993815708102
300,0.00014063042181078345,1.0,0.48391351103782654,0.9029993815708102
301,0.0001394474384142086,1.0,0.48143458366394043,0.9029993815708102
302,0.00013836089055985212,1.0,0.48431968688964844,0.9029993815708102
303,0.00013722672883886844,1.0,0.48178741335868835,0.9029993815708102
304,0.00013629674504045397,1.0,0.4847821295261383,0.9029993815708102
305,0.00013514963211491704,1.0,0.48237213492393494,0.9029993815708102
306,0.00013410160318017006,1.0,0.4849758446216583,0.9029993815708102
307,0.0001329960214206949,1.0,0.4837534427642822,0.9029993815708102
308,0.00013204905553720891,1.0,0.4851350784301758,0.9029993815708102
309,0.00013089978892821819,1.0,0.4844288229942322,0.9029993815708102
310,0.0001300635776715353,1.0,0.48511070013046265,0.9029993815708102
311,0.00012897481792606413,1.0,0.4856451153755188,0.9029993815708102
312,0.00012801952834706753,1.0,0.48453328013420105,0.9029993815708102
313,0.00012705099652521312,1.0,0.48638561367988586,0.9029993815708102
314,0.0001260180288227275,1.0,0.48566725850105286,0.9029993815708102
315,0.00012518352014012635,1.0,0.4867704510688782,0.9029993815708102
316,0.00012421233986970037,1.0,0.48560693860054016,0.9029993815708102
317,0.0001232276699738577,1.0,0.48760080337524414,0.9029993815708102
318,0.00012245129619259387,1.0,0.48598355054855347,0.9029993815708102
319,0.0001213921932503581,1.0,0.48825812339782715,0.9029993815708102
320,0.00012050180521328002,1.0,0.4859752058982849,0.9029993815708102
321,0.00011954081855947152,1.0,0.4888414740562439,0.9029993815708102
322,0.00011872362665599212,1.0,0.48796698451042175,0.9029993815708102
323,0.00011778512271121144,1.0,0.48836377263069153,0.9029993815708102
324,0.00011690396786434576,1.0,0.4882154166698456,0.9029993815708102
325,0.00011602094309637323,1.0,0.4894683361053467,0.9029993815708102
326,0.00011530353367561474,1.0,0.48853427171707153,0.9029993815708102
327,0.00011435457417974249,1.0,0.4885151982307434,0.9029993815708102
328,0.0001135445709223859,1.0,0.4908146560192108,0.9029993815708102
329,0.00011265942157479003,1.0,0.48770245909690857,0.9029993815708102
330,0.00011212724348297343,1.0,0.4916671812534332,0.9029993815708102
331,0.00011085248843301088,1.0,0.48859700560569763,0.9029993815708102
332,0.00011103757424280047,1.0,0.49117305874824524,0.9029993815708102
333,0.00010916803876170889,1.0,0.489447683095932,0.9029993815708102
334,0.00010951792501145974,1.0,0.4909777045249939,0.9029993815708102
335,0.00010767301864689216,1.0,0.4908004701137543,0.9029993815708102
336,0.00010780360025819391,1.0,0.49048417806625366,0.9029993815708102
337,0.00010621838737279177,1.0,0.49142709374427795,0.9029993815708102
338,0.0001060318827512674,1.0,0.49182605743408203,0.9029993815708102
339,0.00010467749962117523,1.0,0.491833359003067,0.9029993815708102
340,0.00010440065670991316,1.0,0.4908699095249176,0.9029993815708102
341,0.00010309723438695073,1.0,0.49317362904548645,0.9029993815708102
342,0.0001028599072014913,1.0,0.49109169840812683,0.9029993815708102
343,0.00010156800271943212,1.0,0.49391934275627136,0.9029993815708102
344,0.00010125945846084505,1.0,0.49174705147743225,0.9029993815708102
345,0.00010025274968938902,1.0,0.49402645230293274,0.9029993815708102
346,9.968665108317509e-05,1.0,0.4925028383731842,0.9029993815708102
347,9.888534259516746e-05,1.0,0.4938276708126068,0.9029993815708102
348,9.813728684093803e-05,1.0,0.49273014068603516,0.9029993815708102
349,9.73902060650289e-05,1.0,0.49413084983825684,0.9029993815708102
350,9.67422456596978e-05,1.0,0.49327564239501953,0.9029993815708102
351,9.597593452781439e-05,1.0,0.49585649371147156,0.9029993815708102
352,9.525242785457522e-05,1.0,0.49277636408805847,0.9029993815708102
353,9.492458775639534e-05,1.0,0.49558237195014954,0.9029993815708102
354,9.387538011651486e-05,1.0,0.49470821022987366,0.9029993815708102
355,9.333797061117366e-05,1.0,0.4934379458427429,0.9029993815708102
356,9.284530824515969e-05,1.0,0.49541157484054565,0.9029993815708102
357,9.204390516970307e-05,1.0,0.4964846968650818,0.9029993815708102
358,9.12128816707991e-05,1.0,0.4931391179561615,0.9029993815708102
359,9.099575981963426e-05,1.0,0.4957897365093231,0.9029993815708102
360,9.004867024486884e-05,1.0,0.4956906735897064,0.9029993815708102
361,8.938567771110684e-05,1.0,0.4947741627693176,0.9029993815708102
362,8.914525096770376e-05,1.0,0.4957379698753357,0.9029993815708102
363,8.813629392534494e-05,1.0,0.4974938929080963,0.9029993815708102
364,8.742979116505012e-05,1.0,0.49432802200317383,0.9029993815708102
365,8.730950503377244e-05,1.0,0.49679556488990784,0.9029993815708102
366,8.641027670819312e-05,1.0,0.49699506163597107,0.9029993815708102
367,8.566960605094209e-05,1.0,0.49544623494148254,0.9029993815708102
368,8.546106982976198e-05,1.0,0.4979747235774994,0.9029993815708102
369,8.449579763691872e-05,1.0,0.4969892203807831,0.9029993815708102
370,8.410106966039166e-05,1.0,0.4967408776283264,0.9029993815708102
371,8.3556144090835e-05,1.0,0.49829885363578796,0.9029993815708102
372,8.291448466479778e-05,1.0,0.4969286322593689,0.9029993815708102
373,8.232066466007382e-05,1.0,0.4973545968532562,0.9029993815708102
374,8.183431054931134e-05,1.0,0.4985291063785553,0.9029993815708102
375,8.133420487865806e-05,1.0,0.4974357783794403,0.9029993815708102
376,8.078500104602426e-05,1.0,0.4996468424797058,0.9029993815708102
377,7.996139902388677e-05,1.0,0.49668648838996887,0.9029993815708102
378,7.98879045760259e-05,1.0,0.500813901424408,0.9029993815708102
379,7.920157804619521e-05,1.0,0.49613550305366516,0.9029993815708102
380,7.853955321479589e-05,1.0,0.5018319487571716,0.9029993815708102
381,7.810334500391036e-05,1.0,0.496961772441864,0.9029993815708102
382,7.767439092276618e-05,1.0,0.5016720294952393,0.9029993815708102
383,7.684119191253558e-05,1.0,0.49710384011268616,0.9029993815708102
384,7.671453931834549e-05,1.0,0.5016931295394897,0.9029993815708102
385,7.599192758789286e-05,1.0,0.498125284910202,0.9029993815708102
386,7.562587416032329e-05,1.0,0.5015406012535095,0.9029993815708102
387,7.494157034670934e-05,1.0,0.4987490773200989,0.9029993815708102
388,7.468513649655506e-05,1.0,0.5006574392318726,0.9029993815708102
389,7.396570435957983e-05,1.0,0.5012162327766418,0.9029993815708102
390,7.360388553934172e-05,1.0,0.5003394484519958,0.9029993815708102
391,7.305901817744598e-05,1.0,0.5011823773384094,0.9029993815708102
392,7.261843711603433e-05,1.0,0.5014970898628235,0.9029993815708102
393,7.198417006293312e-05,1.0,0.5020279288291931,0.9029993815708102
394,7.170110620791093e-05,1.0,0.5009320974349976,0.9029993815708102
395,7.112109597073868e-05,1.0,0.5016528964042664,0.9029993815708102
396,7.070821447996423e-05,1.0,0.5016470551490784,0.9029993815708102
397,7.030589767964557e-05,1.0,0.5029216408729553,0.9029993815708102
398,6.986537482589483e-05,1.0,0.5018450021743774,0.9029993815708102
399,6.92810644977726e-05,1.0,0.5025903582572937,0.9029993815708102
400,6.890758231747895e-05,1.0,0.5027379393577576,0.9029993815708102
401,6.840947025921196e-05,1.0,0.5037630796432495,0.9029993815708102
402,6.803386349929497e-05,1.0,0.5012643933296204,0.9029993815708102
403,6.767518789274618e-05,1.0,0.5048854947090149,0.9029993815708102
404,6.72739915899001e-05,1.0,0.5023372173309326,0.9029993815708102
405,6.648006819887087e-05,1.0,0.5028862953186035,0.9029993815708102
406,6.628322444157675e-05,1.0,0.5050977468490601,0.9029993815708102
407,6.590859265998006e-05,1.0,0.5043496489524841,0.9029993815708102
408,6.552229024237022e-05,1.0,0.5037452578544617,0.9029993815708102
409,6.492419925052673e-05,1.0,0.5036798119544983,0.9029993815708102
410,6.471027882071212e-05,1.0,0.5047118663787842,0.9029993815708102
411,6.410262722056359e-05,1.0,0.5040529370307922,0.9029993815708102
412,6.394190859282389e-05,1.0,0.5062249302864075,0.9029993815708102
413,6.333213241305202e-05,1.0,0.5035303831100464,0.9029993815708102
414,6.317886436590925e-05,1.0,0.5069761872291565,0.9029993815708102
415,6.239559297682717e-05,1.0,0.5043643712997437,0.9029993815708102
416,6.233068415895104e-05,1.0,0.5065184235572815,0.9029993815708102
417,6.194967136252671e-05,1.0,0.5055538415908813,0.9029993815708102
418,6.141544872662053e-05,1.0,0.505888819694519,0.9029993815708102
419,6.107277295086533e-05,1.0,0.5059536099433899,0.9029993815708102
420,6.09525122854393e-05,1.0,0.5063225626945496,0.9029993815708102
421,6.0373535234248266e-05,1.0,0.5058522820472717,0.9029993815708102
422,5.984573363093659e-05,1.0,0.507196843624115,0.9029993815708102
423,5.9476391470525414e-05,1.0,0.5076418519020081,0.9029993815708102
424,5.9188030718360096e-05,1.0,0.5070697069168091,0.9029993815708102
425,5.893470734008588e-05,1.0,0.5066379308700562,0.9029993815708102
426,5.8668683777796105e-05,1.0,0.5075228810310364,0.9029993815708102
427,5.807797788293101e-05,1.0,0.5075210928916931,0.9029993815708102
428,5.769385097664781e-05,1.0,0.5086385011672974,0.9029993815708102
429,5.735217564506456e-05,1.0,0.5086938738822937,0.9029993815708102
430,5.6976539781317115e-05,1.0,0.5079899430274963,0.9029993815708102
431,5.666363358614035e-05,1.0,0.5086527466773987,0.9029993815708102
432,5.647847501677461e-05,1.0,0.5090233683586121,0.9029993815708102
433,5.610490188701078e-05,1.0,0.5072644352912903,0.9029993815708102
434,5.569413406192325e-05,1.0,0.5100001692771912,0.9029993815708102
435,5.530137423193082e-05,1.0,0.5088266134262085,0.9029993815708102
436,5.5048149079084396e-05,1.0,0.509036660194397,0.9029993815708102
437,5.469370080390945e-05,1.0,0.509802520275116,0.9029993815708102
438,5.424036135082133e-05,1.0,0.511164665222168,0.9029993815708102
439,5.405304909800179e-05,1.0,0.5085011720657349,0.9029993815708102
440,5.373165549826808e-05,1.0,0.511172890663147,0.9029993815708102
441,5.344535384210758e-05,1.0,0.5099498629570007,0.9029993815708102
442,5.302181307342835e-05,1.0,0.5107282996177673,0.9029993815708102
443,5.291853813105263e-05,1.0,0.5104054808616638,0.9029993815708102
444,5.261952173896134e-05,1.0,0.5105066895484924,0.9029993815708102
445,5.203521141083911e-05,1.0,0.5111475586891174,0.9029993815708102
446,5.17457774549257e-05,1.0,0.5119339227676392,0.9029993815708102
447,5.174999387236312e-05,1.0,0.5108259320259094,0.9029993815708102
448,5.115723251947202e-05,1.0,0.5111061334609985,0.9029993815708102
449,5.078792673884891e-05,1.0,0.5106084942817688,0.9029993815708102
450,5.0808161176973954e-05,1.0,0.5136338472366333,0.9029993815708102
451,5.063465141574852e-05,1.0,0.5114073753356934,0.9029993815708102
452,4.98205263284035e-05,1.0,0.5119652152061462,0.9029993815708102
453,4.9823713197838515e-05,1.0,0.5122376680374146,0.9029993815708102
454,4.961406011716463e-05,1.0,0.5134762525558472,0.9029993815708102
455,4.9037211283575743e-05,1.0,0.5119638442993164,0.9029993815708102
456,4.87147735839244e-05,1.0,0.5135316848754883,0.9029993815708102
457,4.866261224378832e-05,1.0,0.5123832821846008,0.9029993815708102
458,4.832205377169885e-05,1.0,0.5137000679969788,0.9029993815708102
459,4.788889054907486e-05,1.0,0.5133854746818542,0.9029993815708102
460,4.7568562877131626e-05,1.0,0.5139731764793396,0.9029993815708102
461,4.754513065563515e-05,1.0,0.5134843587875366,0.9029993815708102
462,4.722692756331526e-05,1.0,0.5135555863380432,0.9029993815708102
463,4.67916252091527e-05,1.0,0.5137994885444641,0.9029993815708102
464,4.6546880184905604e-05,1.0,0.5145537257194519,0.9029993815708102
465,4.64936310891062e-05,1.0,0.513838529586792,0.9029993815708102
466,4.605198773788288e-05,1.0,0.5145571231842041,0.9029993815708102
467,4.581782195600681e-05,1.0,0.5153427720069885,0.9029993815708102
468,4.559542139759287e-05,1.0,0.5144898891448975,0.9029993815708102
469,4.540380905382335e-05,1.0,0.5150088667869568,0.9029993815708102
470,4.515907494351268e-05,1.0,0.5140085816383362,0.9029993815708102
471,4.471947249840014e-05,1.0,0.5163835287094116,0.9029993815708102
472,4.458437251741998e-05,1.0,0.5145228505134583,0.9029993815708102
473,4.442254430614412e-05,1.0,0.5180038809776306,0.9029993815708102
474,4.4105458073318005e-05,1.0,0.5134373307228088,0.9029993815708102
475,4.379781967145391e-05,1.0,0.5190919041633606,0.9029993815708102
476,4.374254058348015e-05,1.0,0.5158983469009399,0.9029993815708102
477,4.323801113059744e-05,1.0,0.5174972414970398,0.9029993815708102
478,4.32029519288335e-05,1.0,0.5159882307052612,0.9029993815708102
479,4.291658478905447e-05,1.0,0.5187876224517822,0.9029993815708102
480,4.2757023038575426e-05,1.0,0.5160879492759705,0.9029993815708102
481,4.2155639675911516e-05,1.0,0.5196062922477722,0.9029993815708102
482,4.228874604450539e-05,1.0,0.5172836184501648,0.9029993815708102
483,4.209072358207777e-05,1.0,0.5183351635932922,0.9029993815708102
484,4.182470729574561e-05,1.0,0.5171080827713013,0.9029993815708102
485,4.1127575968857855e-05,1.0,0.5193787217140198,0.9029993815708102
486,4.106375854462385e-05,1.0,0.5186092257499695,0.9029993815708102
487,4.0914736018748954e-05,1.0,0.520155131816864,0.9029993815708102
488,4.0624199755256996e-05,1.0,0.5178309679031372,0.9029993815708102
489,4.031554999528453e-05,1.0,0.51973956823349,0.9029993815708102
490,4.005055598099716e-05,1.0,0.5186465382575989,0.9029993815708102
491,3.99175078200642e-05,1.0,0.5205060243606567,0.9029993815708102
492,3.980257679359056e-05,1.0,0.5184291005134583,0.9029993815708102
493,3.956308864871971e-05,1.0,0.5214158892631531,0.9029993815708102
494,3.917678623110987e-05,1.0,0.5185733437538147,0.9029993815708102
495,3.9094800740713254e-05,1.0,0.5218796133995056,0.9029993815708102
496,3.884260149789043e-05,1.0,0.520102322101593,0.9029993815708102
497,3.8704205508111045e-05,1.0,0.5213990807533264,0.9029993815708102
498,3.8462658267235383e-05,1.0,0.5191839933395386,0.9029993815708102
499,3.836255564237945e-05,1.0,0.5223442912101746,0.9029993815708102
500,3.8276408304227516e-05,1.0,0.5190525650978088,0.9029993815708102
501,3.7915538996458054e-05,1.0,0.5235117077827454,0.9029993815708102
502,3.7894333217991516e-05,1.0,0.5195801854133606,0.9029993815708102
503,3.7561145290965214e-05,1.0,0.522157609462738,0.9029993815708102
504,3.752288830582984e-05,1.0,0.523875892162323,0.9029993815708102
505,3.6750174331245944e-05,1.0,0.5228326916694641,0.9029993815708102
506,3.686409763759002e-05,1.0,0.5214894413948059,0.9029993815708102
507,3.681511589093134e-05,1.0,0.5236467719078064,0.9029993815708102
508,3.6437297239899635e-05,1.0,0.5227394700050354,0.9029993815708102
509,3.5911543818656355e-05,1.0,0.521976113319397,0.9029993815708102
510,3.586046659620479e-05,1.0,0.5238815546035767,0.9029993815708102
511,3.5851939173880965e-05,1.0,0.5240168571472168,0.9029993815708102
512,3.5533721529645845e-05,1.0,0.5222786664962769,0.9029993815708102
513,3.5258060961496085e-05,1.0,0.5246613621711731,0.9029993815708102
514,3.507076689857058e-05,1.0,0.5233827233314514,0.9029993815708102
515,3.505797576508485e-05,1.0,0.5244629383087158,0.9029993815708102
516,3.5019675124203786e-05,1.0,0.5237179398536682,0.9029993815708102
517,3.462266977294348e-05,1.0,0.5240306258201599,0.9029993815708102
518,3.43385327141732e-05,1.0,0.5240175127983093,0.9029993815708102
519,3.4366170439170673e-05,1.0,0.5254931449890137,0.9029993815708102
520,3.430660581216216e-05,1.0,0.5228284001350403,0.9029993815708102
521,3.389255653019063e-05,1.0,0.5252543091773987,0.9029993815708102
522,3.3706342946970835e-05,1.0,0.5251955389976501,0.9029993815708102
523,3.356263187015429e-05,1.0,0.5266322493553162,0.9029993815708102
524,3.349560938659124e-05,1.0,0.5233966112136841,0.9029993815708102
525,3.3199703466380015e-05,1.0,0.5273460149765015,0.9029993815708102
526,3.298900628578849e-05,1.0,0.5251894593238831,0.9029993815708102
527,3.294002453912981e-05,1.0,0.5258505344390869,0.9029993815708102
528,3.290279346401803e-05,1.0,0.5261691212654114,0.9029993815708102
529,3.23887106787879e-05,1.0,0.5260297060012817,0.9029993815708102
530,3.232488961657509e-05,1.0,0.5264555811882019,0.9029993815708102
531,3.215137621737085e-05,1.0,0.5288397073745728,0.9029993815708102
532,3.2003466913010925e-05,1.0,0.5247223973274231,0.9029993815708102
533,3.18299607897643e-05,1.0,0.5277900099754333,0.9029993815708102
534,3.193747761542909e-05,1.0,0.5273813009262085,0.9029993815708102
535,3.144360744045116e-05,1.0,0.5277498960494995,0.9029993815708102
536,3.133828431600705e-05,1.0,0.5265249609947205,0.9029993815708102
537,3.116264633717947e-05,1.0,0.5298017859458923,0.9029993815708102
538,3.1156279874267057e-05,1.0,0.5271795392036438,0.9029993815708102
539,3.072202525800094e-05,1.0,0.5269948244094849,0.9029993815708102
540,3.070608727284707e-05,1.0,0.5283647179603577,0.9029993815708102
541,3.0480430723400787e-05,1.0,0.5292261242866516,0.9029993815708102
542,3.040488445549272e-05,1.0,0.5282670855522156,0.9029993815708102
543,3.0107927159406245e-05,1.0,0.5280232429504395,0.9029993815708102
544,3.00398296531057e-05,1.0,0.5289483666419983,0.9029993815708102
545,2.978970587719232e-05,1.0,0.5298459529876709,0.9029993815708102
546,2.981100624310784e-05,1.0,0.5283883810043335,0.9029993815708102
547,2.9464023100445047e-05,1.0,0.5304352641105652,0.9029993815708102
548,2.9334200007724576e-05,1.0,0.5283547639846802,0.9029993815708102
549,2.9265003831824288e-05,1.0,0.5303874015808105,0.9029993815708102
550,2.931503695435822e-05,1.0,0.5297078490257263,0.9029993815708102
551,2.8853111871285364e-05,1.0,0.529697835445404,0.9029993815708102
552,2.8754157028743066e-05,1.0,0.5293861627578735,0.9029993815708102
553,2.873923585866578e-05,1.0,0.5316022634506226,0.9029993815708102
554,2.8737120373989455e-05,1.0,0.5305176377296448,0.9029993815708102
555,2.8203881811350584e-05,1.0,0.5299763679504395,0.9029993815708102
556,2.8104930606787093e-05,1.0,0.5316823720932007,0.9029993815708102
557,2.8186859708512202e-05,1.0,0.5329140424728394,0.9029993815708102
558,2.8272013878449798e-05,1.0,0.5311519503593445,0.9029993815708102
559,2.761958421615418e-05,1.0,0.5306903719902039,0.9029993815708102
560,2.7461017452878878e-05,1.0,0.5343671441078186,0.9029993815708102
561,2.7590858735493384e-05,1.0,0.5313160419464111,0.9029993815708102
562,2.7649386538541876e-05,1.0,0.5341246724128723,0.9029993815708102
563,2.704060716496315e-05,1.0,0.5312107801437378,0.9029993815708102
564,2.691183181013912e-05,1.0,0.5332177877426147,0.9029993815708102
565,2.6954401619150303e-05,1.0,0.5332826375961304,0.9029993815708102
566,2.699058131838683e-05,1.0,0.5334530472755432,0.9029993815708102
567,2.654890158737544e-05,1.0,0.5308955311775208,0.9029993815708102
568,2.643288826220669e-05,1.0,0.5352572798728943,0.9029993815708102
569,2.635626333358232e-05,1.0,0.5331774950027466,0.9029993815708102
570,2.6220021027256735e-05,1.0,0.5341905951499939,0.9029993815708102
571,2.6014618924818933e-05,1.0,0.5329703092575073,0.9029993815708102
572,2.5931596610462293e-05,1.0,0.535569429397583,0.9029993815708102
573,2.580707769084256e-05,1.0,0.533234179019928,0.9029993815708102
574,2.5765562895685434e-05,1.0,0.533542811870575,0.9029993815708102
575,2.5715547963045537e-05,1.0,0.5341340899467468,0.9029993815708102
576,2.548883276176639e-05,1.0,0.5341019034385681,0.9029993815708102
577,2.5330269636469893e-05,1.0,0.5339454412460327,0.9029993815708102
578,2.5239785827579908e-05,1.0,0.5361727476119995,0.9029993815708102
579,2.520467751310207e-05,1.0,0.533573567867279,0.9029993815708102
580,2.5027980882441625e-05,1.0,0.5371249318122864,0.9029993815708102
581,2.4938603019108996e-05,1.0,0.5342445373535156,0.9029993815708102
582,2.4824692445690744e-05,1.0,0.5396831631660461,0.9029993815708102
583,2.475128167134244e-05,1.0,0.5326260328292847,0.9029993815708102
584,2.467781087034382e-05,1.0,0.5414398312568665,0.9029993815708102
585,2.4727867639739998e-05,1.0,0.533317506313324,0.9029993815708102
586,2.4266975742648356e-05,1.0,0.5409342050552368,0.9029993815708102
587,2.4737444618949667e-05,1.0,0.5332570672035217,0.9029993815708102
588,2.4233984731836244e-05,1.0,0.5416775941848755,0.9029993815708102
589,2.410737215541303e-05,1.0,0.5356465578079224,0.9029993815708102
590,2.3749731553834863e-05,1.0,0.5418978333473206,0.9029993815708102
591,2.399029654043261e-05,1.0,0.5364620089530945,0.9029993815708102
592,2.351877083128784e-05,1.0,0.5421339273452759,0.9029993815708102
593,2.362843406444881e-05,1.0,0.5346878170967102,0.9029993815708102
594,2.335806675546337e-05,1.0,0.5427502989768982,0.9029993815708102
595,2.344642962270882e-05,1.0,0.5381081104278564,0.9029993815708102
596,2.2946174794924445e-05,1.0,0.541107714176178,0.9029993815708102
597,2.30600871873321e-05,1.0,0.5368837714195251,0.9029993815708102
598,2.298343133588787e-05,1.0,0.542853832244873,0.9029993815708102
599,2.3023891117190942e-05,1.0,0.5386492013931274,0.9029993815708102
600,2.2432121113524772e-05,1.0,0.540610671043396,0.9029993815708102
601,2.2423622795031406e-05,1.0,0.5408710837364197,0.9029993815708102
602,2.2412961698137224e-05,1.0,0.5415448546409607,0.9029993815708102
603,2.24651212192839e-05,1.0,0.5413112044334412,0.9029993815708102
604,2.209792728535831e-05,1.0,0.538537323474884,0.9029993815708102
605,2.2047914171707816e-05,1.0,0.5422118306159973,0.9029993815708102
606,2.182652497140225e-05,1.0,0.5418370366096497,0.9029993815708102
607,2.181163290515542e-05,1.0,0.5410094857215881,0.9029993815708102
608,2.1660493075614795e-05,1.0,0.541633665561676,0.9029993815708102
609,2.159557698178105e-05,1.0,0.5417926907539368,0.9029993815708102
610,2.1537032807827927e-05,1.0,0.5409553050994873,0.9029993815708102
611,2.1509362341021188e-05,1.0,0.5425231456756592,0.9029993815708102
612,2.124966158589814e-05,1.0,0.5430846810340881,0.9029993815708102
613,2.1128336811671034e-05,1.0,0.5421348810195923,0.9029993815708102
614,2.119963573932182e-05,1.0,0.5428435206413269,0.9029993815708102
615,2.115388269885443e-05,1.0,0.541810154914856,0.9029993815708102
616,2.087713983200956e-05,1.0,0.5446170568466187,0.9029993815708102
617,2.0862260498688556e-05,1.0,0.5427751541137695,0.9029993815708102
618,2.076219425362069e-05,1.0,0.5455980896949768,0.9029993815708102
619,2.0764340661116876e-05,1.0,0.5424431562423706,0.9029993815708102
620,2.040670733549632e-05,1.0,0.5472274422645569,0.9029993815708102
621,2.0479101294768043e-05,1.0,0.542539656162262,0.9029993815708102
622,2.0283248886698857e-05,1.0,0.5489568114280701,0.9029993815708102
623,2.0281135221011937e-05,1.0,0.5427912473678589,0.9029993815708102
624,2.0031005988130346e-05,1.0,0.548315703868866,0.9029993815708102
625,2.005443639063742e-05,1.0,0.542638897895813,0.9029993815708102
626,1.9834104023175314e-05,1.0,0.5508407950401306,0.9029993815708102
627,1.9895853256457485e-05,1.0,0.5425663590431213,0.9029993815708102
628,1.9730865460587665e-05,1.0,0.5516090989112854,0.9029993815708102
629,1.9752169464481995e-05,1.0,0.5425100922584534,0.9029993815708102
630,1.949883699126076e-05,1.0,0.5518767833709717,0.9029993815708102
631,1.9505243471940048e-05,1.0,0.5427642464637756,0.9029993815708102
632,1.9350898583070375e-05,1.0,0.5517066121101379,0.9029993815708102
633,1.9371136659174226e-05,1.0,0.5441020727157593,0.9029993815708102
634,1.9156124835717492e-05,1.0,0.551501989364624,0.9029993815708102
635,1.9165725461789407e-05,1.0,0.5435360074043274,0.9029993815708102
636,1.9037983292946592e-05,1.0,0.5527873635292053,0.9029993815708102
637,1.910931314341724e-05,1.0,0.5453404784202576,0.9029993815708102
638,1.8869817722588778e-05,1.0,0.5515146851539612,0.9029993815708102
639,1.892518594104331e-05,1.0,0.5451838374137878,0.9029993815708102
640,1.8701652152230963e-05,1.0,0.5521079301834106,0.9029993815708102
641,1.892624823085498e-05,1.0,0.5469849109649658,0.9029993815708102
642,1.8549448213889264e-05,1.0,0.5484450459480286,0.9029993815708102
643,1.8980530512635596e-05,1.0,0.5469115376472473,0.9029993815708102
644,1.8437698599882424e-05,1.0,0.5520464777946472,0.9029993815708102
645,1.8336610082769766e-05,1.0,0.5475366115570068,0.9029993815708102
646,1.7935348296305165e-05,1.0,0.5520198941230774,0.9029993815708102
647,1.807159605959896e-05,1.0,0.5502966642379761,0.9029993815708102
648,1.785019958333578e-05,1.0,0.5514510869979858,0.9029993815708102
649,1.7814027160056867e-05,1.0,0.5483273863792419,0.9029993815708102
650,1.7584123270353302e-05,1.0,0.5536092519760132,0.9029993815708102
651,1.7589452909305692e-05,1.0,0.5498979687690735,0.9029993815708102
652,1.7493654013378546e-05,1.0,0.5525466203689575,0.9029993815708102
653,1.747556780173909e-05,1.0,0.549647331237793,0.9029993815708102
654,1.7292495613219216e-05,1.0,0.5534835457801819,0.9029993815708102
655,1.7261638276977465e-05,1.0,0.5498732328414917,0.9029993815708102
656,1.7146683603641577e-05,1.0,0.5535897016525269,0.9029993815708102
657,1.70998591784155e-05,1.0,0.5512418746948242,0.9029993815708102
658,1.6995543774100952e-05,1.0,0.5529925227165222,0.9029993815708102
659,1.694340244284831e-05,1.0,0.5525747537612915,0.9029993815708102
660,1.6985963156912476e-05,1.0,0.5528122186660767,0.9029993815708102
661,1.713391611701809e-05,1.0,0.5517240762710571,0.9029993815708102
662,1.6787993445177563e-05,1.0,0.5539777874946594,0.9029993815708102
663,1.6715635865693912e-05,1.0,0.550801694393158,0.9029993815708102
664,1.6558102288399823e-05,1.0,0.5573481321334839,0.9029993815708102
665,1.6629424862912856e-05,1.0,0.5504261255264282,0.9029993815708102
666,1.6507010514033027e-05,1.0,0.5574947595596313,0.9029993815708102
667,1.653256913414225e-05,1.0,0.5512797832489014,0.9029993815708102
668,1.636970955587458e-05,1.0,0.559674859046936,0.9029993815708102
669,1.6471900380565785e-05,1.0,0.5498124957084656,0.9029993815708102
670,1.6266463717329316e-05,1.0,0.562406599521637,0.8975048760763047
671,1.6601748939137906e-05,1.0,0.5497246980667114,0.9029993815708102
672,1.620898001419846e-05,1.0,0.5585559010505676,0.9029993815708102
673,1.6685831724316813e-05,1.0,0.5486524701118469,0.9029993815708102
674,1.609509672562126e-05,1.0,0.5623321533203125,0.9029993815708102
675,1.6081290596048348e-05,1.0,0.5514746308326721,0.8887136672850959
676,1.5848181647015736e-05,1.0,0.5596234202384949,0.9029993815708102
677,1.6079164197435603e-05,1.0,0.5525190830230713,0.9029993815708102
678,1.5552297554677352e-05,1.0,0.5607958436012268,0.9029993815708102
679,1.5593826901749708e-05,1.0,0.5530157685279846,0.8887136672850959
680,1.536285344627686e-05,1.0,0.5627371668815613,0.9029993815708102
681,1.5479945432161912e-05,1.0,0.5537006258964539,0.9029993815708102
682,1.521384638181189e-05,1.0,0.5604351758956909,0.9029993815708102
683,1.5153193089645356e-05,1.0,0.5547147393226624,0.9029993815708102
684,1.4998856386227999e-05,1.0,0.562239944934845,0.9029993815708102
685,1.5045695363369305e-05,1.0,0.5539174675941467,0.9029993815708102
686,1.499246991443215e-05,1.0,0.5588021874427795,0.9029993815708102
687,1.5032920600788202e-05,1.0,0.5564664602279663,0.9029993815708102
688,1.4719997125212103e-05,1.0,0.5601769089698792,0.9029993815708102
689,1.463273110857699e-05,1.0,0.5564165115356445,0.9029993815708102
690,1.4600796021113638e-05,1.0,0.5605247616767883,0.9029993815708102
691,1.462208638258744e-05,1.0,0.5563703179359436,0.9029993815708102
692,1.4594407730328385e-05,1.0,0.5582805275917053,0.9029993815708102
693,1.4617829037888441e-05,1.0,0.5583506226539612,0.9029993815708102
694,1.4369831660587806e-05,1.0,0.5591411590576172,0.9029993815708102
695,1.4325138181447983e-05,1.0,0.5575757622718811,0.9029993815708102
696,1.4173991985444445e-05,1.0,0.5637733340263367,0.9029993815708102
697,1.4314494364953134e-05,1.0,0.5558156967163086,0.9029993815708102
698,1.4247430044633802e-05,1.0,0.5630318522453308,0.8975048760763047
699,1.4381545952346642e-05,1.0,0.557104229927063,0.9029993815708102
700,1.4037751498108264e-05,1.0,0.5626943111419678,0.9029993815708102
701,1.407501804351341e-05,1.0,0.557041585445404,0.8887136672850959
702,1.3952602785138879e-05,1.0,0.5676144361495972,0.8975048760763047
703,1.416016402799869e-05,1.0,0.5561732649803162,0.9029993815708102
704,1.3925988241680898e-05,1.0,0.5663800835609436,0.8975048760763047
705,1.4135682249616366e-05,1.0,0.5550122857093811,0.8887136672850959
706,1.393024194840109e-05,1.0,0.5699835419654846,0.8975048760763047
707,1.4122910215519369e-05,1.0,0.5539808869361877,0.8887136672850959
708,1.3806776223646011e-05,1.0,0.569010853767395,0.8975048760763047
709,1.4170805116009433e-05,1.0,0.5553044676780701,0.8887136672850959
710,1.3703534023079555e-05,1.0,0.5680539011955261,0.8975048760763047
711,1.3825962923874613e-05,1.0,0.5553048253059387,0.8887136672850959
712,1.3356570889300201e-05,1.0,0.5706568956375122,0.8975048760763047
713,1.3365102859097533e-05,1.0,0.5597832798957825,0.8887136672850959
714,1.3117101843818091e-05,1.0,0.5649975538253784,0.9029993815708102
715,1.328421330981655e-05,1.0,0.5611484050750732,0.9029993815708102
716,1.2973417142347898e-05,1.0,0.5652855634689331,0.9029993815708102
717,1.2939366570208222e-05,1.0,0.562533974647522,0.9029993815708102
718,1.2770133253070526e-05,1.0,0.5658468008041382,0.9029993815708102
719,1.2779715689248405e-05,1.0,0.5639556646347046,0.9029993815708102
720,1.270627308258554e-05,1.0,0.5640076994895935,0.9029993815708102
721,1.2789293577952776e-05,1.0,0.5636908411979675,0.9029993815708102
722,1.2626444913621526e-05,1.0,0.5652034878730774,0.9029993815708102
723,1.2528529623523355e-05,1.0,0.5634418725967407,0.9029993815708102
724,1.2394420082273427e-05,1.0,0.5665055513381958,0.9029993815708102
725,1.2336948202573694e-05,1.0,0.5672945380210876,0.9029993815708102
726,1.232736849487992e-05,1.0,0.5671631693840027,0.9029993815708102
727,1.2358235835563391e-05,1.0,0.5641724467277527,0.9029993815708102
728,1.2301823517191224e-05,1.0,0.5657333731651306,0.9029993815708102
729,1.2340141438471619e-05,1.0,0.5664523243904114,0.9029993815708102
730,1.2190065717732068e-05,1.0,0.5646873712539673,0.9029993815708102
731,1.2091084499843419e-05,1.0,0.5656247735023499,0.9029993815708102
732,1.198784048028756e-05,1.0,0.5679290890693665,0.8887136672850959
733,1.197507208416937e-05,1.0,0.568257749080658,0.9029993815708102
734,1.1935686416109093e-05,1.0,0.5695791840553284,0.8975048760763047
735,1.2016581422358286e-05,1.0,0.5633212327957153,0.9029993815708102
736,1.1922913472517394e-05,1.0,0.5699338316917419,0.8975048760763047
737,1.1916532457689755e-05,1.0,0.5644614100456238,0.9029993815708102
738,1.1740909030777402e-05,1.0,0.5712647438049316,0.8975048760763047
739,1.177710419142386e-05,1.0,0.5654129981994629,0.8887136672850959
740,1.1752615137083922e-05,1.0,0.5743032097816467,0.8975048760763047
741,1.1898439879587386e-05,1.0,0.562349796295166,0.8887136672850959
742,1.1773897313105408e-05,1.0,0.5754160284996033,0.8975048760763047
743,1.1865444321301766e-05,1.0,0.5617766380310059,0.8887136672850959
744,1.1684488526952919e-05,1.0,0.5758611559867859,0.8975048760763047
745,1.1989970516879112e-05,1.0,0.5612665414810181,0.8887136672850959
746,1.1814331628556829e-05,1.0,0.5845364332199097,0.8975048760763047
747,1.2107047950848937e-05,1.0,0.5612801909446716,0.8887136672850959
748,1.1713220374076627e-05,1.0,0.5742653608322144,0.8975048760763047
749,1.2182616956124548e-05,1.0,0.562881588935852,0.8887136672850959
750,1.1387535778339952e-05,1.0,0.5802311301231384,0.8975048760763047
751,1.130985765485093e-05,1.0,0.5669189095497131,0.8810606060606061
752,1.1066114893765189e-05,1.0,0.5810696482658386,0.8975048760763047
753,1.1247061593167018e-05,1.0,0.5670052766799927,0.8887136672850959
754,1.0980967999785207e-05,1.0,0.5748102068901062,0.8975048760763047
755,1.0994811418640893e-05,1.0,0.5670907497406006,0.8887136672850959
756,1.0774487236631103e-05,1.0,0.5753402709960938,0.8975048760763047
757,1.0773427675303537e-05,1.0,0.5708448886871338,0.8887136672850959
758,1.06691177279572e-05,1.0,0.5740451812744141,0.8887136672850959
759,1.0738303899415769e-05,1.0,0.5723447799682617,0.8975048760763047
760,1.0643574569257908e-05,1.0,0.5720945596694946,0.9029993815708102
761,1.0606323485262692e-05,1.0,0.5703171491622925,0.9029993815708102
762,1.0509465937502682e-05,1.0,0.5729856491088867,0.9029993815708102
763,1.0426449080114253e-05,1.0,0.5730599164962769,0.9029993815708102
764,1.0351944183639716e-05,1.0,0.5749534368515015,0.9029993815708102
765,1.0309371646144427e-05,1.0,0.5733736157417297,0.8887136672850959
766,1.0311498954251874e-05,1.0,0.5764132738113403,0.8975048760763047
767,1.0341302186134271e-05,1.0,0.5710309147834778,0.8887136672850959
768,1.0314690371160395e-05,1.0,0.5734168887138367,0.8975048760763047
769,1.0262540854455438e-05,1.0,0.5722177624702454,0.8975048760763047
770,1.0147589819098357e-05,1.0,0.5735188722610474,0.9029993815708102
771,1.0036898856924381e-05,1.0,0.5741024017333984,0.9029993815708102
772,9.98368068394484e-06,1.0,0.5763097405433655,0.8887136672850959
773,9.940043128153775e-06,1.0,0.5757246613502502,0.8887136672850959
774,9.907045750878751e-06,1.0,0.577659547328949,0.8791898577612862
775,9.88788997347001e-06,1.0,0.5762558579444885,0.8887136672850959
776,9.900660188577604e-06,1.0,0.5754525065422058,0.8975048760763047
777,9.956008398148697e-06,1.0,0.5743198990821838,0.8975048760763047
778,9.902788406179752e-06,1.0,0.5752412676811218,0.8975048760763047
779,9.803806278796401e-06,1.0,0.5742330551147461,0.9029993815708102
780,9.687790225143544e-06,1.0,0.576235294342041,0.8791898577612862
781,9.63883303484181e-06,1.0,0.5759361386299133,0.8887136672850959
782,9.570712791173719e-06,1.0,0.5803832411766052,0.8791898577612862
783,9.537719961372204e-06,1.0,0.5757579207420349,0.8887136672850959
784,9.503659384790808e-06,1.0,0.5817702412605286,0.8791898577612862
785,9.47705120779574e-06,1.0,0.5764886140823364,0.8887136672850959
786,9.500465239398181e-06,1.0,0.5793219804763794,0.8791898577612862
787,9.638832125347108e-06,1.0,0.5760360360145569,0.8975048760763047
788,9.55048653850099e-06,1.0,0.5761466026306152,0.8975048760763047
789,9.516433237877209e-06,1.0,0.5724261403083801,0.9029993815708102
790,9.356774171465077e-06,1.0,0.5823244452476501,0.8791898577612862
791,9.429155397810973e-06,1.0,0.5729790329933167,0.8887136672850959
792,9.433405466552358e-06,1.0,0.587795615196228,0.8975048760763047
793,9.5590066848672e-06,1.0,0.569148600101471,0.8887136672850959
794,9.44510793488007e-06,1.0,0.5891828536987305,0.8975048760763047
795,9.714397492643911e-06,1.0,0.57023686170578,0.8810606060606061
796,9.670742656453513e-06,1.0,0.5890951156616211,0.8975048760763047
797,1.0441342055855785e-05,1.0,0.5709407925605774,0.8887136672850959
798,9.773971214599442e-06,1.0,0.5930753946304321,0.8975048760763047
799,1.0114589713339228e-05,1.0,0.5738802552223206,0.8963667285095855
800,9.672871783550363e-06,1.0,0.6050567626953125,0.9076780362494647
801,1.0261473107675556e-05,1.0,0.5779765248298645,0.8887136672850959
802,9.134319043369032e-06,1.0,0.5767861008644104,0.9029993815708102
803,9.321659490524326e-06,1.0,0.580858051776886,0.8887136672850959
804,9.083237273443956e-06,1.0,0.5916756391525269,0.9076780362494647
805,8.837377208692487e-06,1.0,0.5785037875175476,0.8887136672850959
806,8.595768122177105e-06,1.0,0.5834730863571167,0.8975048760763047
807,8.615993465355132e-06,1.0,0.5814372897148132,0.8887136672850959
808,8.562774382880889e-06,1.0,0.5841730237007141,0.8791898577612862
809,8.61386342876358e-06,1.0,0.5811055302619934,0.8975048760763047
810,8.553195584681816e-06,1.0,0.5806101560592651,0.8791898577612862
811,8.451016583421733e-06,1.0,0.5828374624252319,0.8975048760763047
812,8.389285540033597e-06,1.0,0.5825433135032654,0.8887136672850959
813,8.315845661854837e-06,1.0,0.5834203362464905,0.8887136672850959
814,8.321168024849612e-06,1.0,0.5846880078315735,0.8791898577612862
815,8.313717444252688e-06,1.0,0.5833190679550171,0.8791898577612862
816,8.3722552517429e-06,1.0,0.5831764340400696,0.8975048760763047
817,8.278592758870218e-06,1.0,0.5813546180725098,0.8791898577612862
818,8.195573172997683e-06,1.0,0.5828803181648254,0.8791898577612862
819,8.13490532891592e-06,1.0,0.5840201377868652,0.8791898577612862
820,8.081687155936379e-06,1.0,0.5848792195320129,0.8791898577612862
821,8.045500180742238e-06,1.0,0.5860607028007507,0.8791898577612862
822,8.031662218854763e-06,1.0,0.5849505662918091,0.8791898577612862
823,8.008247277757619e-06,1.0,0.5861074328422546,0.8791898577612862
824,7.963544703670777e-06,1.0,0.584255039691925,0.8791898577612862
825,7.994410225364845e-06,1.0,0.5870746374130249,0.8791898577612862
826,8.06572370493086e-06,1.0,0.582673966884613,0.8791898577612862
827,7.99760346126277e-06,1.0,0.5840619206428528,0.8791898577612862
828,7.881589226599317e-06,1.0,0.5820941925048828,0.8791898577612862
829,7.809213457221631e-06,1.0,0.5885594487190247,0.8791898577612862
830,7.73364445194602e-06,1.0,0.5863642692565918,0.8887136672850959
831,7.717679181951098e-06,1.0,0.5890095829963684,0.8791898577612862
832,7.699585694354028e-06,1.0,0.5867174863815308,0.8791898577612862
833,7.728322998445947e-06,1.0,0.5889688730239868,0.8791898577612862
834,7.793248187226709e-06,1.0,0.5854644775390625,0.8791898577612862
835,7.727258889644872e-06,1.0,0.5854859352111816,0.8791898577612862
836,7.6229516707826406e-06,1.0,0.5830757021903992,0.8791898577612862
837,7.568670298496727e-06,1.0,0.5885787606239319,0.8791898577612862
838,7.481393367925193e-06,1.0,0.5876908898353577,0.8791898577612862
839,7.455848844983848e-06,1.0,0.5895164608955383,0.8791898577612862
840,7.4228541961929295e-06,1.0,0.5893540382385254,0.8791898577612862
841,7.414339506794931e-06,1.0,0.590143620967865,0.8791898577612862
842,7.420724614348728e-06,1.0,0.5879238247871399,0.8791898577612862
843,7.52290270611411e-06,1.0,0.5889202356338501,0.8791898577612862
844,7.478199222532567e-06,1.0,0.5845946669578552,0.8791898577612862
845,7.363249551417539e-06,1.0,0.5879846215248108,0.8791898577612862
846,7.260007805598434e-06,1.0,0.5877031683921814,0.8791898577612862
847,7.202531833172543e-06,1.0,0.591547429561615,0.8791898577612862
848,7.179116892075399e-06,1.0,0.5912749171257019,0.8791898577612862
849,7.1769877649785485e-06,1.0,0.5904858708381653,0.8791898577612862
850,7.189760253822897e-06,1.0,0.5903075337409973,0.8791898577612862
851,7.282359092641855e-06,1.0,0.5913991332054138,0.8791898577612862
852,7.203596851468319e-06,1.0,0.5866872668266296,0.8791898577612862
853,7.097161415003939e-06,1.0,0.5887404680252075,0.8791898577612862
854,7.014141829131404e-06,1.0,0.591978907585144,0.8791898577612862
855,6.966246019146638e-06,1.0,0.5915997624397278,0.8791898577612862
856,6.942830168554792e-06,1.0,0.5925371050834656,0.8791898577612862
857,6.931123152753571e-06,1.0,0.5920813679695129,0.8791898577612862
858,6.928992661414668e-06,1.0,0.5951353907585144,0.8791898577612862
859,6.9204793362587225e-06,1.0,0.5896500945091248,0.8791898577612862
860,7.010947683738777e-06,1.0,0.5944940447807312,0.8791898577612862
861,7.016270956228254e-06,1.0,0.5862752795219421,0.8791898577612862
862,6.935377314221114e-06,1.0,0.5943604111671448,0.8791898577612862
863,6.9641173467971385e-06,1.0,0.5861392617225647,0.8887136672850959
864,6.878964541101595e-06,1.0,0.5993093252182007,0.8791898577612862
865,7.056715276121395e-06,1.0,0.583496630191803,0.8887136672850959
866,7.05457887306693e-06,1.0,0.6036197543144226,0.8791898577612862
867,7.536734301538672e-06,1.0,0.5819854736328125,0.8810606060606061
868,7.738939530099742e-06,1.0,0.6119076013565063,0.8893630179344465
869,9.115143257076852e-06,1.0,0.590941309928894,0.8963667285095855
870,9.159804903902113e-06,1.0,0.5867546796798706,0.8791898577612862
871,1.1806830116256606e-05,1.0,0.640796959400177,0.9023191094619667
872,1.382663867843803e-05,1.0,0.7917916178703308,0.8692890442890443
873,1.6533522284589708e-05,1.0,0.6069368124008179,0.9023191094619667
874,1.2558228263515048e-05,1.0,0.5601330995559692,0.8751082251082251
875,1.036041066981852e-05,1.0,0.5948861241340637,0.8791898577612862
876,9.181149835058022e-06,1.0,0.5706998705863953,0.8791898577612862
877,8.192372661142144e-06,1.0,0.5787017941474915,0.8791898577612862
878,7.4058193604287226e-06,1.0,0.564430296421051,0.9029993815708102
879,6.957729510759236e-06,1.0,0.5782750248908997,0.8887136672850959
880,6.801270501455292e-06,1.0,0.6029077172279358,0.8975048760763047
881,6.5405029090470634e-06,1.0,0.5835433602333069,0.9029993815708102
882,6.421296802727738e-06,1.0,0.5980373024940491,0.8975048760763047
883,6.32444016446243e-06,1.0,0.593743622303009,0.8975048760763047
884,6.255256721487967e-06,1.0,0.5966160893440247,0.8975048760763047
885,6.1839455156587064e-06,1.0,0.5964959263801575,0.8975048760763047
886,6.125405434431741e-06,1.0,0.5966439843177795,0.8975048760763047
887,6.103054602135671e-06,1.0,0.5948026776313782,0.8791898577612862
888,6.048771865607705e-06,1.0,0.5984635353088379,0.8975048760763047
889,6.026421488058986e-06,1.0,0.5949129462242126,0.8791898577612862
890,5.979588422633242e-06,1.0,0.5994616746902466,0.8791898577612862
891,5.961494935036171e-06,1.0,0.5958303809165955,0.8791898577612862
892,5.922112904954702e-06,1.0,0.5991132855415344,0.8791898577612862
893,5.897633400309132e-06,1.0,0.5960983037948608,0.8791898577612862
894,5.866766969120363e-06,1.0,0.6003053784370422,0.8791898577612862
895,5.843351118528517e-06,1.0,0.5957355499267578,0.8791898577612862
896,5.815677923237672e-06,1.0,0.6015531420707703,0.8791898577612862
897,5.7975839808932506e-06,1.0,0.5961095094680786,0.8791898577612862
898,5.778425020253053e-06,1.0,0.6019182205200195,0.8791898577612862
899,5.766717549704481e-06,1.0,0.5958744287490845,0.8791898577612862
900,5.747558589064283e-06,1.0,0.6014527678489685,0.8791898577612862
901,5.710306595574366e-06,1.0,0.5969964861869812,0.8791898577612862
902,5.6794392548908945e-06,1.0,0.6046718955039978,0.8791898577612862
903,5.65815298614325e-06,1.0,0.5963758826255798,0.8791898577612862
904,5.648573278449476e-06,1.0,0.6064355969429016,0.8791898577612862
905,5.6485741879441775e-06,1.0,0.5961557626724243,0.8887136672850959
906,5.638993116008351e-06,1.0,0.6092690229415894,0.8791898577612862
907,5.677311037288746e-06,1.0,0.5951116681098938,0.8887136672850959
908,5.618769591819728e-06,1.0,0.6113412976264954,0.8791898577612862
909,5.7241427384724375e-06,1.0,0.5927641987800598,0.8887136672850959
910,5.668792709911941e-06,1.0,0.6142982244491577,0.8791898577612862
911,5.835900083184242e-06,1.0,0.5932158827781677,0.8810606060606061
912,5.702851012756582e-06,1.0,0.616271436214447,0.8791898577612862
913,5.87315207667416e-06,1.0,0.5940748453140259,0.8810606060606061
914,5.746489023294998e-06,1.0,0.612605094909668,0.8975048760763047
915,5.964686806692043e-06,1.0,0.5961846113204956,0.8887136672850959
916,5.599608357442776e-06,1.0,0.6136518716812134,0.8975048760763047
917,5.63154435440083e-06,1.0,0.5989356637001038,0.8810606060606061
918,5.406961918197339e-06,1.0,0.6112534403800964,0.8975048760763047
919,5.486792360898107e-06,1.0,0.6008296012878418,0.8791898577612862
920,5.309042080625659e-06,1.0,0.6093513369560242,0.8791898577612862
921,5.340974894352257e-06,1.0,0.6010554432868958,0.8791898577612862
922,5.224958840699401e-06,1.0,0.6118584275245667,0.8791898577612862
923,5.219637841946678e-06,1.0,0.6019778847694397,0.8791898577612862
924,5.168548341316637e-06,1.0,0.6090218424797058,0.8791898577612862
925,5.174934813112486e-06,1.0,0.6018006205558777,0.8791898577612862
926,5.156839506526012e-06,1.0,0.6088932752609253,0.8791898577612862
927,5.162162324268138e-06,1.0,0.6013914346694946,0.8791898577612862
928,5.11426560478867e-06,1.0,0.6104677319526672,0.8791898577612862
929,5.105751824885374e-06,1.0,0.601615846157074,0.8791898577612862
930,5.079141374153551e-06,1.0,0.6119131445884705,0.8791898577612862
931,5.101494480186375e-06,1.0,0.6018897891044617,0.8791898577612862
932,5.077012701804051e-06,1.0,0.6146832704544067,0.8791898577612862
933,5.111073278385447e-06,1.0,0.5998660326004028,0.8791898577612862
934,5.038694780523656e-06,1.0,0.6166362166404724,0.8791898577612862
935,5.119588422530796e-06,1.0,0.5998167991638184,0.8810606060606061
936,5.045080342824804e-06,1.0,0.6207357048988342,0.8791898577612862
937,5.161098215467064e-06,1.0,0.5997605919837952,0.8887136672850959
938,5.05785192217445e-06,1.0,0.6201944351196289,0.8791898577612862
939,5.190900083107408e-06,1.0,0.5996294021606445,0.8810606060606061
940,5.0599805945239495e-06,1.0,0.6232026219367981,0.8791898577612862
941,5.224959295446752e-06,1.0,0.6002535820007324,0.8810606060606061
942,5.101489023218164e-06,1.0,0.6189746856689453,0.8791898577612862
943,5.306914772518212e-06,1.0,0.5999523997306824,0.8887136672850959
944,5.0269850362383295e-06,1.0,0.6229068040847778,0.8975048760763047
945,5.03656792716356e-06,1.0,0.6034597158432007,0.8810606060606061
946,4.884362624579808e-06,1.0,0.613946795463562,0.8791898577612862
947,5.041890290158335e-06,1.0,0.6069695353507996,0.8791898577612862
948,4.793892003362998e-06,1.0,0.612348198890686,0.8791898577612862
949,4.809860001842026e-06,1.0,0.6073569655418396,0.8791898577612862
950,4.661912953451974e-06,1.0,0.6161022782325745,0.8791898577612862
951,4.707681910076644e-06,1.0,0.6075274348258972,0.8791898577612862
952,4.6342397581611294e-06,1.0,0.6152249574661255,0.8791898577612862
953,4.643819465854904e-06,1.0,0.6072202920913696,0.8791898577612862
954,4.57889336757944e-06,1.0,0.6155804395675659,0.8791898577612862
955,4.601245564117562e-06,1.0,0.6071898341178894,0.8791898577612862
956,4.540576355793746e-06,1.0,0.6168731451034546,0.8791898577612862
957,4.542706392385298e-06,1.0,0.6077628135681152,0.8791898577612862
958,4.49055141871213e-06,1.0,0.6160596609115601,0.8791898577612862
959,4.511839506449178e-06,1.0,0.6083394289016724,0.8791898577612862
960,4.502259798755404e-06,1.0,0.6180803179740906,0.8791898577612862
961,4.511839506449178e-06,1.0,0.6072940230369568,0.8791898577612862
962,4.483100838115206e-06,1.0,0.6181117296218872,0.8791898577612862
963,4.490552328206832e-06,1.0,0.6066641807556152,0.8791898577612862
964,4.4362686821841635e-06,1.0,0.6206656694412231,0.8791898577612862
965,4.435205937625142e-06,1.0,0.6089290380477905,0.8791898577612862
966,4.401144451549044e-06,1.0,0.6209539771080017,0.8791898577612862
967,4.465007805265486e-06,1.0,0.6065518260002136,0.8791898577612862
968,4.433074991538888e-06,1.0,0.6259255409240723,0.8791898577612862
969,4.475651167012984e-06,1.0,0.605024516582489,0.8887136672850959
970,4.3947575250058435e-06,1.0,0.6266230344772339,0.8791898577612862
971,4.504388471104903e-06,1.0,0.6055131554603577,0.8810606060606061
972,4.435202754393686e-06,1.0,0.6287521123886108,0.8791898577612862
973,4.6225318328652065e-06,1.0,0.6054120659828186,0.8810606060606061
974,4.541636826616013e-06,1.0,0.6312626004219055,0.8791898577612862
975,4.774734406964853e-06,1.0,0.6040366888046265,0.8810606060606061
976,4.766213351103943e-06,1.0,0.6247802972793579,0.8893630179344465
977,5.233469892118592e-06,1.0,0.6103339791297913,0.8858225108225108
978,5.061036517872708e-06,1.0,0.6294737458229065,0.9076780362494647
979,5.66453445571824e-06,1.0,0.6191771626472473,0.8963667285095855
980,5.128090833750321e-06,1.0,0.6433085799217224,0.8949383949383949
981,5.2004793360538315e-06,1.0,0.6168977618217468,0.8963667285095855
982,4.550153335003415e-06,1.0,0.6562743186950684,0.8949383949383949
983,4.510774942900753e-06,1.0,0.613941490650177,0.8810606060606061
984,4.19253001382458e-06,1.0,0.6240333318710327,0.8975048760763047
985,4.173372872173786e-06,1.0,0.6145051121711731,0.8715367965367966
986,4.11909013564582e-06,1.0,0.6182283163070679,0.8791898577612862
987,4.072258434462128e-06,1.0,0.615280032157898,0.8791898577612862
988,4.038199222122785e-06,1.0,0.6153610348701477,0.8791898577612862
989,3.9722085602988955e-06,1.0,0.6171392798423767,0.8791898577612862
990,3.955179181502899e-06,1.0,0.6146577596664429,0.8791898577612862
991,3.928570095013129e-06,1.0,0.6200653314590454,0.8791898577612862
992,3.923248186765704e-06,1.0,0.6149725317955017,0.8791898577612862
993,3.927505531464703e-06,1.0,0.6185933947563171,0.8791898577612862
994,3.8955745367275085e-06,1.0,0.6152607798576355,0.8791898577612862
995,3.864708105538739e-06,1.0,0.6200419068336487,0.8791898577612862
996,3.840228146145819e-06,1.0,0.6162761449813843,0.8791898577612862
997,3.83384212909732e-06,1.0,0.620198667049408,0.8791898577612862
998,3.821070095000323e-06,1.0,0.6171765923500061,0.8791898577612862
999,3.818940513156122e-06,1.0,0.6202587485313416,0.8791898577612862
