,loss,recall,val_loss,val_recall
0,0.5282593965530396,0.7739999890327454,1.4318602085113525,0.0
1,0.2557629644870758,0.9319999814033508,1.4494940042495728,0.0
2,0.20803247392177582,0.9319999814033508,1.4448761940002441,0.0
3,0.18144983053207397,0.9380000233650208,1.5176054239273071,0.0
4,0.16382117569446564,0.9459999799728394,1.6078259944915771,0.0
5,0.15075519680976868,0.9559999704360962,1.6181185245513916,0.0
6,0.12710422277450562,0.9620000123977661,1.641144871711731,0.0
7,0.12169212847948074,0.9620000123977661,1.6798386573791504,0.0
8,0.11877035349607468,0.9639999866485596,1.6285862922668457,0.0
9,0.11294630169868469,0.9580000042915344,1.61383056640625,0.0
10,0.11616615206003189,0.9639999866485596,1.6811555624008179,0.0
11,0.13904766738414764,0.9599999785423279,1.5136592388153076,0.0
12,0.09887067973613739,0.9639999866485596,1.3638619184494019,0.0
13,0.09029258787631989,0.9679999947547913,1.2289336919784546,0.004888888914138079
14,0.07870090007781982,0.972000002861023,1.445614218711853,0.02266666665673256
15,0.10021649301052094,0.9679999947547913,1.328755259513855,0.005333333276212215
16,0.07947016507387161,0.9760000109672546,1.0534899234771729,0.06911110877990723
17,0.07907262444496155,0.9700000286102295,1.0543571710586548,0.25022223591804504
18,0.06167877838015556,0.9739999771118164,0.9009616374969482,0.23955555260181427
19,0.08411253988742828,0.9739999771118164,1.1385548114776611,0.31333333253860474
20,0.07470741122961044,0.984000027179718,0.7537648677825928,0.5251111388206482
21,0.0679115280508995,0.9800000190734863,0.9021117687225342,0.30399999022483826
22,0.060324668884277344,0.9860000014305115,0.5009049773216248,0.8571110963821411
23,0.05353446304798126,0.9819999933242798,0.7684919834136963,0.5820000171661377
24,0.04404223710298538,0.9879999756813049,0.7692870497703552,0.5346666574478149
25,0.05095558986067772,0.9819999933242798,0.6075533628463745,0.762666642665863
26,0.05327024683356285,0.984000027179718,0.3861235976219177,0.8991110920906067
27,0.05726659297943115,0.984000027179718,0.6453917026519775,0.714888870716095
28,0.04413384571671486,0.9860000014305115,0.3803531229496002,0.8908888697624207
29,0.045402996242046356,0.9900000095367432,0.3236033022403717,0.918666660785675
30,0.07973679155111313,0.9800000190734863,0.3242211639881134,0.9242222309112549
31,0.09441924840211868,0.9700000286102295,0.4167056381702423,0.8871111273765564
32,0.07164419442415237,0.9739999771118164,0.4182140529155731,0.8877778053283691
33,0.06635086238384247,0.9819999933242798,0.4717909097671509,0.9182222485542297
34,0.07945138216018677,0.972000002861023,0.3579707145690918,0.9228888750076294
35,0.0686446875333786,0.9819999933242798,0.40058770775794983,0.913777768611908
36,0.043669216334819794,0.9860000014305115,0.26533082127571106,0.9393333196640015
37,0.05177517235279083,0.9860000014305115,0.4474160671234131,0.8508889079093933
38,0.033768072724342346,0.9940000176429749,0.2935754656791687,0.9402222037315369
39,0.031495608389377594,0.9900000095367432,0.33260565996170044,0.9271110892295837
40,0.03373006358742714,0.9879999756813049,0.36187276244163513,0.9304444193840027
41,0.03928769752383232,0.984000027179718,0.30999672412872314,0.9351111054420471
42,0.03317753225564957,0.9900000095367432,0.28653836250305176,0.9215555787086487
43,0.031852103769779205,0.9900000095367432,0.3314988911151886,0.9364444613456726
44,0.0223346296697855,0.9959999918937683,0.3020694851875305,0.9231111407279968
45,0.021450482308864594,0.9959999918937683,0.2710466980934143,0.9182222485542297
46,0.019592199474573135,0.9959999918937683,0.34288913011550903,0.9366666674613953
47,0.022552985697984695,0.9940000176429749,0.3051096200942993,0.9397777915000916
48,0.02073286846280098,0.9919999837875366,0.33298805356025696,0.9328888654708862
49,0.015579590573906898,0.9980000257492065,0.2948390245437622,0.9311110973358154
50,0.012860258109867573,0.9980000257492065,0.3056255877017975,0.9197777509689331
51,0.011852916330099106,0.9980000257492065,0.2924058735370636,0.9346666932106018
52,0.008650780655443668,0.9980000257492065,0.3247825801372528,0.9113333225250244
53,0.009159965440630913,0.9980000257492065,0.302570104598999,0.9286666512489319
54,0.006917450111359358,0.9980000257492065,0.3074282705783844,0.9248889088630676
55,0.007975575514137745,1.0,0.3036371171474457,0.9315555691719055
56,0.007192191202193499,0.9980000257492065,0.3005828857421875,0.9366666674613953
57,0.005000466946512461,1.0,0.33830487728118896,0.9371111392974854
58,0.003017923329025507,1.0,0.3273333013057709,0.9340000152587891
59,0.0024923786986619234,1.0,0.3204425573348999,0.9304444193840027
60,0.0033531798981130123,1.0,0.3289409577846527,0.9357777833938599
61,0.002299362560734153,1.0,0.32719120383262634,0.9340000152587891
62,0.0011850878363475204,1.0,0.331133633852005,0.9293333292007446
63,0.0013428234960883856,1.0,0.3202194273471832,0.9275555610656738
64,0.0010331044904887676,1.0,0.3254005014896393,0.9324444532394409
65,0.000815459294244647,1.0,0.34277093410491943,0.9362221956253052
66,0.0009106746292673051,1.0,0.3475765883922577,0.933555543422699
67,0.0012692781165242195,1.0,0.3460012376308441,0.9306666851043701
68,0.0008625859045423567,1.0,0.35510873794555664,0.93022221326828
69,0.0004905101377516985,1.0,0.3587755262851715,0.9317777752876282
70,0.0008002264075912535,1.0,0.3610563278198242,0.9315555691719055
71,0.0004859078035224229,1.0,0.36396324634552,0.9315555691719055
72,0.000522349146194756,1.0,0.3661298155784607,0.9322222471237183
73,0.00038998769014142454,1.0,0.3688138425350189,0.9322222471237183
74,0.00042714845039881766,1.0,0.3717888593673706,0.9324444532394409
75,0.000528833013959229,1.0,0.37098392844200134,0.9326666593551636
76,0.0005703463102690876,1.0,0.37645596265792847,0.9333333373069763
77,0.0005782570224255323,1.0,0.3840036690235138,0.9337777495384216
78,0.00045484077418223023,1.0,0.3801361918449402,0.9317777752876282
79,0.0005167810595594347,1.0,0.38066795468330383,0.9313333630561829
80,0.000589171308092773,1.0,0.3828830420970917,0.9322222471237183
81,0.0005499067483469844,1.0,0.38781073689460754,0.9322222471237183
82,0.0003903536999132484,1.0,0.38473162055015564,0.9315555691719055
83,0.0004033558943774551,1.0,0.3863295316696167,0.9324444532394409
84,0.00027156996657140553,1.0,0.38934579491615295,0.9319999814033508
85,0.0005688827950507402,1.0,0.3943370580673218,0.9331111311912537
86,0.0002892175398301333,1.0,0.3982101380825043,0.9328888654708862
87,0.0004108150606043637,1.0,0.3982805013656616,0.9328888654708862
88,0.00031092320568859577,1.0,0.4012312889099121,0.9331111311912537
89,0.00028327025938779116,1.0,0.4067781865596771,0.9333333373069763
90,0.0002145141043001786,1.0,0.40720683336257935,0.9326666593551636
91,0.00029180306592024863,1.0,0.4081212878227234,0.9333333373069763
92,0.00030425534350797534,1.0,0.40484172105789185,0.9322222471237183
93,0.0003297202056273818,1.0,0.4027974605560303,0.9324444532394409
94,0.00028844797634519637,1.0,0.4060744345188141,0.9328888654708862
95,0.0003561643825378269,1.0,0.4072704017162323,0.9337777495384216
96,0.00034369659260846674,1.0,0.4056379795074463,0.9311110973358154
97,0.0003244450781494379,1.0,0.4078170657157898,0.9313333630561829
98,0.00030812775366939604,1.0,0.4114835858345032,0.9328888654708862
99,0.0002747502876445651,1.0,0.41074737906455994,0.9333333373069763
100,0.00040590224671177566,1.0,0.40711450576782227,0.9346666932106018
101,0.0002141501900041476,1.0,0.40701645612716675,0.9342222213745117
102,0.00018991073011420667,1.0,0.41106730699539185,0.9340000152587891
103,0.0001854569127317518,1.0,0.41258588433265686,0.933555543422699
104,0.00023969465109985322,1.0,0.4171011745929718,0.9340000152587891
105,0.0002502465504221618,1.0,0.42465755343437195,0.9344444274902344
106,0.00019901171617675573,1.0,0.42832082509994507,0.9344444274902344
107,0.0001936165353981778,1.0,0.4222860634326935,0.9331111311912537
108,0.00017917060176841915,1.0,0.42365700006484985,0.9324444532394409
109,0.00021253287559375167,1.0,0.4281109571456909,0.9337777495384216
110,0.0003319184761494398,1.0,0.4347103238105774,0.9340000152587891
111,0.00020912014588247985,1.0,0.42424145340919495,0.9346666932106018
112,0.00019372141105122864,1.0,0.4194941818714142,0.9328888654708862
113,0.00022315896057989448,1.0,0.42028361558914185,0.9346666932106018
114,0.0002461743133608252,1.0,0.42798948287963867,0.9344444274902344
115,0.00012925323972012848,1.0,0.42895328998565674,0.933555543422699
116,0.0001800540048861876,1.0,0.428765207529068,0.9331111311912537
117,0.00015308747242670506,1.0,0.4316440224647522,0.9326666593551636
118,0.0002591038937680423,1.0,0.4323195219039917,0.9331111311912537
119,0.00029072986217215657,1.0,0.42657384276390076,0.9306666851043701
120,0.0002833607723005116,1.0,0.42079949378967285,0.929111123085022
121,0.0002877947990782559,1.0,0.43908315896987915,0.9344444274902344
122,0.00021715456387028098,1.0,0.4411602020263672,0.9340000152587891
123,0.00013831105025019497,1.0,0.4411584138870239,0.9340000152587891
124,0.0002592235105112195,1.0,0.432393342256546,0.9308888912200928
125,0.00020974503422621638,1.0,0.44330692291259766,0.9211111068725586
126,0.00023810572747606784,1.0,0.4337407052516937,0.9322222471237183
127,0.0003088353550992906,1.0,0.43694859743118286,0.9346666932106018
128,0.00019301657448522747,1.0,0.44020596146583557,0.9342222213745117
129,0.000130511776660569,1.0,0.44127005338668823,0.9328888654708862
130,0.00011622167949099094,1.0,0.44569095969200134,0.9337777495384216
131,0.00014707517402712256,1.0,0.4443514049053192,0.9340000152587891
132,0.00019645999418571591,1.0,0.43907609581947327,0.9337777495384216
133,0.00018179736798629165,1.0,0.437519907951355,0.9328888654708862
134,0.00019907763635274023,1.0,0.4396326541900635,0.9326666593551636
135,0.00015566128422506154,1.0,0.4440419673919678,0.9324444532394409
136,8.993578376248479e-05,1.0,0.4488556385040283,0.9322222471237183
137,0.0001203111678478308,1.0,0.45171982049942017,0.9319999814033508
138,0.00011455896310508251,1.0,0.4537627398967743,0.9324444532394409
139,0.00013906734238844365,1.0,0.4483712911605835,0.9317777752876282
140,8.901645196601748e-05,1.0,0.44856080412864685,0.9322222471237183
141,0.00016824413614813238,1.0,0.45371654629707336,0.9322222471237183
142,0.00014818090130575,1.0,0.45823556184768677,0.9326666593551636
143,0.00020224145555403084,1.0,0.45278334617614746,0.9328888654708862
144,0.00012701381638180465,1.0,0.45686593651771545,0.9355555772781372
145,0.00012433908705133945,1.0,0.4496282935142517,0.9333333373069763
146,0.00020561134442687035,1.0,0.4513481557369232,0.9337777495384216
147,0.0001773016556398943,1.0,0.45475250482559204,0.9342222213745117
148,0.00011939943942707032,1.0,0.45276832580566406,0.933555543422699
149,0.00010980165097862482,1.0,0.4565080404281616,0.9337777495384216
150,0.0001046890247380361,1.0,0.45910295844078064,0.9331111311912537
151,0.00010734465467976406,1.0,0.46414870023727417,0.933555543422699
152,0.00013296229008119553,1.0,0.4568818211555481,0.9317777752876282
153,0.00014790160639677197,1.0,0.4491655230522156,0.9326666593551636
154,0.00011337069736327976,1.0,0.4520273208618164,0.933555543422699
155,0.00011447908036643639,1.0,0.4542747735977173,0.9324444532394409
156,0.00015300406084861606,1.0,0.46189311146736145,0.9333333373069763
157,0.0001406453229719773,1.0,0.4615342915058136,0.9333333373069763
158,6.817394023528323e-05,1.0,0.45935145020484924,0.9333333373069763
159,0.0001094800463761203,1.0,0.45594966411590576,0.933555543422699
160,0.00012149951362516731,1.0,0.45818376541137695,0.9328888654708862
161,0.00011556811659829691,1.0,0.4580914080142975,0.9331111311912537
162,8.967854228103533e-05,1.0,0.4646731913089752,0.9333333373069763
163,6.860274152131751e-05,1.0,0.46368566155433655,0.9328888654708862
164,8.997892291517928e-05,1.0,0.46165040135383606,0.9322222471237183
165,0.0001313796965405345,1.0,0.4575002193450928,0.9326666593551636
166,9.469015640206635e-05,1.0,0.4581356346607208,0.9313333630561829
167,8.39740750961937e-05,1.0,0.4618447721004486,0.9319999814033508
168,6.723533442709595e-05,1.0,0.46535491943359375,0.9328888654708862
169,8.819055801723152e-05,1.0,0.4685085713863373,0.9331111311912537
170,0.00010112298332387581,1.0,0.46822455525398254,0.9328888654708862
171,7.546055712737143e-05,1.0,0.46665048599243164,0.9319999814033508
172,9.042763122124597e-05,1.0,0.46781015396118164,0.9326666593551636
173,8.241466275649145e-05,1.0,0.4702025353908539,0.9326666593551636
174,9.896926349028945e-05,1.0,0.4656381905078888,0.9326666593551636
175,5.764955858467147e-05,1.0,0.46628060936927795,0.9331111311912537
176,7.687619654461741e-05,1.0,0.4687625765800476,0.9333333373069763
177,0.00012734078336507082,1.0,0.4648303985595703,0.9324444532394409
178,0.0001504296960774809,1.0,0.45835140347480774,0.9313333630561829
179,7.643710705451667e-05,1.0,0.45786967873573303,0.933555543422699
180,9.87705570878461e-05,1.0,0.4621771275997162,0.9333333373069763
181,7.438520697178319e-05,1.0,0.4655735194683075,0.9333333373069763
182,0.00011826088302768767,1.0,0.46908247470855713,0.933555543422699
183,6.801875133533031e-05,1.0,0.4611774682998657,0.9317777752876282
184,5.746493843616918e-05,1.0,0.4631368815898895,0.9319999814033508
185,7.551787712145597e-05,1.0,0.46895942091941833,0.9331111311912537
186,5.4942411225056276e-05,1.0,0.47276291251182556,0.9337777495384216
187,0.00010611890320433304,1.0,0.47218814492225647,0.933555543422699
188,5.904841600568034e-05,1.0,0.47316160798072815,0.9337777495384216
189,8.511483611073345e-05,1.0,0.4733528196811676,0.933555543422699
190,5.514757503988221e-05,1.0,0.47387099266052246,0.933555543422699
191,9.828404290601611e-05,1.0,0.4746481776237488,0.933555543422699
192,0.00019291775242891163,1.0,0.4651128351688385,0.9279999732971191
193,0.00012036450789310038,1.0,0.46281397342681885,0.9295555353164673
194,7.033490692265332e-05,1.0,0.46616825461387634,0.9328888654708862
195,7.941512740217149e-05,1.0,0.4709395170211792,0.9342222213745117
196,6.310469325399026e-05,1.0,0.474265456199646,0.9342222213745117
197,9.15214404813014e-05,1.0,0.47476840019226074,0.9333333373069763
198,8.035074279177934e-05,1.0,0.4740230441093445,0.9333333373069763
199,7.909211853984743e-05,1.0,0.47295302152633667,0.933555543422699
200,8.99271690286696e-05,1.0,0.46879643201828003,0.9326666593551636
201,6.875294639030471e-05,1.0,0.46863704919815063,0.9313333630561829
202,7.530950097134337e-05,1.0,0.4678816795349121,0.9322222471237183
203,6.21637882431969e-05,1.0,0.47012385725975037,0.9333333373069763
204,5.766431786469184e-05,1.0,0.4740302264690399,0.933555543422699
205,9.180313645629212e-05,1.0,0.4821791350841522,0.9353333115577698
206,8.370673458557576e-05,1.0,0.47263839840888977,0.933555543422699
207,5.1655169954756275e-05,1.0,0.4661930799484253,0.9313333630561829
208,6.468265200965106e-05,1.0,0.46775829792022705,0.9311110973358154
209,9.880675497697666e-05,1.0,0.47201985120773315,0.9326666593551636
210,5.222668551141396e-05,1.0,0.47683241963386536,0.9340000152587891
211,5.61705237487331e-05,1.0,0.4788946807384491,0.9337777495384216
212,0.00010350259253755212,1.0,0.4713992476463318,0.9331111311912537
213,6.800686969654635e-05,1.0,0.4708045721054077,0.9319999814033508
214,5.169260111870244e-05,1.0,0.4741496443748474,0.9328888654708862
215,5.570689245359972e-05,1.0,0.4752093553543091,0.9328888654708862
216,4.908651317236945e-05,1.0,0.4767672121524811,0.9328888654708862
217,6.420000863727182e-05,1.0,0.47793516516685486,0.9328888654708862
218,6.884193862788379e-05,1.0,0.4787655770778656,0.9328888654708862
219,7.1113056037575e-05,1.0,0.4786846339702606,0.9328888654708862
220,5.9438185417093337e-05,1.0,0.47805729508399963,0.9328888654708862
221,6.719689554302022e-05,1.0,0.47869184613227844,0.9328888654708862
222,6.88013169565238e-05,1.0,0.47939446568489075,0.9328888654708862
223,8.260051254183054e-05,1.0,0.4799553453922272,0.9328888654708862
224,0.0001804617786547169,1.0,0.4688436985015869,0.929111123085022
225,0.00011167229968123138,1.0,0.4650234878063202,0.9266666769981384
226,7.85054944572039e-05,1.0,0.4631926417350769,0.9293333292007446
227,6.68039356241934e-05,1.0,0.4672757089138031,0.9317777752876282
228,0.0001057302943081595,1.0,0.47128191590309143,0.9328888654708862
229,0.00010150295565836132,1.0,0.4738610088825226,0.9326666593551636
230,9.173029684461653e-05,1.0,0.47802257537841797,0.9328888654708862
231,6.221238436410204e-05,1.0,0.4799104928970337,0.9326666593551636
232,9.732862963574007e-05,1.0,0.4826734960079193,0.9324444532394409
233,7.488144183298573e-05,1.0,0.48367562890052795,0.9326666593551636
234,4.3362284486647695e-05,1.0,0.48373231291770935,0.9326666593551636
235,5.149018033989705e-05,1.0,0.4845843017101288,0.9326666593551636
236,3.926176577806473e-05,1.0,0.4856300950050354,0.9326666593551636
237,4.184251156402752e-05,1.0,0.48551762104034424,0.9326666593551636
238,7.154719060054049e-05,1.0,0.4839763045310974,0.9326666593551636
239,9.196122118737549e-05,1.0,0.4813969135284424,0.9328888654708862
240,6.866554031148553e-05,1.0,0.4807136058807373,0.9333333373069763
241,7.78017783886753e-05,1.0,0.4812280237674713,0.9333333373069763
242,7.363256008829921e-05,1.0,0.4836290776729584,0.9331111311912537
243,5.3126728744246066e-05,1.0,0.4837673604488373,0.9331111311912537
244,7.313860987778753e-05,1.0,0.4818337559700012,0.9328888654708862
245,5.305889862938784e-05,1.0,0.4808160662651062,0.9326666593551636
246,4.850530967814848e-05,1.0,0.48177674412727356,0.9331111311912537
247,5.032076296629384e-05,1.0,0.4831451177597046,0.9333333373069763
248,6.331376789603382e-05,1.0,0.4849667549133301,0.9331111311912537
249,8.386153058381751e-05,1.0,0.4823824465274811,0.9328888654708862
250,4.970213194610551e-05,1.0,0.48088011145591736,0.9328888654708862
251,4.533278843155131e-05,1.0,0.4820835590362549,0.9326666593551636
252,5.1795621402561665e-05,1.0,0.4832235276699066,0.9328888654708862
253,4.64264267066028e-05,1.0,0.4839756488800049,0.9331111311912537
254,4.683527731685899e-05,1.0,0.48511186242103577,0.9333333373069763
255,3.87688196497038e-05,1.0,0.48592546582221985,0.9333333373069763
256,4.683729275711812e-05,1.0,0.48668450117111206,0.9328888654708862
257,4.2075222154380754e-05,1.0,0.4868760406970978,0.9328888654708862
258,7.166220166254789e-05,1.0,0.48679617047309875,0.9333333373069763
259,6.800437404308468e-05,1.0,0.48445117473602295,0.9333333373069763
260,4.727743362309411e-05,1.0,0.48440542817115784,0.9333333373069763
261,7.054756861180067e-05,1.0,0.4841737747192383,0.9328888654708862
262,5.518092439160682e-05,1.0,0.48491665720939636,0.9328888654708862
263,6.736934301443398e-05,1.0,0.48340022563934326,0.9326666593551636
264,3.941547038266435e-05,1.0,0.4830716550350189,0.9326666593551636
265,4.233223444316536e-05,1.0,0.4846952557563782,0.9326666593551636
266,4.7209654439939186e-05,1.0,0.4853515028953552,0.9328888654708862
267,4.1893377783708274e-05,1.0,0.48516613245010376,0.9331111311912537
268,5.390159276430495e-05,1.0,0.4856187105178833,0.9331111311912537
269,3.857816773233935e-05,1.0,0.48523834347724915,0.9331111311912537
270,3.851306973956525e-05,1.0,0.48519715666770935,0.9331111311912537
271,7.29250896256417e-05,1.0,0.48296108841896057,0.9331111311912537
272,4.174656351096928e-05,1.0,0.4821433424949646,0.9331111311912537
273,4.626489317161031e-05,1.0,0.48254215717315674,0.9331111311912537
274,6.499322626041248e-05,1.0,0.48378416895866394,0.9331111311912537
275,5.193253673496656e-05,1.0,0.4846703112125397,0.9331111311912537
276,5.7516692322678864e-05,1.0,0.4852345883846283,0.9331111311912537
277,5.430640885606408e-05,1.0,0.4859803020954132,0.9331111311912537
278,4.311618613428436e-05,1.0,0.48582661151885986,0.9331111311912537
279,4.3411771912360564e-05,1.0,0.48485949635505676,0.9331111311912537
280,5.537099059438333e-05,1.0,0.4851221740245819,0.9331111311912537
281,5.361080911825411e-05,1.0,0.4846715033054352,0.9331111311912537
282,6.630329153267667e-05,1.0,0.4847220182418823,0.9328888654708862
283,4.4878575863549486e-05,1.0,0.4848410487174988,0.9331111311912537
284,3.263220423832536e-05,1.0,0.48564577102661133,0.9331111311912537
285,3.7929308746242896e-05,1.0,0.4863024055957794,0.9331111311912537
286,6.16832185187377e-05,1.0,0.48690879344940186,0.9331111311912537
287,5.37950691068545e-05,1.0,0.4869025647640228,0.9331111311912537
288,5.487646194524132e-05,1.0,0.4865624010562897,0.9331111311912537
289,5.909110768698156e-05,1.0,0.48721012473106384,0.9331111311912537
290,7.265523890964687e-05,1.0,0.4863532483577728,0.9331111311912537
291,3.478472353890538e-05,1.0,0.4853880703449249,0.9331111311912537
292,5.770209463662468e-05,1.0,0.4839363098144531,0.9328888654708862
293,5.7701399782672524e-05,1.0,0.4837331175804138,0.9328888654708862
294,9.29605303099379e-05,1.0,0.4842449426651001,0.9328888654708862
295,7.174847269197926e-05,1.0,0.4832390546798706,0.9326666593551636
296,5.090355625725351e-05,1.0,0.48354220390319824,0.9319999814033508
297,6.006444164086133e-05,1.0,0.48512566089630127,0.9328888654708862
298,5.3197269153315574e-05,1.0,0.4872966706752777,0.9328888654708862
299,6.085184577386826e-05,1.0,0.4887370765209198,0.9328888654708862
300,5.9800349845318124e-05,1.0,0.4889415204524994,0.9331111311912537
301,3.2838532206369564e-05,1.0,0.48899298906326294,0.9331111311912537
302,4.506163895712234e-05,1.0,0.4890827238559723,0.9331111311912537
303,4.9282360123470426e-05,1.0,0.4893573820590973,0.9331111311912537
304,3.191548603354022e-05,1.0,0.4890921711921692,0.9331111311912537
305,4.276204344932921e-05,1.0,0.48887717723846436,0.9331111311912537
306,5.245271677267738e-05,1.0,0.4874304533004761,0.9333333373069763
307,4.677853939938359e-05,1.0,0.4875929355621338,0.9333333373069763
308,3.685652700369246e-05,1.0,0.4873083233833313,0.9333333373069763
309,4.0866212657419965e-05,1.0,0.48826128244400024,0.9333333373069763
310,5.487699672812596e-05,1.0,0.48628315329551697,0.9333333373069763
311,4.122396057937294e-05,1.0,0.4864462912082672,0.9333333373069763
312,4.609817187883891e-05,1.0,0.48706868290901184,0.9331111311912537
313,3.923704935004935e-05,1.0,0.4875021278858185,0.9331111311912537
314,8.450103632640094e-05,1.0,0.48769932985305786,0.9331111311912537
315,8.038469241000712e-05,1.0,0.4836570620536804,0.9331111311912537
316,8.387023990508169e-05,1.0,0.4829813241958618,0.9324444532394409
317,4.84447882627137e-05,1.0,0.4840533435344696,0.9326666593551636
318,5.889803287573159e-05,1.0,0.4849030375480652,0.9331111311912537
319,3.307091537863016e-05,1.0,0.48599404096603394,0.9333333373069763
320,6.176297756610438e-05,1.0,0.48789307475090027,0.9328888654708862
321,7.174711936386302e-05,1.0,0.48915955424308777,0.9328888654708862
322,4.302524757804349e-05,1.0,0.4891483187675476,0.9331111311912537
323,3.348429163452238e-05,1.0,0.4890954792499542,0.9331111311912537
324,6.707349530188367e-05,1.0,0.4870488941669464,0.9328888654708862
325,5.7042012485908344e-05,1.0,0.48717719316482544,0.9331111311912537
326,6.241798837436363e-05,1.0,0.48699939250946045,0.9333333373069763
327,0.00011207855277461931,1.0,0.4812208116054535,0.9315555691719055
328,3.693161852424964e-05,1.0,0.48116084933280945,0.9313333630561829
329,8.308987162308767e-05,1.0,0.48410654067993164,0.9317777752876282
330,6.062883767299354e-05,1.0,0.4868216812610626,0.9333333373069763
331,3.866470797220245e-05,1.0,0.48866036534309387,0.9331111311912537
332,5.54630059923511e-05,1.0,0.48815932869911194,0.9331111311912537
333,3.7767193134641275e-05,1.0,0.48687466979026794,0.9333333373069763
334,5.326517566572875e-05,1.0,0.4869837760925293,0.9331111311912537
335,3.7456906284205616e-05,1.0,0.48757606744766235,0.9331111311912537
336,4.686518514063209e-05,1.0,0.48823627829551697,0.9331111311912537
337,8.502179844072089e-05,1.0,0.48841986060142517,0.9328888654708862
338,3.501776518533006e-05,1.0,0.48759907484054565,0.9328888654708862
339,3.612372529460117e-05,1.0,0.4873120188713074,0.9328888654708862
340,6.0350193962221965e-05,1.0,0.4869411885738373,0.9331111311912537
341,7.447225652867928e-05,1.0,0.487324595451355,0.9331111311912537
342,5.723335561924614e-05,1.0,0.48586171865463257,0.9331111311912537
343,5.898670497117564e-05,1.0,0.4858672022819519,0.9331111311912537
344,4.793288098881021e-05,1.0,0.48499274253845215,0.9324444532394409
345,4.1155457438435405e-05,1.0,0.4854750335216522,0.9324444532394409
346,8.718507160665467e-05,1.0,0.4874661862850189,0.9326666593551636
347,8.389262802666053e-05,1.0,0.4886140823364258,0.9326666593551636
348,4.63797987322323e-05,1.0,0.4887863099575043,0.9328888654708862
349,3.35250842908863e-05,1.0,0.48988404870033264,0.9331111311912537
350,3.248949724365957e-05,1.0,0.4906767010688782,0.9331111311912537
351,0.00010953004675684497,1.0,0.4899836778640747,0.9328888654708862
352,3.058262154809199e-05,1.0,0.48849502205848694,0.9326666593551636
353,4.25347316195257e-05,1.0,0.48894309997558594,0.9328888654708862
354,4.343544787843712e-05,1.0,0.48808979988098145,0.9326666593551636
355,3.473569449852221e-05,1.0,0.4878885746002197,0.9326666593551636
356,4.474954039324075e-05,1.0,0.48886653780937195,0.9326666593551636
357,7.435097359120846e-05,1.0,0.48966673016548157,0.9326666593551636
358,6.871292134746909e-05,1.0,0.4901482164859772,0.9331111311912537
359,7.388749509118497e-05,1.0,0.49020910263061523,0.9326666593551636
360,7.70181868574582e-05,1.0,0.48636800050735474,0.9324444532394409
361,4.018039908260107e-05,1.0,0.48598504066467285,0.9317777752876282
362,4.1983192204497755e-05,1.0,0.48684820532798767,0.9324444532394409
363,5.286842133500613e-05,1.0,0.48723241686820984,0.9324444532394409
364,7.361239840975031e-05,1.0,0.4892231523990631,0.9322222471237183
365,4.890514901489951e-05,1.0,0.491252601146698,0.9326666593551636
366,3.663752431748435e-05,1.0,0.49195757508277893,0.9328888654708862
367,3.227310662623495e-05,1.0,0.4924280643463135,0.9328888654708862
368,6.486979691544548e-05,1.0,0.49218523502349854,0.9328888654708862
369,6.687604036414996e-05,1.0,0.49089962244033813,0.9324444532394409
370,4.1448605770710856e-05,1.0,0.4898321330547333,0.9322222471237183
371,4.697765325545333e-05,1.0,0.4895744323730469,0.9322222471237183
372,3.706595452968031e-05,1.0,0.49046289920806885,0.9322222471237183
373,5.3588901209877804e-05,1.0,0.4918682277202606,0.9322222471237183
374,6.26142937107943e-05,1.0,0.4927375316619873,0.9322222471237183
375,7.204940629890189e-05,1.0,0.49285751581192017,0.9322222471237183
376,3.27861234836746e-05,1.0,0.49184098839759827,0.9322222471237183
377,3.9526257751276717e-05,1.0,0.4919952154159546,0.9322222471237183
378,6.137472519185394e-05,1.0,0.4931928217411041,0.9326666593551636
379,3.635946995927952e-05,1.0,0.4933658838272095,0.9326666593551636
380,4.855490988120437e-05,1.0,0.4928472638130188,0.9326666593551636
381,4.594124766299501e-05,1.0,0.4930625557899475,0.9326666593551636
382,3.298401497886516e-05,1.0,0.49207037687301636,0.9324444532394409
383,6.846169708296657e-05,1.0,0.4917164742946625,0.9324444532394409
384,3.106212898273952e-05,1.0,0.4916645586490631,0.9324444532394409
385,5.411523670773022e-05,1.0,0.49206292629241943,0.9331111311912537
386,3.891044980264269e-05,1.0,0.49157851934432983,0.9326666593551636
387,3.0231984055717476e-05,1.0,0.4917643666267395,0.9326666593551636
388,4.466188693186268e-05,1.0,0.49232545495033264,0.9324444532394409
389,2.7307300115353428e-05,1.0,0.493280827999115,0.9328888654708862
390,3.295985879958607e-05,1.0,0.4939660429954529,0.9328888654708862
391,3.36763660016004e-05,1.0,0.4945220351219177,0.9331111311912537
392,2.5600749722798355e-05,1.0,0.4950992166996002,0.9331111311912537
393,4.5649019739357755e-05,1.0,0.49490854144096375,0.9331111311912537
394,4.45786899945233e-05,1.0,0.4937340021133423,0.9328888654708862
395,3.635044413385913e-05,1.0,0.4925994873046875,0.9324444532394409
396,5.544643136090599e-05,1.0,0.49233224987983704,0.9317777752876282
397,3.543640923453495e-05,1.0,0.49164876341819763,0.9322222471237183
398,4.364175401860848e-05,1.0,0.4928818941116333,0.9319999814033508
399,3.32310919475276e-05,1.0,0.49369511008262634,0.9326666593551636
400,5.7305089285364375e-05,1.0,0.49413439631462097,0.9326666593551636
401,3.133430436719209e-05,1.0,0.4946919083595276,0.9326666593551636
402,6.321530236164108e-05,1.0,0.4947291612625122,0.9326666593551636
403,5.698457607650198e-05,1.0,0.48922890424728394,0.9319999814033508
404,0.00011474577331682667,1.0,0.48695725202560425,0.9313333630561829
405,4.1091348975896835e-05,1.0,0.48758453130722046,0.9324444532394409
406,3.8348422094713897e-05,1.0,0.48945116996765137,0.9319999814033508
407,5.073134889244102e-05,1.0,0.4916672110557556,0.9328888654708862
408,7.104309042915702e-05,1.0,0.4927048087120056,0.9333333373069763
409,4.493598316912539e-05,1.0,0.4915282726287842,0.933555543422699
410,4.312813325668685e-05,1.0,0.4892825484275818,0.9331111311912537
411,3.318208837299608e-05,1.0,0.488933801651001,0.9331111311912537
412,4.658887337427586e-05,1.0,0.4885374903678894,0.9328888654708862
413,3.411687430343591e-05,1.0,0.48972266912460327,0.9328888654708862
414,4.009887561551295e-05,1.0,0.4915418326854706,0.9331111311912537
415,0.00010597056825645268,1.0,0.4927530884742737,0.9333333373069763
416,7.627293234691024e-05,1.0,0.48864826560020447,0.9324444532394409
417,4.288765194360167e-05,1.0,0.48893895745277405,0.9322222471237183
418,4.945126784150489e-05,1.0,0.4912254810333252,0.9322222471237183
419,4.705957690021023e-05,1.0,0.49311062693595886,0.9331111311912537
420,5.7593908422859386e-05,1.0,0.49561500549316406,0.9333333373069763
421,2.6097466616192833e-05,1.0,0.4981151819229126,0.9333333373069763
422,4.5329576096264645e-05,1.0,0.4991533160209656,0.9333333373069763
423,3.103896960965358e-05,1.0,0.49790722131729126,0.9333333373069763
424,2.878122904803604e-05,1.0,0.49745622277259827,0.9333333373069763
425,0.0001889562263386324,1.0,0.48623931407928467,0.9284444451332092
426,0.00012445457105059177,1.0,0.4830399453639984,0.9304444193840027
427,6.264244439080358e-05,1.0,0.4990192651748657,0.9368888735771179
428,0.00011197449202882126,1.0,0.5022400617599487,0.9362221956253052
429,0.00014541174459736794,1.0,0.48554855585098267,0.9237777590751648
430,0.00014154691598378122,1.0,0.4817439913749695,0.9308888912200928
431,7.299802382476628e-05,1.0,0.49684104323387146,0.9351111054420471
432,3.980759356636554e-05,1.0,0.49920454621315,0.9368888735771179
433,4.198497481411323e-05,1.0,0.49730104207992554,0.9353333115577698
434,3.696959902299568e-05,1.0,0.49499213695526123,0.9353333115577698
435,5.21214387845248e-05,1.0,0.49272966384887695,0.9348888993263245
436,5.888560554012656e-05,1.0,0.48863157629966736,0.9337777495384216
437,3.7015350244473666e-05,1.0,0.4867313504219055,0.9333333373069763
438,3.395895691937767e-05,1.0,0.4876876771450043,0.9333333373069763
439,6.329788448056206e-05,1.0,0.48890939354896545,0.9337777495384216
440,3.699263106682338e-05,1.0,0.49041667580604553,0.9337777495384216
441,2.9478811484295875e-05,1.0,0.4914335310459137,0.9337777495384216
442,4.3527004891075194e-05,1.0,0.4921782910823822,0.9337777495384216
443,4.6754641516599804e-05,1.0,0.4949585497379303,0.9337777495384216
444,6.821299757575616e-05,1.0,0.49616938829421997,0.9337777495384216
445,6.999046308919787e-05,1.0,0.4924375116825104,0.933555543422699
446,3.354311047587544e-05,1.0,0.49005240201950073,0.9331111311912537
447,6.115485302871093e-05,1.0,0.4901416003704071,0.9326666593551636
448,4.514620377449319e-05,1.0,0.4919871985912323,0.9333333373069763
449,3.873864625347778e-05,1.0,0.49349144101142883,0.933555543422699
450,3.209858914487995e-05,1.0,0.49285340309143066,0.9333333373069763
451,4.903869194095023e-05,1.0,0.49333903193473816,0.9333333373069763
452,4.012547651655041e-05,1.0,0.49363580346107483,0.9333333373069763
453,4.2617950384737924e-05,1.0,0.4937407374382019,0.9328888654708862
454,3.147891038679518e-05,1.0,0.49451497197151184,0.9328888654708862
455,6.352682248689234e-05,1.0,0.49817273020744324,0.9331111311912537
456,3.447420021984726e-05,1.0,0.4984683096408844,0.9333333373069763
457,2.7101921659777872e-05,1.0,0.4979962706565857,0.9333333373069763
458,3.1419145670952275e-05,1.0,0.4988512396812439,0.9333333373069763
459,3.1168139685178176e-05,1.0,0.499068021774292,0.9333333373069763
460,5.0998671213164926e-05,1.0,0.49823322892189026,0.9331111311912537
461,4.683852966991253e-05,1.0,0.4969220459461212,0.9333333373069763
462,4.4319862354313955e-05,1.0,0.4961954653263092,0.9328888654708862
463,3.499174999888055e-05,1.0,0.49625101685523987,0.9331111311912537
464,2.7274210879113525e-05,1.0,0.4960870146751404,0.9331111311912537
465,2.3159065676736645e-05,1.0,0.4964369535446167,0.9331111311912537
466,2.4412791390204802e-05,1.0,0.4964904487133026,0.9331111311912537
467,5.071193663752638e-05,1.0,0.4955708682537079,0.9331111311912537
468,5.9422574850032106e-05,1.0,0.49304091930389404,0.9324444532394409
469,3.072791878366843e-05,1.0,0.4933805465698242,0.9324444532394409
470,3.694515544339083e-05,1.0,0.4953116774559021,0.9324444532394409
471,2.578209932835307e-05,1.0,0.49688172340393066,0.9324444532394409
472,3.0262906875577755e-05,1.0,0.49732622504234314,0.9328888654708862
473,3.912964166374877e-05,1.0,0.4977335035800934,0.9328888654708862
474,4.083809835719876e-05,1.0,0.4965919554233551,0.9328888654708862
475,3.2107465813169256e-05,1.0,0.4966543912887573,0.9328888654708862
476,3.4429900551913306e-05,1.0,0.4960494339466095,0.9328888654708862
477,6.380974809871987e-05,1.0,0.49669161438941956,0.9331111311912537
478,4.380079553811811e-05,1.0,0.4893290400505066,0.9331111311912537
479,3.201277650077827e-05,1.0,0.48759976029396057,0.9331111311912537
480,4.007636016467586e-05,1.0,0.4909197688102722,0.9333333373069763
481,2.931608287326526e-05,1.0,0.49286383390426636,0.9331111311912537
482,2.3804015654604882e-05,1.0,0.4943055510520935,0.933555543422699
483,5.2645882533397526e-05,1.0,0.49516725540161133,0.933555543422699
484,4.942054147250019e-05,1.0,0.4947071373462677,0.9331111311912537
485,3.251958332839422e-05,1.0,0.49452245235443115,0.9331111311912537
486,1.94341700989753e-05,1.0,0.49450331926345825,0.9328888654708862
487,4.898117913398892e-05,1.0,0.4966229796409607,0.9328888654708862
488,2.6120624170289375e-05,1.0,0.4951099157333374,0.9328888654708862
489,2.6311383408028632e-05,1.0,0.4940454661846161,0.9328888654708862
490,2.7092883101431653e-05,1.0,0.4939301609992981,0.9331111311912537
491,3.83467813662719e-05,1.0,0.4942733943462372,0.9331111311912537
492,3.24289285345003e-05,1.0,0.4930863082408905,0.9328888654708862
493,3.828828630503267e-05,1.0,0.49399277567863464,0.9328888654708862
494,4.665728556574322e-05,1.0,0.4962587356567383,0.9331111311912537
495,2.724736259551719e-05,1.0,0.49845409393310547,0.9333333373069763
496,2.2303802325041033e-05,1.0,0.49967697262763977,0.9328888654708862
497,4.1655053792055696e-05,1.0,0.4990445375442505,0.9333333373069763
498,3.209890201105736e-05,1.0,0.4987827241420746,0.9333333373069763
499,4.001614797743969e-05,1.0,0.499106764793396,0.9333333373069763
500,3.900786759913899e-05,1.0,0.4983600378036499,0.9328888654708862
501,3.502881736494601e-05,1.0,0.4986535310745239,0.9333333373069763
502,2.904337270592805e-05,1.0,0.5003924369812012,0.933555543422699
503,3.734149140655063e-05,1.0,0.5012966990470886,0.9337777495384216
504,4.716415423899889e-05,1.0,0.49827414751052856,0.933555543422699
505,2.60917549894657e-05,1.0,0.4942470192909241,0.9331111311912537
506,3.2352818379877135e-05,1.0,0.49509674310684204,0.9328888654708862
507,1.8642238501342945e-05,1.0,0.49638304114341736,0.9333333373069763
508,4.069568240083754e-05,1.0,0.49782317876815796,0.9337777495384216
509,3.6540470318868756e-05,1.0,0.4997125566005707,0.9340000152587891
510,2.892765769502148e-05,1.0,0.49912235140800476,0.9337777495384216
511,2.539603337936569e-05,1.0,0.4983234107494354,0.9337777495384216
512,3.6953657399863005e-05,1.0,0.49804311990737915,0.9333333373069763
513,2.4324013793375343e-05,1.0,0.4971240162849426,0.9333333373069763
514,2.9343324058572762e-05,1.0,0.498417466878891,0.9333333373069763
515,6.904853944433853e-05,1.0,0.4899986982345581,0.9308888912200928
516,3.845319588435814e-05,1.0,0.4922046363353729,0.9317777752876282
517,2.525225318095181e-05,1.0,0.4964268207550049,0.9331111311912537
518,3.408082920941524e-05,1.0,0.5004727244377136,0.9333333373069763
519,2.7921036235056818e-05,1.0,0.5034438967704773,0.9333333373069763
520,2.631155075505376e-05,1.0,0.5052028298377991,0.9337777495384216
521,2.721804594330024e-05,1.0,0.506237268447876,0.9337777495384216
522,4.784136399393901e-05,1.0,0.5042612552642822,0.9331111311912537
523,2.0215420590830036e-05,1.0,0.49963152408599854,0.9331111311912537
524,4.884255031356588e-05,1.0,0.49767789244651794,0.9322222471237183
525,3.4929362300317734e-05,1.0,0.49814626574516296,0.9322222471237183
526,2.082220817101188e-05,1.0,0.4995933175086975,0.9326666593551636
527,3.544041101122275e-05,1.0,0.5012882947921753,0.9331111311912537
528,3.797256795223802e-05,1.0,0.5043102502822876,0.9333333373069763
529,5.837185381096788e-05,1.0,0.5031179189682007,0.9331111311912537
530,2.1980313249514438e-05,1.0,0.5020191073417664,0.933555543422699
531,3.318486415082589e-05,1.0,0.5009781122207642,0.9333333373069763
532,5.092730498290621e-05,1.0,0.5000578165054321,0.9331111311912537
533,4.200871990178712e-05,1.0,0.49330294132232666,0.9317777752876282
534,3.300201569800265e-05,1.0,0.4933777153491974,0.9322222471237183
535,2.1595082216663286e-05,1.0,0.4949015974998474,0.9324444532394409
536,2.3109801986720413e-05,1.0,0.4982507526874542,0.9331111311912537
537,2.9194743547122926e-05,1.0,0.498212993144989,0.9331111311912537
538,2.9011402148171328e-05,1.0,0.4987940490245819,0.9331111311912537
539,2.4803197447909042e-05,1.0,0.49983131885528564,0.9333333373069763
540,0.00010573095642030239,1.0,0.4998185336589813,0.9337777495384216
541,1.9633822375908494e-05,1.0,0.4993593692779541,0.933555543422699
542,3.403257505851798e-05,1.0,0.49984243512153625,0.9333333373069763
543,2.6391515348223038e-05,1.0,0.5009097456932068,0.933555543422699
544,4.20470314566046e-05,1.0,0.5011301636695862,0.9337777495384216
545,3.826207830570638e-05,1.0,0.5020039677619934,0.9337777495384216
546,4.4987318688072264e-05,1.0,0.5021731853485107,0.9333333373069763
547,2.146828410332091e-05,1.0,0.5024648308753967,0.9328888654708862
548,3.18984457408078e-05,1.0,0.502358078956604,0.9328888654708862
549,7.365870260400698e-05,1.0,0.49984484910964966,0.9326666593551636
550,3.9092574297683313e-05,1.0,0.5012609958648682,0.9331111311912537
551,2.089746340061538e-05,1.0,0.5035474896430969,0.933555543422699
552,4.674255978898145e-05,1.0,0.5012822151184082,0.9331111311912537
553,2.5116110919043422e-05,1.0,0.49996092915534973,0.9326666593551636
554,3.5035962355323136e-05,1.0,0.4999624490737915,0.9333333373069763
555,2.0465773559408262e-05,1.0,0.5029714703559875,0.9331111311912537
556,3.1326304451795295e-05,1.0,0.5019951462745667,0.9331111311912537
557,3.04775130643975e-05,1.0,0.5000337362289429,0.9331111311912537
558,3.0884999432601035e-05,1.0,0.5001581907272339,0.9331111311912537
559,2.1602772903861478e-05,1.0,0.49938374757766724,0.9326666593551636
560,2.0743242203025147e-05,1.0,0.49998122453689575,0.9326666593551636
561,2.715050140977837e-05,1.0,0.5016437768936157,0.9333333373069763
562,3.1944360671332106e-05,1.0,0.5025525093078613,0.9337777495384216
563,3.900471347151324e-05,1.0,0.5030204057693481,0.9337777495384216
564,0.00010830167593667284,1.0,0.492777019739151,0.9315555691719055
565,3.152501813019626e-05,1.0,0.4882604777812958,0.9282222390174866
566,5.24616552866064e-05,1.0,0.4919370114803314,0.9308888912200928
567,3.0317791242850944e-05,1.0,0.5032665729522705,0.9333333373069763
568,1.8522050595493056e-05,1.0,0.5070153474807739,0.9333333373069763
569,2.3360376872005872e-05,1.0,0.5089570879936218,0.933555543422699
570,3.4470856917323545e-05,1.0,0.5053828954696655,0.9331111311912537
571,1.923331365105696e-05,1.0,0.5044935345649719,0.9331111311912537
572,2.8497826860984787e-05,1.0,0.5056554079055786,0.9333333373069763
573,2.929408583440818e-05,1.0,0.505844235420227,0.9331111311912537
574,4.660564809455536e-05,1.0,0.507401704788208,0.933555543422699
575,5.9578389482339844e-05,1.0,0.5051229596138,0.933555543422699
576,5.355551911634393e-05,1.0,0.5071767568588257,0.9333333373069763
577,1.5168285244726576e-05,1.0,0.5085628032684326,0.9333333373069763
578,2.6895706469076686e-05,1.0,0.509150505065918,0.933555543422699
579,3.244166509830393e-05,1.0,0.5083454847335815,0.9333333373069763
580,3.0155433705658652e-05,1.0,0.5078041553497314,0.933555543422699
581,2.0115438019274734e-05,1.0,0.5083510875701904,0.933555543422699
582,4.0112958231475204e-05,1.0,0.5079544186592102,0.9333333373069763
583,2.109762681357097e-05,1.0,0.5078520178794861,0.9337777495384216
584,3.20516737701837e-05,1.0,0.5089170336723328,0.9337777495384216
585,6.892011151649058e-05,1.0,0.5086835622787476,0.9337777495384216
586,1.9814451661659405e-05,1.0,0.5056360960006714,0.9340000152587891
587,1.687368785496801e-05,1.0,0.5039778351783752,0.9340000152587891
588,5.671052713296376e-05,1.0,0.49191802740097046,0.9326666593551636
589,4.33876302849967e-05,1.0,0.4858032166957855,0.9328888654708862
590,3.389630001038313e-05,1.0,0.4901665449142456,0.933555543422699
591,2.393696195213124e-05,1.0,0.4955503046512604,0.9340000152587891
592,5.0704646127996966e-05,1.0,0.4965945780277252,0.933555543422699
593,2.1710216969950125e-05,1.0,0.4929234981536865,0.9315555691719055
594,2.4192735509132035e-05,1.0,0.497945636510849,0.9322222471237183
595,2.302908615092747e-05,1.0,0.5041476488113403,0.9328888654708862
596,3.345781806274317e-05,1.0,0.5043701529502869,0.9331111311912537
597,3.8149104511830956e-05,1.0,0.502788782119751,0.9322222471237183
598,2.6681162125896662e-05,1.0,0.507498562335968,0.9331111311912537
599,1.9097025869996287e-05,1.0,0.511212944984436,0.9337777495384216
600,7.111139711923897e-05,1.0,0.49213922023773193,0.9304444193840027
601,4.392693881527521e-05,1.0,0.49392804503440857,0.9308888912200928
602,3.9936454413691536e-05,1.0,0.5051739811897278,0.9328888654708862
603,3.042143907805439e-05,1.0,0.5125418901443481,0.9344444274902344
604,2.392302849330008e-05,1.0,0.5134716629981995,0.9344444274902344
605,2.1363497580750845e-05,1.0,0.5142788290977478,0.9348888993263245
606,2.001889151870273e-05,1.0,0.5155771374702454,0.9348888993263245
607,1.6752504961914383e-05,1.0,0.5152751207351685,0.9342222213745117
608,2.5130240828730166e-05,1.0,0.5175449848175049,0.9344444274902344
609,1.8088443539454602e-05,1.0,0.5179494619369507,0.9342222213745117
610,1.5745214113849215e-05,1.0,0.5175266861915588,0.9337777495384216
611,3.7227753637125716e-05,1.0,0.5144646167755127,0.9333333373069763
612,0.0001262275327462703,1.0,0.5026013851165771,0.9264444708824158
613,0.001237370539456606,1.0,0.5426424741744995,0.9357777833938599
614,0.0011218431172892451,1.0,0.6654781103134155,0.9275555610656738
615,0.015630066394805908,0.9959999918937683,0.7689118385314941,0.9193333387374878
616,0.01996075175702572,0.9919999837875366,0.7214453220367432,0.9160000085830688
617,0.016461778432130814,0.9919999837875366,1.201011300086975,0.7871111035346985
618,0.007093335967510939,0.9980000257492065,0.6336697340011597,0.9273333549499512
619,0.0034878826700150967,1.0,0.6852124333381653,0.9322222471237183
620,0.006166894920170307,0.9980000257492065,0.5809704661369324,0.9157778024673462
621,0.009293152019381523,0.9940000176429749,0.6331640481948853,0.9359999895095825
622,0.0028939710464328527,0.9980000257492065,0.5580001473426819,0.9337777495384216
623,0.0008460404351353645,1.0,0.505649209022522,0.9300000071525574
624,0.0007696731481701136,1.0,0.4859808385372162,0.9308888912200928
625,0.0006193095468915999,1.0,0.479418009519577,0.9322222471237183
626,0.0004693203663919121,1.0,0.47783681750297546,0.933555543422699
627,0.00038684249739162624,1.0,0.4784391224384308,0.9344444274902344
628,0.0006893683457747102,1.0,0.4824143946170807,0.9342222213745117
629,0.00029007959528826177,1.0,0.48744142055511475,0.9348888993263245
630,0.0003445298061706126,1.0,0.4892629086971283,0.9355555772781372
631,0.00030497691477648914,1.0,0.4872930645942688,0.9355555772781372
632,0.0002598260180093348,1.0,0.48498085141181946,0.9355555772781372
633,0.00021567313524428755,1.0,0.48326796293258667,0.9355555772781372
634,0.00017099881370086223,1.0,0.4818862974643707,0.9357777833938599
635,0.0002014194178627804,1.0,0.4803868234157562,0.9355555772781372
636,0.00017885312263388187,1.0,0.47878965735435486,0.9353333115577698
637,0.00029921403620392084,1.0,0.47644367814064026,0.9353333115577698
638,0.00021304930851329118,1.0,0.47399261593818665,0.9351111054420471
639,0.0001874575245892629,1.0,0.4731914699077606,0.9344444274902344
640,0.000160724637680687,1.0,0.4727492332458496,0.9342222213745117
641,0.00020154465164523572,1.0,0.47330549359321594,0.9342222213745117
642,0.00020895233319606632,1.0,0.47376111149787903,0.9344444274902344
643,0.0001677701366133988,1.0,0.4737966060638428,0.9346666932106018
644,0.0003324888239149004,1.0,0.4728538990020752,0.9346666932106018
645,0.00018467471818439662,1.0,0.4724971354007721,0.9346666932106018
646,0.0002738656767178327,1.0,0.4707784354686737,0.9346666932106018
647,0.00020973000209778547,1.0,0.46707653999328613,0.9337777495384216
648,0.00014168108464218676,1.0,0.4660915732383728,0.933555543422699
649,0.000125640828628093,1.0,0.46623048186302185,0.933555543422699
650,0.00018451333744451404,1.0,0.466636061668396,0.9331111311912537
651,0.00012382067507132888,1.0,0.46684780716896057,0.9337777495384216
652,0.00018592191918287426,1.0,0.4681195616722107,0.9337777495384216
653,0.00013014338037464768,1.0,0.46863552927970886,0.9337777495384216
654,9.510090603725985e-05,1.0,0.46911337971687317,0.9337777495384216
655,0.00011901409015990794,1.0,0.4700068235397339,0.9337777495384216
656,0.0001368968514725566,1.0,0.4699184000492096,0.9333333373069763
657,0.00010467261745361611,1.0,0.47041699290275574,0.9333333373069763
658,0.00013876410957891494,1.0,0.4716360569000244,0.9331111311912537
659,0.00013524371024686843,1.0,0.472051203250885,0.9328888654708862
660,0.0001571197499288246,1.0,0.47306352853775024,0.9331111311912537
661,0.000125539765576832,1.0,0.4727349579334259,0.9331111311912537
662,0.000184945558430627,1.0,0.47378048300743103,0.9331111311912537
663,0.00010970194853143767,1.0,0.47536778450012207,0.9333333373069763
664,0.0001577819639351219,1.0,0.4757162630558014,0.9333333373069763
665,0.0002189998049288988,1.0,0.4750039577484131,0.9333333373069763
666,8.267907105619088e-05,1.0,0.4729108214378357,0.9331111311912537
667,0.0001690811332082376,1.0,0.47164812684059143,0.9328888654708862
668,0.00015207371325232089,1.0,0.47088003158569336,0.9331111311912537
669,0.00010896215826505795,1.0,0.47158658504486084,0.9331111311912537
670,0.00011058811651309952,1.0,0.47307443618774414,0.9331111311912537
671,0.00012524309568107128,1.0,0.47444307804107666,0.9331111311912537
672,0.00010047441901406273,1.0,0.4760908782482147,0.9331111311912537
673,0.00010162633407162502,1.0,0.47684308886528015,0.9331111311912537
674,0.00018635480955708772,1.0,0.47742652893066406,0.9331111311912537
675,0.00010705663589760661,1.0,0.47864875197410583,0.9331111311912537
676,0.00011983708827756345,1.0,0.4798279106616974,0.9328888654708862
677,0.0002064625296043232,1.0,0.47863444685935974,0.9333333373069763
678,9.880224388325587e-05,1.0,0.4781736731529236,0.933555543422699
679,0.00011277553130639717,1.0,0.4797056317329407,0.9331111311912537
680,0.00011041759717045352,1.0,0.48106780648231506,0.9331111311912537
681,8.597626583650708e-05,1.0,0.48188889026641846,0.9333333373069763
682,0.00019136547052767128,1.0,0.4815216362476349,0.9331111311912537
683,0.0001374188723275438,1.0,0.4813968539237976,0.9331111311912537
684,0.0001380385656375438,1.0,0.4821329116821289,0.9331111311912537
685,0.00011729799734894186,1.0,0.48316439986228943,0.9333333373069763
686,8.714105933904648e-05,1.0,0.4840938150882721,0.9333333373069763
687,0.00010983976972056553,1.0,0.48450136184692383,0.9333333373069763
688,6.963077612454072e-05,1.0,0.4843718409538269,0.9331111311912537
689,0.00010772292444016784,1.0,0.4858282804489136,0.9331111311912537
690,6.548581586685032e-05,1.0,0.48655733466148376,0.9331111311912537
691,9.248741844203323e-05,1.0,0.48781856894493103,0.9331111311912537
692,8.566503674956039e-05,1.0,0.4883076846599579,0.9333333373069763
693,7.060902134981006e-05,1.0,0.4882916212081909,0.9333333373069763
694,8.416477066930383e-05,1.0,0.4883159101009369,0.9331111311912537
695,6.534197746077552e-05,1.0,0.4884035289287567,0.9328888654708862
696,0.00011847541463794187,1.0,0.4884408116340637,0.9331111311912537
697,9.384478471474722e-05,1.0,0.4887602627277374,0.9331111311912537
698,0.00019613263430073857,1.0,0.48528939485549927,0.9333333373069763
699,0.00012030517973471433,1.0,0.4816073179244995,0.9328888654708862
700,5.0278264097869396e-05,1.0,0.4810740053653717,0.9328888654708862
701,7.402557821478695e-05,1.0,0.4822695255279541,0.9326666593551636
702,8.296652958961204e-05,1.0,0.48436760902404785,0.9328888654708862
703,0.00012123392662033439,1.0,0.4842902421951294,0.9326666593551636
704,6.817846588091925e-05,1.0,0.4851857125759125,0.9328888654708862
705,8.335893653566018e-05,1.0,0.48643070459365845,0.9328888654708862
706,0.0001146430367953144,1.0,0.48827773332595825,0.9333333373069763
707,6.888615462230518e-05,1.0,0.4890551269054413,0.9331111311912537
708,0.0001311156083829701,1.0,0.4899895191192627,0.9331111311912537
709,7.01152384863235e-05,1.0,0.4902275502681732,0.9328888654708862
710,5.445218994282186e-05,1.0,0.4910438358783722,0.9328888654708862
711,0.0001077253618859686,1.0,0.49170735478401184,0.9328888654708862
712,0.00013520765060093254,1.0,0.4913718104362488,0.9328888654708862
713,8.076563972281292e-05,1.0,0.49070459604263306,0.9328888654708862
714,8.565527241444215e-05,1.0,0.49196842312812805,0.9328888654708862
715,7.41692929295823e-05,1.0,0.49280643463134766,0.9331111311912537
716,0.00011955047375522554,1.0,0.4924541115760803,0.9333333373069763
717,5.821982631459832e-05,1.0,0.4926786422729492,0.9328888654708862
718,5.7723202189663425e-05,1.0,0.4935992956161499,0.9328888654708862
719,4.8538786359131336e-05,1.0,0.49508100748062134,0.9331111311912537
720,6.123782804934308e-05,1.0,0.4962402284145355,0.9331111311912537
721,6.017855412210338e-05,1.0,0.4978334307670593,0.9331111311912537
722,5.620414958684705e-05,1.0,0.49856704473495483,0.9328888654708862
723,6.395290984073654e-05,1.0,0.4992668628692627,0.9328888654708862
724,5.508941467269324e-05,1.0,0.4995742738246918,0.9328888654708862
725,4.7579898819094524e-05,1.0,0.5002397298812866,0.9328888654708862
726,8.757200703257695e-05,1.0,0.5000746250152588,0.9328888654708862
727,4.560216257232241e-05,1.0,0.4992097318172455,0.9333333373069763
728,8.334989252034575e-05,1.0,0.5001013875007629,0.9331111311912537
729,5.533632429433055e-05,1.0,0.5001120567321777,0.9331111311912537
730,5.7339202612638474e-05,1.0,0.5001580119132996,0.9331111311912537
731,5.775995668955147e-05,1.0,0.49966195225715637,0.9333333373069763
732,6.097551158745773e-05,1.0,0.5001686811447144,0.9333333373069763
733,6.11719733569771e-05,1.0,0.5004738569259644,0.9333333373069763
734,5.938098911428824e-05,1.0,0.500558078289032,0.9331111311912537
735,5.068078462500125e-05,1.0,0.5007737874984741,0.9328888654708862
736,0.000145993908517994,1.0,0.4997579753398895,0.9328888654708862
737,0.00010714426753111184,1.0,0.4988712668418884,0.9328888654708862
738,3.5929944715462625e-05,1.0,0.4983851909637451,0.9328888654708862
739,4.695374082075432e-05,1.0,0.49862951040267944,0.9328888654708862
740,8.26046452857554e-05,1.0,0.4990491569042206,0.9328888654708862
741,6.980541365919635e-05,1.0,0.4999421536922455,0.9326666593551636
742,5.5400716519216076e-05,1.0,0.5010868906974792,0.9328888654708862
743,8.555537351639941e-05,1.0,0.5030421018600464,0.9331111311912537
744,4.2001265683211386e-05,1.0,0.5043870806694031,0.9331111311912537
745,4.950449147145264e-05,1.0,0.5054575800895691,0.9331111311912537
746,6.395897798938677e-05,1.0,0.5071780681610107,0.9333333373069763
747,4.124685438000597e-05,1.0,0.5072804093360901,0.9333333373069763
748,6.146013038232923e-05,1.0,0.506905734539032,0.9333333373069763
749,6.912669778103009e-05,1.0,0.5069596767425537,0.9333333373069763
750,4.301937224227004e-05,1.0,0.5068091154098511,0.9333333373069763
751,5.667431832989678e-05,1.0,0.506195604801178,0.9333333373069763
752,4.807733785128221e-05,1.0,0.5063876509666443,0.9333333373069763
753,6.079754530219361e-05,1.0,0.5072328448295593,0.9333333373069763
754,4.94212654302828e-05,1.0,0.5081575512886047,0.9333333373069763
755,3.755525904125534e-05,1.0,0.5080609917640686,0.9333333373069763
756,4.31860244134441e-05,1.0,0.5081877708435059,0.9331111311912537
757,3.647767880465835e-05,1.0,0.5086137056350708,0.9331111311912537
758,5.117518230690621e-05,1.0,0.5089597105979919,0.9331111311912537
759,6.136195588624105e-05,1.0,0.5081391930580139,0.9328888654708862
760,5.3502561058849096e-05,1.0,0.5076281428337097,0.9328888654708862
761,5.9858579334104434e-05,1.0,0.5075449347496033,0.9328888654708862
762,7.769576768623665e-05,1.0,0.5071009397506714,0.9328888654708862
763,4.7999012167565525e-05,1.0,0.5067432522773743,0.9328888654708862
764,4.0214716136688367e-05,1.0,0.5069528818130493,0.9328888654708862
765,4.888986950390972e-05,1.0,0.5066476464271545,0.9328888654708862
766,3.834808376268484e-05,1.0,0.5054508447647095,0.9328888654708862
767,2.9018699933658354e-05,1.0,0.505650520324707,0.9331111311912537
768,3.748873859876767e-05,1.0,0.5062206983566284,0.9331111311912537
769,4.0477556467521936e-05,1.0,0.5074011087417603,0.9333333373069763
770,5.081088238512166e-05,1.0,0.5090031027793884,0.933555543422699
771,3.50623122358229e-05,1.0,0.5093371868133545,0.9333333373069763
772,3.5664415918290615e-05,1.0,0.510077178478241,0.9333333373069763
773,3.723940244526602e-05,1.0,0.510861337184906,0.9333333373069763
774,4.2824885895242915e-05,1.0,0.5111104846000671,0.9333333373069763
775,4.30860927735921e-05,1.0,0.5107037425041199,0.9326666593551636
776,5.956021050224081e-05,1.0,0.5096412897109985,0.9328888654708862
777,4.7615336370654404e-05,1.0,0.508358895778656,0.9328888654708862
778,3.60016492777504e-05,1.0,0.5086987018585205,0.9328888654708862
779,6.151836714707315e-05,1.0,0.5084916353225708,0.9328888654708862
780,3.712699981406331e-05,1.0,0.5086687803268433,0.9331111311912537
781,5.084441363578662e-05,1.0,0.5089660882949829,0.9331111311912537
782,5.210131348576397e-05,1.0,0.5096859931945801,0.9331111311912537
783,4.9034872063202783e-05,1.0,0.510617196559906,0.9326666593551636
784,5.511030030902475e-05,1.0,0.512321949005127,0.9328888654708862
785,8.139630517689511e-05,1.0,0.5117356181144714,0.9328888654708862
786,3.666470365715213e-05,1.0,0.5085500478744507,0.9326666593551636
787,0.00015850496129132807,1.0,0.511833906173706,0.9326666593551636
788,3.700598972500302e-05,1.0,0.514119565486908,0.9326666593551636
789,2.9983284548507072e-05,1.0,0.515332818031311,0.9326666593551636
790,5.2477073040790856e-05,1.0,0.5150036215782166,0.9331111311912537
791,3.517596996971406e-05,1.0,0.5145581960678101,0.9328888654708862
792,4.88262485305313e-05,1.0,0.5147213339805603,0.9328888654708862
793,2.7449885237729177e-05,1.0,0.5145093202590942,0.9326666593551636
794,4.097658165846951e-05,1.0,0.5144223570823669,0.9328888654708862
795,3.283520709373988e-05,1.0,0.5146649479866028,0.9326666593551636
796,2.902365849877242e-05,1.0,0.5151480436325073,0.9328888654708862
797,3.7201261875452474e-05,1.0,0.5153206586837769,0.9328888654708862
798,2.8607359126908705e-05,1.0,0.5154028534889221,0.9328888654708862
799,3.612761793192476e-05,1.0,0.5158783793449402,0.9333333373069763
