,loss,recall,val_loss,val_recall
0,4.011204242706299,0.5377604166666666,1.3519492149353027,0.21141770094562645
1,1.370757818222046,0.4001736111111111,0.42637869715690613,0.7302526251329448
2,0.6195752620697021,0.8151041666666666,0.33167803287506104,0.7329675850154574
3,0.4215424358844757,0.7996651785714286,0.2655875086784363,0.7547489370361712
4,0.28927698731422424,0.8932291666666666,0.2637450397014618,0.7553473683526876
5,0.288552850484848,0.8907552083333333,0.24520716071128845,0.7624071574603488
6,0.2493928074836731,0.8960193452380952,0.26175254583358765,0.7760306094614607
7,0.2264447957277298,0.9084201388888888,0.25125667452812195,0.7899352209059659
8,0.2051442563533783,0.8802083333333333,0.27135881781578064,0.7965905292501039
9,0.20381629467010498,0.8927951388888888,0.28783294558525085,0.7952526831915132
10,0.20319876074790955,0.8960193452380952,0.29046955704689026,0.8001839142929568
11,0.1928844451904297,0.9362980769230769,0.2995626926422119,0.8258665344702579
12,0.23662230372428894,0.84375,0.34758150577545166,0.8138694220476138
13,0.1376766562461853,0.9388020833333334,0.3221142888069153,0.8230597834986134
14,0.14336414635181427,0.9032738095238095,0.31892096996307373,0.829070043431746
15,0.13084720075130463,0.9388020833333334,0.3500165641307831,0.8223438849369702
16,0.1338808834552765,0.9305555555555556,0.3237297832965851,0.8325865530253831
17,0.1184769943356514,0.9409722222222222,0.3592491149902344,0.8323905389330923
18,0.10675331205129623,0.9461805555555556,0.3577631711959839,0.8311892973063189
19,0.11701146513223648,0.9241071428571429,0.3735395073890686,0.831397775786074
20,0.10907329618930817,0.9388020833333334,0.37013110518455505,0.8367739215079645
21,0.16324372589588165,0.9127604166666667,0.38428786396980286,0.8281286424371533
22,0.12971848249435425,0.8993055555555556,0.40507420897483826,0.8298419542435502
23,0.09945203363895416,0.9565972222222222,0.43581312894821167,0.830664456209669
24,0.11398878693580627,0.9105113636363636,0.4254506528377533,0.8343322767657875
25,0.10873684287071228,0.9537037037037037,0.419329971075058,0.8304375539747884
26,0.13314597308635712,0.9097222222222222,0.42263063788414,0.8274386365210835
27,0.11291376501321793,0.9670138888888888,0.4110996723175049,0.8312589720169511
28,0.09330857545137405,0.953125,0.4762532413005829,0.8140250401686572
29,0.09687589108943939,0.9296875,0.4664033353328705,0.7986229260298411
30,0.10407233983278275,0.921875,0.4384022355079651,0.8323855522924675
31,0.12183132767677307,0.9201388888888888,0.4332069158554077,0.8259920590638676
32,0.139935702085495,0.8824404761904763,0.4596916139125824,0.8204321564959863
33,0.10055243223905563,0.8948863636363636,0.48140856623649597,0.8206684248572551
34,0.13256710767745972,0.9380787037037037,0.5006873607635498,0.8270635097762759
35,0.11563115566968918,0.9032738095238096,0.48478761315345764,0.8278553199164905
36,0.16889607906341553,0.8984375,0.48663485050201416,0.8342981599763513
37,0.1030173972249031,0.9375,0.40639540553092957,0.8047668840222031
38,0.07550688832998276,0.9479166666666666,0.42347609996795654,0.8261143469742762
39,0.09309151768684387,0.9375,0.5004762411117554,0.8292497192851804
40,0.09219426661729813,0.9222222222222222,0.5237439870834351,0.8253104207980098
41,0.09127410501241684,0.9322916666666666,0.4788549244403839,0.8321144005718477
42,0.08964948356151581,0.953125,0.4796447455883026,0.8352011975416234
43,0.11788304150104523,0.9267113095238095,0.5435417294502258,0.8193565767368962
44,0.15997791290283203,0.8802083333333334,0.5207629799842834,0.8249100269313039
45,0.0960829108953476,0.9357638888888888,0.47755712270736694,0.8290991273305107
46,0.0764191672205925,0.96875,0.4693741798400879,0.8321180474371966
47,0.07337389141321182,0.9553571428571429,0.49325668811798096,0.8321399645468797
48,0.08416036516427994,0.9375,0.5213131308555603,0.8319635063518047
49,0.06600519269704819,0.953125,0.5500809550285339,0.8344705639120534
50,0.0711275190114975,0.953125,0.5821450352668762,0.8327568245387399
51,0.06966672092676163,0.984375,0.6457556486129761,0.8315783894329997
52,0.12974107265472412,0.9270833333333334,0.6130119562149048,0.8223567660668727
53,0.07244730740785599,0.9583333333333334,0.5955053567886353,0.8222965440784591
54,0.06445469707250595,0.9618055555555556,0.6221402287483215,0.8275845175313261
55,0.1367313712835312,0.8984375,0.6017094850540161,0.8323697559335861
56,0.1559152752161026,0.9380787037037037,0.4952065050601959,0.8303820601515639
57,0.11472731083631516,0.921875,0.5072524547576904,0.8293466815231003
58,0.13045427203178406,0.9305555555555556,0.523530900478363,0.8281346431346434
59,0.11302836239337921,0.8828125,0.5045599937438965,0.8145077878189582
60,0.07252896577119827,0.9513888888888888,0.4895552396774292,0.8218890624741688
61,0.06729894131422043,0.9609375,0.49075472354888916,0.8192186374500208
62,0.06755105406045914,0.96875,0.550595760345459,0.8228058466356342
63,0.07034164667129517,0.96875,0.5695779919624329,0.8210687504969422
64,0.08383472263813019,0.9583333333333333,0.5951244235038757,0.8154471779205823
65,0.06980903446674347,0.96875,0.5085816979408264,0.8148418878206116
66,0.09059294313192368,0.9479166666666666,0.6441308856010437,0.8139034458449353
67,0.05214662849903107,0.953125,0.5609945058822632,0.8154674551217111
68,0.07144727557897568,0.953125,0.6553589701652527,0.8244750895282814
69,0.07460834830999374,0.9270833333333334,0.6421257257461548,0.8276669700472897
70,0.056209664791822433,0.96875,0.6571341753005981,0.8275618855140137
71,0.0645788386464119,0.9670138888888888,0.6603894233703613,0.8189368693756996
72,0.07835710793733597,0.921875,0.6755757331848145,0.8245434106870283
73,0.050598565489053726,0.9670138888888888,0.6730432510375977,0.8165777406202942
74,0.049107134342193604,0.96875,0.6746537685394287,0.8201925694478891
75,0.04478584975004196,0.984375,0.708124577999115,0.8223291833265243
76,0.0752527266740799,0.921875,0.7273539304733276,0.82718495993762
77,0.06062545254826546,0.9791666666666666,0.6878892183303833,0.8266134520522821
78,0.07031958550214767,0.953125,0.6930731534957886,0.8314844331200717
79,0.07678721845149994,0.96875,0.7277814149856567,0.831520073536918
80,0.06186309829354286,0.9722222222222222,0.7324863076210022,0.8281411609470121
81,0.07835270464420319,0.921875,0.7533798813819885,0.8252464187703555
82,0.059539832174777985,0.953125,0.7662555575370789,0.8269282401995174
83,0.046942755579948425,0.984375,0.7668164968490601,0.8262727136929269
84,0.06934598833322525,0.9375,0.7847285270690918,0.8230279959402305
85,0.07105985283851624,0.9670138888888888,0.768693745136261,0.8278947997432045
86,0.1373365968465805,0.8836805555555556,0.7291489243507385,0.8270335549989807
87,0.09271081537008286,0.9618055555555556,0.69347083568573,0.8237781584058183
88,0.06284932047128677,0.953125,0.7035557627677917,0.8246161959592814
89,0.06515896320343018,0.9826388888888888,0.7332836985588074,0.8236175123143212
90,0.0700981616973877,0.90625,0.7665783762931824,0.8228794698209594
91,0.051345907151699066,0.953125,0.8334671854972839,0.8235047173079089
92,0.04093383997678757,0.9722222222222222,0.8191396594047546,0.8242644550091361
93,0.046822648495435715,0.96875,0.8297982215881348,0.8236232979982983
94,0.042572274804115295,0.9791666666666666,0.8427334427833557,0.8267838549354511
95,0.04482707753777504,0.96875,0.8009677529335022,0.8288605961611287
96,0.06831365078687668,0.953125,0.9805884957313538,0.8292951676639624
97,0.07364942133426666,0.9348958333333334,0.9886066317558289,0.8163485075142878
98,0.24356411397457123,0.8333333333333333,0.8948951363563538,0.8327957355882891
99,0.13956601917743683,0.9461805555555556,0.7307251691818237,0.8160706885706891
100,0.0889517143368721,0.9479166666666666,0.8600906729698181,0.8073289407597921
101,0.06536253541707993,0.96875,0.7255814075469971,0.8076550267108783
102,0.07093353569507599,0.9635416666666666,0.8118901252746582,0.817864071507689
103,0.05115899816155434,0.96875,0.7043930888175964,0.8119488997015596
104,0.06326407194137573,0.96875,0.7675043344497681,0.8216781307738759
105,0.04932471737265587,0.96875,0.7737232446670532,0.8180873805075937
106,0.04543611407279968,0.96875,0.800250232219696,0.8182013622705115
107,0.04269976168870926,0.96875,0.8258960247039795,0.8242920530021599
108,0.05592544376850128,0.96875,0.8445037007331848,0.8246027237472281
109,0.07690805941820145,0.921875,0.8522389531135559,0.8197155691038676
110,0.07196665555238724,0.9826388888888888,0.8385482430458069,0.8223760931739661
111,0.0727166011929512,0.9479166666666666,0.7892829775810242,0.8276517457457179
112,0.04735402762889862,0.9826388888888888,0.8173835873603821,0.8224856811824903
113,0.041423480957746506,0.96875,0.8202775716781616,0.8246286401738532
114,0.05290450528264046,0.96875,0.815197765827179,0.8154565893129727
115,0.04218883812427521,0.96875,0.8401419520378113,0.8164286708169691
116,0.04805799573659897,0.9739583333333334,0.9569304585456848,0.8199118907097632
117,0.06995005905628204,0.9565972222222222,0.9415477514266968,0.8247785493663156
118,0.061526089906692505,0.9573863636363636,0.9303385019302368,0.8231136903876268
119,0.06883294880390167,0.9618055555555556,0.9249173998832703,0.8121184317061978
120,0.0687192752957344,0.9417613636363636,0.9406986832618713,0.813974795397668
121,0.0708281472325325,0.8993055555555556,0.9063258171081543,0.8199264988360735
122,0.06565755605697632,0.9722222222222222,0.9873335361480713,0.8168425122946401
123,0.08777441084384918,0.9513888888888888,0.9387792348861694,0.8157801954743448
124,0.15818023681640625,0.9140625,0.8023912906646729,0.8302648300609301
125,0.04537910595536232,0.96875,0.6620243191719055,0.8234758813881159
126,0.041698381304740906,0.96875,0.7095966935157776,0.8188995692054206
127,0.05229964479804039,0.9635416666666666,0.7919991612434387,0.8203540332795655
128,0.035305339843034744,0.96875,0.7928149700164795,0.8208116922478629
129,0.03774791583418846,0.96875,0.8211702108383179,0.823586872150702
130,0.043847374618053436,0.96875,0.8071447014808655,0.8203967260084285
131,0.044885337352752686,0.953125,0.8013871908187866,0.8243043776554418
132,0.04299888014793396,0.96875,0.8125354051589966,0.8239600942792435
133,0.03908713907003403,0.984375,0.7948969006538391,0.8207518269752315
134,0.03236842900514603,0.984375,0.7987241744995117,0.8214612633229658
135,0.034535523504018784,0.984375,0.821269690990448,0.8194591947650461
136,0.036307476460933685,0.96875,0.8452609181404114,0.822141971503674
137,0.041873909533023834,0.9774305555555556,0.85856693983078,0.8245555488640599
138,0.07673779875040054,0.9573863636363636,0.848132312297821,0.820833615753829
139,0.05486983805894852,0.953125,0.8250219225883484,0.8181238599855624
140,0.058413103222846985,0.9583333333333334,0.8118624687194824,0.8209381703796601
141,0.0423659086227417,0.984375,0.8363550901412964,0.8248090286388163
142,0.03280757740139961,0.984375,0.8464954495429993,0.8230339223424333
143,0.03566111996769905,0.984375,0.8736870288848877,0.8145082813167923
144,0.058770306408405304,0.9427083333333334,0.9842722415924072,0.800305702965278
145,0.03500690683722496,0.96875,0.9838131070137024,0.7981769176450033
146,0.08422063291072845,0.9135416666666666,1.007548451423645,0.7986845458520994
147,0.04977210611104965,0.9375,0.7819951772689819,0.8242761798878826
148,0.05655330419540405,0.9495738636363636,0.902624249458313,0.8111640711862347
149,0.03735913336277008,0.984375,0.8017506003379822,0.8243003657099408
150,0.06048306077718735,0.953125,0.8093255758285522,0.8247109814928969
151,0.05238945409655571,0.96875,0.7881957292556763,0.8249826208070893
152,0.04686982184648514,0.9670138888888888,0.7713419198989868,0.8257954604497162
153,0.05084748566150665,0.953125,0.7832743525505066,0.8326447193468474
154,0.03212056681513786,0.96875,0.7723386883735657,0.8226924917084492
155,0.03696775808930397,0.984375,0.810183584690094,0.8225571365199026
156,0.05191434174776077,0.96875,0.8341695666313171,0.8261533029618138
157,0.06345459818840027,0.9427083333333334,0.8192113637924194,0.8315307796025884
158,0.03299804404377937,0.984375,0.824105978012085,0.8252425937931259
159,0.028369054198265076,0.984375,0.8570966124534607,0.8272152074678673
160,0.04534898325800896,0.9375,0.8716862797737122,0.8289993251429426
161,0.054575156420469284,0.96875,0.8776608109474182,0.8260249387465705
162,0.05054734647274017,0.9375,0.8360288739204407,0.8276629833589058
163,0.04493840038776398,0.9479166666666666,0.8523118495941162,0.8250420875420881
164,0.03665880858898163,0.953125,0.8657095432281494,0.8217508697960829
165,0.043384164571762085,0.9722222222222222,0.8617015480995178,0.8122689077077379
166,0.05326007306575775,0.953125,0.8596919178962708,0.811728705527465
167,0.028714831918478012,0.984375,0.8970932960510254,0.8090973540840566
168,0.02985335886478424,0.984375,0.9215649366378784,0.8081774465684043
169,0.03581397235393524,0.9479166666666666,0.9278940558433533,0.8148201586632442
170,0.04056935012340546,0.9791666666666666,0.921567440032959,0.8222646344986774
171,0.041284702718257904,0.9774305555555556,0.9227678775787354,0.8128644188750576
172,0.03109525516629219,0.96875,0.9365136623382568,0.8158832105640619
173,0.029526066035032272,0.984375,0.9788603782653809,0.8173449481960121
174,0.0310685895383358,0.96875,0.9747448563575745,0.8159925299287003
175,0.027084074914455414,0.984375,0.9992453455924988,0.8078751787351078
176,0.03410535678267479,0.984375,1.008514642715454,0.8111624038884678
177,0.03793217986822128,0.9375,0.9941580295562744,0.8177398251866337
178,0.02721383236348629,0.984375,1.0124568939208984,0.8188576445225383
179,0.04348936304450035,0.953125,1.030405879020691,0.8200638329361736
180,0.02901829220354557,0.984375,1.0548415184020996,0.8108937598387954
181,0.03259815648198128,0.953125,1.079867959022522,0.8119476588226591
182,0.12686403095722198,0.8776041666666666,1.029893159866333,0.8185015987099322
183,0.0560256727039814,0.96875,0.8255603313446045,0.7718702642904772
184,0.046299513429403305,0.984375,0.8165868520736694,0.8109587560784374
185,0.039117973297834396,0.96875,0.807253360748291,0.8156857922416437
186,0.03245365619659424,0.96875,0.8209279179573059,0.8147223840973845
187,0.034317757934331894,0.984375,0.8635354042053223,0.8108695461355039
188,0.04016486555337906,0.96875,0.853951096534729,0.8080578877387393
189,0.030211221426725388,0.96875,0.8971256613731384,0.8085654692037676
190,0.0301702581346035,0.96875,0.8917993307113647,0.8137733897308372
191,0.04081319645047188,0.96875,0.871421217918396,0.8091828094088739
192,0.06992564350366592,0.90625,0.8605585098266602,0.8152393582579759
193,0.09599373489618301,0.9826388888888888,0.8458051085472107,0.8161421375118189
194,0.14233210682868958,0.8857638888888888,0.6898276209831238,0.8078918500727015
195,0.06253862380981445,0.9565972222222222,0.6755139231681824,0.8149109046981392
196,0.05393093451857567,0.953125,0.7034381031990051,0.8204285032343547
197,0.04504428803920746,0.96875,0.7195975184440613,0.8218018663763351
198,0.03380918130278587,0.984375,0.719992995262146,0.8196439125295508
199,0.10731401294469833,0.9375,0.8396502733230591,0.8122548427734602
