,loss,recall,val_loss,val_recall
0,0.6550084352493286,0.5047410922410922,0.653076171875,0.4479166666666666
1,0.4495544731616974,0.8375541125541125,0.5661953091621399,0.7648886827458256
2,0.3622913658618927,0.8508761080189652,0.450607568025589,0.8050136371564942
3,0.3069830536842346,0.8567975675118531,0.3922664523124695,0.8555111555111556
4,0.25184741616249084,0.9257369614512472,0.3237442970275879,0.8848587920016493
5,0.21146252751350403,0.9375,0.28867247700691223,0.8848587920016493
6,0.1862877458333969,0.9642857142857143,0.47097328305244446,0.8403318903318903
7,0.17632170021533966,0.9261904761904762,0.39256852865219116,0.884722420436706
8,0.1713108867406845,0.9642857142857143,0.5537305474281311,0.8096807953950812
9,0.11902657896280289,0.9642857142857143,1.2863872051239014,0.3340561224489796
10,0.13402928411960602,0.9761904761904762,0.5425914525985718,0.7897959183673467
11,0.10499141365289688,0.9761904761904762,0.27034229040145874,0.8774891774891775
12,0.10130578279495239,0.9523809523809524,0.27817732095718384,0.8899299113584827
13,0.0804004818201065,0.9761904761904762,0.2624504268169403,0.8880333951762525
14,0.05084872245788574,1.0,0.26372942328453064,0.8848587920016493
15,0.03445367142558098,1.0,0.26506900787353516,0.8876623376623376
16,0.02599896304309368,1.0,0.3265235126018524,0.8953463203463203
17,0.018145443871617317,1.0,0.26179584860801697,0.8880333951762525
18,0.01610621251165867,1.0,0.38942915201187134,0.8863481756338898
19,0.016783565282821655,1.0,0.30019769072532654,0.8938775510204081
20,0.020242825150489807,1.0,0.33419474959373474,0.8848587920016493
21,0.04437790438532829,1.0,0.3434423506259918,0.8788806431663574
22,0.055554986000061035,1.0,0.4529976546764374,0.8539210789210789
23,0.046382177621126175,1.0,0.31299999356269836,0.859297052154195
24,0.037644557654857635,1.0,0.30568286776542664,0.889620696763554
25,0.029215088114142418,1.0,0.31993430852890015,0.8284013605442178
26,0.018037576228380203,1.0,0.42226600646972656,0.8902442795299937
27,0.010143817402422428,1.0,0.3022247850894928,0.8876623376623376
28,0.0070213801227509975,1.0,0.3190312683582306,0.8950319521748094
29,0.005538599099963903,1.0,0.32854053378105164,0.8950319521748094
30,0.004406367428600788,1.0,0.31422874331474304,0.8774891774891775
31,0.003902902826666832,1.0,0.3336039185523987,0.8950319521748094
32,0.0034811256919056177,1.0,0.3517009913921356,0.8950319521748094
33,0.0031677470542490482,1.0,0.3418988883495331,0.8950319521748094
34,0.002959104022011161,1.0,0.3389708399772644,0.8953463203463203
35,0.0027658718172460794,1.0,0.34486016631126404,0.8848587920016493
36,0.002598255407065153,1.0,0.3489837050437927,0.8848587920016493
37,0.002454770030453801,1.0,0.34951430559158325,0.8953463203463203
38,0.0023274444974958897,1.0,0.3508433997631073,0.8953463203463203
39,0.0022146126721054316,1.0,0.35317617654800415,0.8953463203463203
40,0.0021119245793670416,1.0,0.3551604449748993,0.8953463203463203
41,0.0020170817151665688,1.0,0.35728171467781067,0.8953463203463203
42,0.0019303166773170233,1.0,0.35924699902534485,0.8953463203463203
43,0.001850755768828094,1.0,0.3608555197715759,0.8953463203463203
44,0.001776830991730094,1.0,0.36199989914894104,0.8953463203463203
45,0.0017077772645279765,1.0,0.3629834055900574,0.8953463203463203
46,0.0016431910917162895,1.0,0.36462050676345825,0.8953463203463203
47,0.0015826541930437088,1.0,0.36610549688339233,0.8953463203463203
48,0.0015259841457009315,1.0,0.3669169247150421,0.8953463203463203
49,0.0014724212232977152,1.0,0.36788225173950195,0.8953463203463203
50,0.00142202980350703,1.0,0.3693319261074066,0.8953463203463203
51,0.0013747001066803932,1.0,0.37087756395339966,0.8953463203463203
52,0.001329659833572805,1.0,0.37229683995246887,0.8953463203463203
53,0.001287266262806952,1.0,0.37307241559028625,0.8953463203463203
54,0.001246986328624189,1.0,0.3738298714160919,0.8953463203463203
55,0.0012086936039850116,1.0,0.37482601404190063,0.8953463203463203
56,0.0011724494397640228,1.0,0.37585902214050293,0.8953463203463203
57,0.0011379419593140483,1.0,0.37672358751296997,0.8953463203463203
58,0.0011050824541598558,1.0,0.3776814937591553,0.8953463203463203
59,0.001073699095286429,1.0,0.3786555826663971,0.8953463203463203
60,0.0010438122553750873,1.0,0.37991973757743835,0.8953463203463203
61,0.0010152251925319433,1.0,0.3811679482460022,0.8953463203463203
62,0.0009877701522782445,1.0,0.38230153918266296,0.8953463203463203
63,0.0009614729206077754,1.0,0.38324323296546936,0.8953463203463203
64,0.0009361107950098813,1.0,0.3841997981071472,0.8953463203463203
65,0.0009118943125940859,1.0,0.38545316457748413,0.8953463203463203
66,0.0008887705625966191,1.0,0.3865618109703064,0.8953463203463203
67,0.0008665728382766247,1.0,0.3875269293785095,0.8953463203463203
68,0.000845118542201817,1.0,0.38826611638069153,0.8953463203463203
69,0.0008245924836955965,1.0,0.3891026973724365,0.8953463203463203
70,0.0008047128212638199,1.0,0.39018747210502625,0.8953463203463203
71,0.0007856081356294453,1.0,0.39110255241394043,0.8953463203463203
72,0.0007670962950214744,1.0,0.39194145798683167,0.8953463203463203
73,0.0007493989542126656,1.0,0.39295193552970886,0.8953463203463203
74,0.0007322778692469001,1.0,0.3939979374408722,0.9055194805194804
75,0.0007158165681175888,1.0,0.3948819041252136,0.9055194805194804
76,0.0006999586476013064,1.0,0.39568963646888733,0.9055194805194804
77,0.0006846262840554118,1.0,0.396735817193985,0.9055194805194804
78,0.0006697823409922421,1.0,0.39758825302124023,0.9055194805194804
79,0.0006553844432346523,1.0,0.39860668778419495,0.9055194805194804
80,0.0006415463867597282,1.0,0.39967110753059387,0.9055194805194804
81,0.0006280979723669589,1.0,0.400500625371933,0.9055194805194804
82,0.0006150724948383868,1.0,0.4012790322303772,0.9055194805194804
83,0.0006024516187608242,1.0,0.4021359384059906,0.9055194805194804
84,0.000590154726523906,1.0,0.4029715359210968,0.9055194805194804
85,0.0005782921798527241,1.0,0.4037754237651825,0.9055194805194804
86,0.0005667996010743082,1.0,0.4047079384326935,0.9055194805194804
87,0.0005555564421229064,1.0,0.4053894877433777,0.9055194805194804
88,0.0005446585710160434,1.0,0.4058990180492401,0.9055194805194804
89,0.0005341432988643646,1.0,0.40648314356803894,0.9055194805194804
90,0.0005239203455857933,1.0,0.40717434883117676,0.9055194805194804
91,0.0005140073481015861,1.0,0.40784257650375366,0.9055194805194804
92,0.0005044334684498608,1.0,0.40834736824035645,0.9055194805194804
93,0.0004951252485625446,1.0,0.4089657962322235,0.9055194805194804
94,0.00048603262985125184,1.0,0.40963929891586304,0.9055194805194804
95,0.00047717400593683124,1.0,0.4102954566478729,0.9055194805194804
96,0.00046858517453074455,1.0,0.4109072685241699,0.9055194805194804
97,0.0004602175031322986,1.0,0.4116571545600891,0.9055194805194804
98,0.00045199302257969975,1.0,0.4123072028160095,0.9055194805194804
99,0.00044403239735402167,1.0,0.41307973861694336,0.9055194805194804
100,0.0004362734325695783,1.0,0.41391047835350037,0.9055194805194804
101,0.0004287154588382691,1.0,0.41443726420402527,0.9055194805194804
102,0.0004213541396893561,1.0,0.41481858491897583,0.9055194805194804
103,0.0004141543176956475,1.0,0.4156012237071991,0.9055194805194804
104,0.000407204293878749,1.0,0.4163286089897156,0.9055194805194804
105,0.0004003860813099891,1.0,0.4169120490550995,0.9055194805194804
106,0.000393709255149588,1.0,0.41748103499412537,0.9055194805194804
107,0.0003871684311889112,1.0,0.41788938641548157,0.9055194805194804
108,0.0003808210603892803,1.0,0.418353796005249,0.9055194805194804
109,0.00037466196226887405,1.0,0.418820858001709,0.9055194805194804
110,0.0003686048148665577,1.0,0.41925427317619324,0.9055194805194804
111,0.0003627156256698072,1.0,0.4196605086326599,0.9055194805194804
112,0.00035698810825124383,1.0,0.4201347529888153,0.9055194805194804
113,0.00035137427039444447,1.0,0.4208773672580719,0.9055194805194804
114,0.0003458932915236801,1.0,0.4214838445186615,0.9055194805194804
115,0.0003405804163776338,1.0,0.42191389203071594,0.9055194805194804
116,0.00033539184369146824,1.0,0.42249003052711487,0.9055194805194804
117,0.00033031386556103826,1.0,0.42304083704948425,0.9055194805194804
118,0.0003253379836678505,1.0,0.423469603061676,0.9055194805194804
119,0.0003204875683877617,1.0,0.4239560067653656,0.9055194805194804
120,0.0003157657920382917,1.0,0.42458635568618774,0.9055194805194804
121,0.00031112373108044267,1.0,0.4250325858592987,0.9055194805194804
122,0.0003065741911996156,1.0,0.42548584938049316,0.9055194805194804
123,0.0003021277952939272,1.0,0.4260406792163849,0.9055194805194804
124,0.00029775156872346997,1.0,0.426523357629776,0.9055194805194804
125,0.00029347106465138495,1.0,0.42708107829093933,0.9055194805194804
126,0.0002893043274525553,1.0,0.42767980694770813,0.9055194805194804
127,0.00028521832427941263,1.0,0.4280967116355896,0.9055194805194804
128,0.00028123665833845735,1.0,0.4284227788448334,0.9055194805194804
129,0.00027730915462598205,1.0,0.4289748966693878,0.9055194805194804
130,0.0002734805748332292,1.0,0.4295103847980499,0.9055194805194804
131,0.00026973173953592777,1.0,0.4300791919231415,0.9055194805194804
132,0.00026604774757288396,1.0,0.4306482672691345,0.9055194805194804
133,0.00026244038599543273,1.0,0.43101972341537476,0.9055194805194804
134,0.0002589052601251751,1.0,0.43150073289871216,0.9055194805194804
135,0.0002554403617978096,1.0,0.43217626214027405,0.9055194805194804
136,0.00025205526617355645,1.0,0.4326428771018982,0.9055194805194804
137,0.0002487243327777833,1.0,0.43309441208839417,0.9055194805194804
138,0.0002454764035064727,1.0,0.43363264203071594,0.9055194805194804
139,0.00024228161782957613,1.0,0.4340873062610626,0.9055194805194804
140,0.00023914850316941738,1.0,0.43459370732307434,0.9055194805194804
141,0.00023610690550412983,1.0,0.43497103452682495,0.9055194805194804
142,0.00023308336676564068,1.0,0.43524911999702454,0.9055194805194804
143,0.00023012787278275937,1.0,0.4355755150318146,0.9055194805194804
144,0.00022723515576217324,1.0,0.43602702021598816,0.9055194805194804
145,0.00022439561143983155,1.0,0.4365263283252716,0.9055194805194804
146,0.00022160712978802621,1.0,0.43689092993736267,0.9055194805194804
147,0.0002188601065427065,1.0,0.43728014826774597,0.9055194805194804
148,0.00021617797028739005,1.0,0.4376528561115265,0.9055194805194804
149,0.00021353305783122778,1.0,0.43801894783973694,0.9055194805194804
150,0.00021096048294566572,1.0,0.4382539689540863,0.9055194805194804
151,0.00020841555669903755,1.0,0.43858781456947327,0.9055194805194804
152,0.0002059248654404655,1.0,0.4389849305152893,0.9055194805194804
153,0.0002034831268247217,1.0,0.43927380442619324,0.9055194805194804
154,0.0002010785974562168,1.0,0.43961331248283386,0.9055194805194804
155,0.00019871343101840466,1.0,0.4399678409099579,0.9055194805194804
156,0.00019638761295937002,1.0,0.4403610825538635,0.9055194805194804
157,0.00019412032270338386,1.0,0.44074130058288574,0.9055194805194804
158,0.00019187531142961234,1.0,0.4411090016365051,0.9055194805194804
159,0.0001896771864267066,1.0,0.4414110779762268,0.9055194805194804
160,0.0001875141024356708,1.0,0.44180727005004883,0.9055194805194804
161,0.00018537869618739933,1.0,0.4422418475151062,0.9055194805194804
162,0.00018327943689655513,1.0,0.4425346255302429,0.9055194805194804
163,0.0001812270056689158,1.0,0.4428393840789795,0.9055194805194804
164,0.00017919903621077538,1.0,0.4432973861694336,0.9055194805194804
165,0.00017721466429065913,1.0,0.44362667202949524,0.9055194805194804
166,0.00017523988208267838,1.0,0.4440510869026184,0.9055194805194804
167,0.00017331189883407205,1.0,0.4444107711315155,0.9055194805194804
168,0.00017139561532530934,1.0,0.4448305070400238,0.9055194805194804
169,0.0001695261598797515,1.0,0.4452934265136719,0.9055194805194804
170,0.00016767896886449307,1.0,0.44549107551574707,0.9055194805194804
171,0.0001658510009292513,1.0,0.44588521122932434,0.9055194805194804
172,0.00016406128997914493,1.0,0.4462625980377197,0.9055194805194804
173,0.00016230456822086126,1.0,0.44652000069618225,0.9055194805194804
174,0.0001605595462024212,1.0,0.44685736298561096,0.9055194805194804
175,0.00015886030450928956,1.0,0.44707030057907104,0.9055194805194804
176,0.0001571791071910411,1.0,0.4473661780357361,0.9055194805194804
177,0.00015552026161458343,1.0,0.447653204202652,0.9055194805194804
178,0.00015388056635856628,1.0,0.4479709565639496,0.9055194805194804
179,0.00015228234406094998,1.0,0.4484991729259491,0.9055194805194804
180,0.00015070328663568944,1.0,0.4488096833229065,0.9055194805194804
181,0.0001491444418206811,1.0,0.4490060806274414,0.9055194805194804
182,0.00014760367048438638,1.0,0.4492804706096649,0.9055194805194804
183,0.00014608100173063576,1.0,0.44973745942115784,0.9055194805194804
184,0.00014460088277701288,1.0,0.45011988282203674,0.9055194805194804
185,0.00014312288840301335,1.0,0.4505307972431183,0.9055194805194804
186,0.00014167999324854463,1.0,0.45088687539100647,0.9055194805194804
187,0.00014025626296643168,1.0,0.4511567950248718,0.9055194805194804
188,0.0001388569944538176,1.0,0.45149660110473633,0.9055194805194804
189,0.0001374641142319888,1.0,0.4517917335033417,0.9055194805194804
190,0.0001361095200991258,1.0,0.4520995020866394,0.9055194805194804
191,0.0001347655925201252,1.0,0.45249730348587036,0.9055194805194804
192,0.00013343759928829968,1.0,0.452810674905777,0.9055194805194804
193,0.00013212770863901824,1.0,0.4531410038471222,0.9055194805194804
194,0.00013084120291750878,1.0,0.45344433188438416,0.9055194805194804
195,0.00012957493891008198,1.0,0.45374414324760437,0.9055194805194804
196,0.000128318220959045,1.0,0.45401883125305176,0.9055194805194804
197,0.00012707641872111708,1.0,0.4543101489543915,0.9055194805194804
198,0.0001258526899619028,1.0,0.4544823467731476,0.9055194805194804
199,0.0001246544998139143,1.0,0.45469751954078674,0.9055194805194804
200,0.00012345737195573747,1.0,0.4550979733467102,0.9055194805194804
201,0.00012229217099957168,1.0,0.4555204212665558,0.9055194805194804
202,0.0001211344133480452,1.0,0.4558204114437103,0.9055194805194804
203,0.00011999473645118997,1.0,0.4560905992984772,0.9055194805194804
204,0.00011885613639606163,1.0,0.45641276240348816,0.9055194805194804
205,0.00011775794700952247,1.0,0.4567836821079254,0.9055194805194804
206,0.0001166448782896623,1.0,0.45719558000564575,0.9055194805194804
207,0.00011555732635315508,1.0,0.4575227200984955,0.9055194805194804
208,0.00011448362783994526,1.0,0.4577849507331848,0.9055194805194804
209,0.00011342480866005644,1.0,0.4581103026866913,0.9055194805194804
210,0.00011238089791731909,1.0,0.45844802260398865,0.9055194805194804
211,0.00011134124360978603,1.0,0.4586864113807678,0.9055194805194804
212,0.00011031860049115494,1.0,0.4589782655239105,0.9055194805194804
213,0.00010931191354757175,1.0,0.45928898453712463,0.9055194805194804
214,0.00010831483086803928,1.0,0.45954856276512146,0.9055194805194804
215,0.00010733261296991259,1.0,0.45982885360717773,0.9055194805194804
216,0.00010635571379680187,1.0,0.46012061834335327,0.9055194805194804
217,0.00010539798677200451,1.0,0.46039527654647827,0.9055194805194804
218,0.00010445302177686244,1.0,0.460742324590683,0.9055194805194804
219,0.00010351336823077872,1.0,0.461016446352005,0.9055194805194804
220,0.00010258967085974291,1.0,0.4612743556499481,0.9055194805194804
221,0.00010166811989620328,1.0,0.4615492522716522,0.9055194805194804
222,0.00010077316255774349,1.0,0.46188491582870483,0.9055194805194804
223,9.987713565351442e-05,1.0,0.4622805118560791,0.8965367965367965
224,9.899387805489823e-05,1.0,0.4626362919807434,0.8965367965367965
225,9.812445205170661e-05,1.0,0.4627974033355713,0.8965367965367965
226,9.725609561428428e-05,1.0,0.463066965341568,0.8965367965367965
227,9.641965880291536e-05,1.0,0.4633597433567047,0.8965367965367965
228,9.558002057019621e-05,1.0,0.4636703133583069,0.8965367965367965
229,9.47552834986709e-05,1.0,0.46397048234939575,0.8965367965367965
230,9.39316232688725e-05,1.0,0.4642476737499237,0.8965367965367965
231,9.312283509643748e-05,1.0,0.4645399749279022,0.8965367965367965
232,9.231938020093367e-05,1.0,0.46484559774398804,0.8965367965367965
233,9.15350901777856e-05,1.0,0.4649978578090668,0.8965367965367965
234,9.074654371943325e-05,1.0,0.4653758704662323,0.8965367965367965
235,8.997712575364858e-05,1.0,0.4655993580818176,0.8965367965367965
236,8.919813262764364e-05,1.0,0.4657718539237976,0.8965367965367965
237,8.845215052133426e-05,1.0,0.46605184674263,0.8965367965367965
238,8.771467400947586e-05,1.0,0.46625927090644836,0.8965367965367965
239,8.696548320585862e-05,1.0,0.46655675768852234,0.8965367965367965
240,8.624607289675623e-05,1.0,0.46686026453971863,0.8965367965367965
241,8.55213584145531e-05,1.0,0.4669436514377594,0.8965367965367965
242,8.481367694912478e-05,1.0,0.4671390652656555,0.8965367965367965
243,8.410598093178123e-05,1.0,0.46740078926086426,0.8965367965367965
244,8.34110687719658e-05,1.0,0.4676242172718048,0.8965367965367965
245,8.271933620562777e-05,1.0,0.4678290784358978,0.8965367965367965
246,8.204357436625287e-05,1.0,0.4680517315864563,0.8965367965367965
247,8.137099212035537e-05,1.0,0.46830514073371887,0.8965367965367965
248,8.070480544120073e-05,1.0,0.4684627056121826,0.8965367965367965
249,8.004393021110445e-05,1.0,0.46861496567726135,0.8965367965367965
250,7.939797069411725e-05,1.0,0.46889322996139526,0.8965367965367965
251,7.875730807427317e-05,1.0,0.46919259428977966,0.8965367965367965
252,7.8120909165591e-05,1.0,0.4693514406681061,0.8965367965367965
253,7.748771167825907e-05,1.0,0.46954062581062317,0.8965367965367965
254,7.686195021960884e-05,1.0,0.4698435366153717,0.8965367965367965
255,7.623939018230885e-05,1.0,0.4700329005718231,0.8965367965367965
256,7.563278632005677e-05,1.0,0.4702509045600891,0.8965367965367965
257,7.502832158934325e-05,1.0,0.4705856442451477,0.8965367965367965
258,7.443128561135381e-05,1.0,0.47083860635757446,0.8965367965367965
259,7.385341450572014e-05,1.0,0.47106513381004333,0.8965367965367965
260,7.326489867409691e-05,1.0,0.47128576040267944,0.8965367965367965
261,7.268384069902822e-05,1.0,0.4714858829975128,0.8965367965367965
262,7.211130287032574e-05,1.0,0.4717389643192291,0.8965367965367965
263,7.154512422857806e-05,1.0,0.4719550609588623,0.8965367965367965
264,7.098959758877754e-05,1.0,0.4722399413585663,0.8965367965367965
265,7.042982178973034e-05,1.0,0.4724866449832916,0.8965367965367965
266,6.988599488977343e-05,1.0,0.4727063477039337,0.8965367965367965
267,6.934963312232867e-05,1.0,0.472927063703537,0.8965367965367965
268,6.880155706312507e-05,1.0,0.4732057750225067,0.8965367965367965
269,6.827263132436201e-05,1.0,0.47352832555770874,0.8965367965367965
270,6.774476787541062e-05,1.0,0.473826140165329,0.8965367965367965
271,6.722329999320209e-05,1.0,0.4740234911441803,0.8965367965367965
272,6.67082131258212e-05,1.0,0.47420141100883484,0.9055194805194804
273,6.619099440285936e-05,1.0,0.4744720757007599,0.9055194805194804
274,6.56876145512797e-05,1.0,0.4747996926307678,0.9055194805194804
275,6.51969967293553e-05,1.0,0.4750434458255768,0.9055194805194804
276,6.469467916758731e-05,1.0,0.47528213262557983,0.9055194805194804
277,6.420620047720149e-05,1.0,0.4755573868751526,0.9055194805194804
278,6.372196367010474e-05,1.0,0.47586774826049805,0.9055194805194804
279,6.324518471956253e-05,1.0,0.4761572778224945,0.9055194805194804
280,6.275990017456934e-05,1.0,0.476367324590683,0.9055194805194804
281,6.228949496289715e-05,1.0,0.4765027165412903,0.9055194805194804
282,6.182230572449043e-05,1.0,0.4767696261405945,0.9055194805194804
283,6.136893352959305e-05,1.0,0.4769848883152008,0.9055194805194804
284,6.09102426096797e-05,1.0,0.47724291682243347,0.9055194805194804
285,6.045581176294945e-05,1.0,0.4774567186832428,0.9055194805194804
286,6.00098937866278e-05,1.0,0.47762396931648254,0.9055194805194804
287,5.957036046311259e-05,1.0,0.4778647720813751,0.9055194805194804
288,5.913188215345144e-05,1.0,0.47812193632125854,0.9055194805194804
289,5.871257963008247e-05,1.0,0.47831979393959045,0.9055194805194804
290,5.8268782595405355e-05,1.0,0.4785688817501068,0.9055194805194804
291,5.784947279607877e-05,1.0,0.478775292634964,0.9055194805194804
292,5.742802022723481e-05,1.0,0.47896823287010193,0.9055194805194804
293,5.7012966863112524e-05,1.0,0.4792101979255676,0.9055194805194804
294,5.660429087583907e-05,1.0,0.4794447720050812,0.9055194805194804
295,5.6195614888565615e-05,1.0,0.4797767996788025,0.9055194805194804
296,5.579014396062121e-05,1.0,0.47993749380111694,0.9055194805194804
297,5.538891491596587e-05,1.0,0.4801713526248932,0.9055194805194804
298,5.498981772689149e-05,1.0,0.4804581105709076,0.9055194805194804
299,5.460136890178546e-05,1.0,0.48059916496276855,0.9055194805194804
300,5.420759043772705e-05,1.0,0.4807785451412201,0.9055194805194804
301,5.3823394409846514e-05,1.0,0.4809304177761078,0.9055194805194804
302,5.343707016436383e-05,1.0,0.4811439514160156,0.9055194805194804
303,5.3063507948536426e-05,1.0,0.48141926527023315,0.9055194805194804
304,5.2682509704027325e-05,1.0,0.48158368468284607,0.9055194805194804
305,5.232065814197995e-05,1.0,0.48177847266197205,0.9055194805194804
306,5.194816549192183e-05,1.0,0.4819842278957367,0.9055194805194804
307,5.1577801059465855e-05,1.0,0.48221373558044434,0.9055194805194804
308,5.1214890845585614e-05,1.0,0.4824801981449127,0.9055194805194804
309,5.085303564555943e-05,1.0,0.4826788902282715,0.9055194805194804
310,5.049225364928134e-05,1.0,0.48290395736694336,0.9055194805194804
311,5.0136786740040407e-05,1.0,0.4831869900226593,0.9055194805194804
312,4.9794092774391174e-05,1.0,0.4833548069000244,0.9055194805194804
313,4.944075408275239e-05,1.0,0.4835229814052582,0.9055194805194804
314,4.9102320190286264e-05,1.0,0.4837271273136139,0.9055194805194804
315,4.875962622463703e-05,1.0,0.48397186398506165,0.9055194805194804
316,4.842651105718687e-05,1.0,0.4841902256011963,0.9055194805194804
317,4.809445817954838e-05,1.0,0.48441481590270996,0.9055194805194804
318,4.775921115651727e-05,1.0,0.48470109701156616,0.9055194805194804
319,4.742715827887878e-05,1.0,0.4849591851234436,0.9055194805194804
320,4.711213841801509e-05,1.0,0.4852173626422882,0.9055194805194804
321,4.6791792556177825e-05,1.0,0.48534485697746277,0.9055194805194804
322,4.6469311200780794e-05,1.0,0.4856034219264984,0.9055194805194804
323,4.615641228156164e-05,1.0,0.4858883023262024,0.9055194805194804
324,4.5838194637326524e-05,1.0,0.4860861897468567,0.9055194805194804
325,4.552636528387666e-05,1.0,0.48635315895080566,0.9055194805194804
326,4.521559822023846e-05,1.0,0.48661312460899353,0.9055194805194804
327,4.490908395382576e-05,1.0,0.486817330121994,0.9055194805194804
328,4.4607895688386634e-05,1.0,0.4869596064090729,0.9055194805194804
329,4.431309207575396e-05,1.0,0.48709574341773987,0.9055194805194804
330,4.402360718813725e-05,1.0,0.4872737228870392,0.9055194805194804
331,4.3724547140300274e-05,1.0,0.4874688684940338,0.9055194805194804
332,4.343186810729094e-05,1.0,0.4876476228237152,0.9055194805194804
333,4.3151958379894495e-05,1.0,0.4877922236919403,0.9055194805194804
334,4.2862473492277786e-05,1.0,0.48805880546569824,0.9055194805194804
335,4.257619002601132e-05,1.0,0.4882630705833435,0.9055194805194804
336,4.2296280298614874e-05,1.0,0.48845431208610535,0.9055194805194804
337,4.2009985918411985e-05,1.0,0.488605797290802,0.9055194805194804
338,4.174179048277438e-05,1.0,0.4887743294239044,0.9055194805194804
339,4.1468269046163186e-05,1.0,0.4889964163303375,0.9055194805194804
340,4.1196875827154145e-05,1.0,0.4892200529575348,0.9055194805194804
341,4.09254826081451e-05,1.0,0.48934340476989746,0.9055194805194804
342,4.0663668187335134e-05,1.0,0.4895932674407959,0.9055194805194804
343,4.0400791476713493e-05,1.0,0.4898267686367035,0.9055194805194804
344,4.013153011328541e-05,1.0,0.4900486171245575,0.9055194805194804
345,3.98707743443083e-05,1.0,0.4903147518634796,0.9055194805194804
346,3.961215406889096e-05,1.0,0.49053168296813965,0.9055194805194804
347,3.936417124350555e-05,1.0,0.4907347559928894,0.9055194805194804
348,3.910661689587869e-05,1.0,0.49092692136764526,0.9055194805194804
349,3.884692705469206e-05,1.0,0.4911075532436371,0.9055194805194804
350,3.860213837469928e-05,1.0,0.4913204610347748,0.9055194805194804
351,3.835523239104077e-05,1.0,0.49157002568244934,0.9055194805194804
352,3.8113630580483004e-05,1.0,0.4918579161167145,0.9055194805194804
353,3.787310197367333e-05,1.0,0.49199771881103516,0.9055194805194804
354,3.762724736589007e-05,1.0,0.4921606481075287,0.9055194805194804
355,3.738885061466135e-05,1.0,0.49240413308143616,0.9055194805194804
356,3.715470666065812e-05,1.0,0.4925881028175354,0.9055194805194804
357,3.691418169182725e-05,1.0,0.4927317798137665,0.9055194805194804
358,3.668960926006548e-05,1.0,0.4929773211479187,0.9055194805194804
359,3.6459725379245356e-05,1.0,0.4932079613208771,0.9055194805194804
360,3.622344956966117e-05,1.0,0.49338698387145996,0.9055194805194804
361,3.600314448704012e-05,1.0,0.49351710081100464,0.9055194805194804
362,3.5777509765466675e-05,1.0,0.49378737807273865,0.9055194805194804
363,3.5555076465243474e-05,1.0,0.4940822124481201,0.9055194805194804
364,3.532837945385836e-05,1.0,0.4943397641181946,0.9055194805194804
365,3.511019895086065e-05,1.0,0.4945559501647949,0.9055194805194804
366,3.489095252007246e-05,1.0,0.4947632849216461,0.9055194805194804
367,3.4681284887483343e-05,1.0,0.4949217140674591,0.9055194805194804
368,3.4455657441867515e-05,1.0,0.4951600730419159,0.9055194805194804
369,3.424918031669222e-05,1.0,0.4954793453216553,0.9055194805194804
370,3.403845039429143e-05,1.0,0.4956994652748108,0.9055194805194804
371,3.382772047189064e-05,1.0,0.4958195686340332,0.9055194805194804
372,3.362656934768893e-05,1.0,0.4961092472076416,0.9055194805194804
373,3.3415835787309334e-05,1.0,0.4963696002960205,0.9055194805194804
374,3.3217878808500245e-05,1.0,0.4965958595275879,0.9055194805194804
375,3.3014595828717574e-05,1.0,0.49680981040000916,0.9055194805194804
376,3.281769750174135e-05,1.0,0.497052401304245,0.9055194805194804
377,3.2619736884953454e-05,1.0,0.49728646874427795,0.9055194805194804
378,3.241858576075174e-05,1.0,0.49749159812927246,0.9055194805194804
379,3.222594750695862e-05,1.0,0.49778929352760315,0.9055194805194804
380,3.203224696335383e-05,1.0,0.49797073006629944,0.9055194805194804
381,3.184067099937238e-05,1.0,0.4980975091457367,0.9055194805194804
382,3.165122325299308e-05,1.0,0.4983646273612976,0.9055194805194804
383,3.146709786960855e-05,1.0,0.49855759739875793,0.9055194805194804
384,3.127233139821328e-05,1.0,0.4987788200378418,0.9055194805194804
385,3.1091396522242576e-05,1.0,0.4990267753601074,0.9055194805194804
386,3.0898758268449455e-05,1.0,0.499251127243042,0.9055194805194804
387,3.071569881285541e-05,1.0,0.4995592534542084,0.9055194805194804
388,3.052944521186873e-05,1.0,0.49977877736091614,0.9055194805194804
389,3.0350642191478983e-05,1.0,0.49992236495018005,0.9055194805194804
390,3.0177161534084007e-05,1.0,0.5000662803649902,0.9055194805194804
391,2.999516436830163e-05,1.0,0.500307023525238,0.9055194805194804
392,2.9814229492330924e-05,1.0,0.5005306601524353,0.9055194805194804
393,2.9641814762726426e-05,1.0,0.5006869435310364,0.9055194805194804
394,2.9465139959938824e-05,1.0,0.5009110569953918,0.9055194805194804
395,2.9294849809957668e-05,1.0,0.5011644959449768,0.9055194805194804
396,2.912136733357329e-05,1.0,0.5014041066169739,0.9055194805194804
397,2.895214311138261e-05,1.0,0.5016145706176758,0.9055194805194804
398,2.8781852961401455e-05,1.0,0.5018792152404785,0.9055194805194804
399,2.8617947464226745e-05,1.0,0.5020192265510559,0.9055194805194804
400,2.8448723242036067e-05,1.0,0.5021889209747314,0.9055194805194804
401,2.828907781804446e-05,1.0,0.5023646950721741,0.9055194805194804
402,2.8119849957874976e-05,1.0,0.5025862455368042,0.9055194805194804
403,2.7964460969087668e-05,1.0,0.5028186440467834,0.9055194805194804
404,2.7794170819106512e-05,1.0,0.503064751625061,0.9055194805194804
405,2.7633459467324428e-05,1.0,0.5032404661178589,0.9055194805194804
406,2.747594226093497e-05,1.0,0.5034254193305969,0.9055194805194804
407,2.7315230909152888e-05,1.0,0.5036556124687195,0.9055194805194804
408,2.7159840101376176e-05,1.0,0.5038758516311646,0.9055194805194804
409,2.7005517040379345e-05,1.0,0.5040939450263977,0.9055194805194804
410,2.6844805688597262e-05,1.0,0.5043511986732483,0.9055194805194804
411,2.6700057787820697e-05,1.0,0.504542887210846,0.9055194805194804
412,2.6534024073043838e-05,1.0,0.5047281384468079,0.9055194805194804
413,2.6389277991256677e-05,1.0,0.5049306750297546,0.9055194805194804
414,2.6230696676066145e-05,1.0,0.5051388740539551,0.9055194805194804
415,2.608807699289173e-05,1.0,0.505388617515564,0.9055194805194804
416,2.5939070837921463e-05,1.0,0.5056608319282532,0.9055194805194804
417,2.578687599452678e-05,1.0,0.5058531761169434,0.9055194805194804
418,2.5645322239142843e-05,1.0,0.5060524344444275,0.9055194805194804
419,2.549418968555983e-05,1.0,0.506297767162323,0.9055194805194804
420,2.5352635930175893e-05,1.0,0.5064685940742493,0.9055194805194804
421,2.520150155760348e-05,1.0,0.5066839456558228,0.9055194805194804
422,2.5063141947612166e-05,1.0,0.5069550275802612,0.9055194805194804
423,2.4924778699642047e-05,1.0,0.5071433186531067,0.9055194805194804
424,2.4782160835457034e-05,1.0,0.5074136853218079,0.9055194805194804
425,2.4638478862470947e-05,1.0,0.5076531171798706,0.9055194805194804
426,2.4502247470081784e-05,1.0,0.5077810287475586,0.9055194805194804
427,2.4371332983719185e-05,1.0,0.5079733729362488,0.9055194805194804
428,2.4228715119534172e-05,1.0,0.5081200003623962,0.9055194805194804
429,2.409461376373656e-05,1.0,0.508442759513855,0.9055194805194804
430,2.396689342276659e-05,1.0,0.5086366534233093,0.9055194805194804
431,2.382001548539847e-05,1.0,0.5087906122207642,0.9055194805194804
432,2.3696555217611603e-05,1.0,0.5089350342750549,0.9055194805194804
433,2.3561384296044707e-05,1.0,0.509066104888916,0.9055194805194804
434,2.3429411157849245e-05,1.0,0.5092412829399109,0.9055194805194804
435,2.3291051547857933e-05,1.0,0.5094317197799683,0.9055194805194804
436,2.316758946108166e-05,1.0,0.5095944404602051,0.9055194805194804
437,2.3046257410896942e-05,1.0,0.5096789002418518,0.9055194805194804
438,2.291427881573327e-05,1.0,0.5097684264183044,0.9055194805194804
439,2.2785494365962222e-05,1.0,0.5099909901618958,0.9055194805194804
440,2.2658843590761535e-05,1.0,0.5101682543754578,0.9055194805194804
441,2.2540702047990635e-05,1.0,0.5103271007537842,0.9055194805194804
442,2.241404763481114e-05,1.0,0.5104830861091614,0.9055194805194804
443,2.2288459149422124e-05,1.0,0.5106263756752014,0.9055194805194804
444,2.2170317606651224e-05,1.0,0.5107752680778503,0.9055194805194804
445,2.2044727302272804e-05,1.0,0.5109730958938599,0.9055194805194804
446,2.192339343309868e-05,1.0,0.5110947489738464,0.9055194805194804
447,2.180951378250029e-05,1.0,0.5112252831459045,0.9055194805194804
448,2.1692436348530464e-05,1.0,0.5113281607627869,0.9055194805194804
449,2.157536437152885e-05,1.0,0.5115275979042053,0.9055194805194804
450,2.145189864677377e-05,1.0,0.5117286443710327,0.9055194805194804
451,2.13369530683849e-05,1.0,0.5118384957313538,0.9055194805194804
452,2.1227326215012e-05,1.0,0.5119577646255493,0.9055194805194804
453,2.1104930056026205e-05,1.0,0.5120834708213806,0.9055194805194804
454,2.0988916730857454e-05,1.0,0.5122708082199097,0.9055194805194804
455,2.0878229406662285e-05,1.0,0.5123990178108215,0.9055194805194804
456,2.0766474335687235e-05,1.0,0.5125876069068909,0.9055194805194804
457,2.0654721083701588e-05,1.0,0.512713611125946,0.9055194805194804
458,2.0544030121527612e-05,1.0,0.5128849148750305,0.9055194805194804
459,2.0434405087144114e-05,1.0,0.5130074620246887,0.9055194805194804
460,2.0319455870776437e-05,1.0,0.5132020115852356,0.9055194805194804
461,2.0217281416989863e-05,1.0,0.5133904218673706,0.9055194805194804
462,2.0112975107622333e-05,1.0,0.5135107636451721,0.9055194805194804
463,2.0005480109830387e-05,1.0,0.5137084722518921,0.9055194805194804
464,1.9897983293049037e-05,1.0,0.5139102339744568,0.9055194805194804
465,1.978729233087506e-05,1.0,0.5140310525894165,0.9055194805194804
466,1.9681925550685264e-05,1.0,0.5142843723297119,0.9055194805194804
467,1.9582943423301913e-05,1.0,0.514422595500946,0.9055194805194804
468,1.9472252461127937e-05,1.0,0.5146265625953674,0.9055194805194804
469,1.9366883861948736e-05,1.0,0.5147797465324402,0.9055194805194804
470,1.9268964024377055e-05,1.0,0.5148817896842957,0.9055194805194804
471,1.916678957059048e-05,1.0,0.514988124370575,0.9055194805194804
472,1.906674515339546e-05,1.0,0.515164315700531,0.9055194805194804
473,1.8956054191221483e-05,1.0,0.5153456926345825,0.9055194805194804
474,1.8859198462450877e-05,1.0,0.5155520439147949,0.9055194805194804
475,1.8764474589261226e-05,1.0,0.5157188177108765,0.9055194805194804
476,1.8664426534087397e-05,1.0,0.5159094929695129,0.9055194805194804
477,1.8563314370112494e-05,1.0,0.5160115361213684,0.9055194805194804
478,1.8470718714524992e-05,1.0,0.5162806510925293,0.9055194805194804
479,1.8370670659351163e-05,1.0,0.5164811015129089,0.9055194805194804
480,1.8283395547769032e-05,1.0,0.5165479779243469,0.9055194805194804
481,1.8183349311584607e-05,1.0,0.5167851448059082,0.9055194805194804
482,1.808755951060448e-05,1.0,0.5169843435287476,0.9055194805194804
483,1.799602796381805e-05,1.0,0.5170846581459045,0.9055194805194804
484,1.7901300452649593e-05,1.0,0.5171636939048767,0.9055194805194804
485,1.780870479706209e-05,1.0,0.5174045562744141,0.9055194805194804
486,1.7713979104883038e-05,1.0,0.5175397396087646,0.9055194805194804
487,1.7617125195101835e-05,1.0,0.5177257061004639,0.9055194805194804
488,1.7534106518724002e-05,1.0,0.5178701877593994,0.9055194805194804
489,1.744363908073865e-05,1.0,0.5181078314781189,0.9055194805194804
490,1.7344656953355297e-05,1.0,0.518169105052948,0.9055194805194804
491,1.7261638276977465e-05,1.0,0.5183053016662598,0.9055194805194804
492,1.7171169020002708e-05,1.0,0.5183835029602051,0.9055194805194804
493,1.7090280380216427e-05,1.0,0.5185948014259338,0.9055194805194804
494,1.6995554688037373e-05,1.0,0.5187659859657288,0.9055194805194804
495,1.6907213648664765e-05,1.0,0.5189406275749207,0.9055194805194804
496,1.6822068573674187e-05,1.0,0.5190545320510864,0.9055194805194804
497,1.673904807830695e-05,1.0,0.5192025303840637,0.9055194805194804
498,1.665815943852067e-05,1.0,0.5193763375282288,0.9055194805194804
499,1.6571950254729018e-05,1.0,0.5195688605308533,0.9055194805194804
500,1.6485737432958558e-05,1.0,0.5196681022644043,0.9055194805194804
501,1.6399526430177502e-05,1.0,0.5198744535446167,0.9055194805194804
502,1.6315443644998595e-05,1.0,0.5200348496437073,0.9055194805194804
503,1.6238813259406015e-05,1.0,0.52020663022995,0.9055194805194804
504,1.615792280063033e-05,1.0,0.5203700661659241,0.9055194805194804
505,1.6074905943241902e-05,1.0,0.5205869078636169,0.9055194805194804
506,1.5996143702068366e-05,1.0,0.52079838514328,0.9055194805194804
507,1.590993269928731e-05,1.0,0.5209375023841858,0.9055194805194804
508,1.5825849914108403e-05,1.0,0.5211287140846252,0.9055194805194804
509,1.5750283637316898e-05,1.0,0.5212439298629761,0.9055194805194804
510,1.567471554153599e-05,1.0,0.5215091109275818,0.9055194805194804
511,1.559063275635708e-05,1.0,0.5216817855834961,0.9055194805194804
512,1.551719287817832e-05,1.0,0.5219122171401978,0.9055194805194804
513,1.5430981875397265e-05,1.0,0.5219255089759827,0.9055194805194804
514,1.5357541997218505e-05,1.0,0.5220880508422852,0.9055194805194804
515,1.5281973901437595e-05,1.0,0.5222378373146057,0.9055194805194804
516,1.5205341696855612e-05,1.0,0.5223232507705688,0.9055194805194804
517,1.5126582184166182e-05,1.0,0.52256840467453,0.9055194805194804
518,1.5056334632390644e-05,1.0,0.5227347612380981,0.9055194805194804
519,1.4980767446104437e-05,1.0,0.5229190587997437,0.9055194805194804
520,1.4905199350323528e-05,1.0,0.5229805707931519,0.9055194805194804
521,1.4827502127445769e-05,1.0,0.5230709314346313,0.9055194805194804
522,1.4759383702767082e-05,1.0,0.5233007669448853,0.9055194805194804
523,1.4682751498185098e-05,1.0,0.5234883427619934,0.9055194805194804
524,1.4610378457291517e-05,1.0,0.5235636234283447,0.9055194805194804
525,1.4535873560816981e-05,1.0,0.5236676335334778,0.9055194805194804
526,1.4459241356234998e-05,1.0,0.5238548517227173,0.9055194805194804
527,1.4394317076948937e-05,1.0,0.5239132046699524,0.9055194805194804
528,1.4329391888168175e-05,1.0,0.5241109728813171,0.9055194805194804
529,1.425488790118834e-05,1.0,0.5242933034896851,0.9055194805194804
530,1.4184641258907504e-05,1.0,0.5244144201278687,0.9055194805194804
531,1.4106944945524447e-05,1.0,0.5245162844657898,0.9055194805194804
532,1.4037764231034089e-05,1.0,0.5247553586959839,0.9055194805194804
533,1.39781604957534e-05,1.0,0.5247913002967834,0.9055194805194804
534,1.3908977962273639e-05,1.0,0.5249687433242798,0.9055194805194804
535,1.3834474884788506e-05,1.0,0.525157630443573,0.9055194805194804
536,1.3773805221717339e-05,1.0,0.5252673029899597,0.9055194805194804
537,1.3707817743124906e-05,1.0,0.5255398154258728,0.9055194805194804
538,1.363331284665037e-05,1.0,0.5256038904190063,0.9055194805194804
539,1.3574774129665457e-05,1.0,0.525715172290802,0.9055194805194804
540,1.3498142834578175e-05,1.0,0.5259419083595276,0.9055194805194804
541,1.3437473171507008e-05,1.0,0.5261443257331848,0.9055194805194804
542,1.3376808965404052e-05,1.0,0.5261892676353455,0.9055194805194804
543,1.330762552242959e-05,1.0,0.5263980627059937,0.9055194805194804
544,1.323844389844453e-05,1.0,0.5266093611717224,0.9055194805194804
545,1.3182032489567064e-05,1.0,0.526775062084198,0.9055194805194804
546,1.3112849956087302e-05,1.0,0.5269007682800293,0.9055194805194804
547,1.3055377166892868e-05,1.0,0.526971697807312,0.9055194805194804
548,1.2980873179913033e-05,1.0,0.5270057320594788,0.9055194805194804
549,1.2927655006933492e-05,1.0,0.5272284150123596,0.9055194805194804
550,1.2861665709351655e-05,1.0,0.5274065732955933,0.9055194805194804
551,1.2793549103662372e-05,1.0,0.5276375412940979,0.9055194805194804
552,1.2736073585983831e-05,1.0,0.5277398824691772,0.9055194805194804
553,1.2674342542595696e-05,1.0,0.5278804898262024,0.9055194805194804
554,1.2620061170309782e-05,1.0,0.5280358195304871,0.9055194805194804
555,1.2556200999824796e-05,1.0,0.5281232595443726,0.9055194805194804
556,1.2489145774452481e-05,1.0,0.5283134579658508,0.9055194805194804
557,1.2435929420462344e-05,1.0,0.5284212827682495,0.9055194805194804
558,1.2374197467579506e-05,1.0,0.5286403298377991,0.9055194805194804
559,1.2317787877691444e-05,1.0,0.5287850499153137,0.9055194805194804
560,1.2263505595910829e-05,1.0,0.5289058089256287,0.9055194805194804
561,1.2201773643027991e-05,1.0,0.5290848612785339,0.9055194805194804
562,1.214110670844093e-05,1.0,0.5292747020721436,0.9055194805194804
563,1.2082567081961315e-05,1.0,0.5294236540794373,0.9055194805194804
564,1.2025093383272178e-05,1.0,0.5295122265815735,0.9055194805194804
565,1.1965488738496788e-05,1.0,0.5298319458961487,0.9055194805194804
566,1.1909079148608726e-05,1.0,0.5298252701759338,0.9055194805194804
567,1.1857991921715438e-05,1.0,0.5300031900405884,0.9055194805194804
568,1.1799452295235824e-05,1.0,0.5302618741989136,0.9055194805194804
569,1.1746234122256283e-05,1.0,0.5304115414619446,0.9055194805194804
570,1.1687696314766072e-05,1.0,0.5306312441825867,0.9055194805194804
571,1.163234901468968e-05,1.0,0.5307237505912781,0.9055194805194804
572,1.1569552043511067e-05,1.0,0.53086918592453,0.9055194805194804
573,1.1524850378918927e-05,1.0,0.5310066938400269,0.9055194805194804
574,1.1468441698525567e-05,1.0,0.5312274098396301,0.9055194805194804
575,1.1414159416744951e-05,1.0,0.5313414931297302,0.9055194805194804
576,1.1357748917362187e-05,1.0,0.5314019322395325,0.9055194805194804
577,1.1296016054984648e-05,1.0,0.5315706133842468,0.9055194805194804
578,1.1254507626290433e-05,1.0,0.5317097306251526,0.9055194805194804
579,1.1198097126907669e-05,1.0,0.5318915843963623,0.9055194805194804
580,1.1148074008815456e-05,1.0,0.5320032238960266,0.9055194805194804
581,1.1091663509432692e-05,1.0,0.5322200655937195,0.9055194805194804
582,1.1040574463550001e-05,1.0,0.5323237180709839,0.9055194805194804
583,1.0991614544764161e-05,1.0,0.5324245691299438,0.9055194805194804
584,1.094052549888147e-05,1.0,0.5325216054916382,0.9055194805194804
585,1.0887308235396631e-05,1.0,0.5327028036117554,0.9055194805194804
586,1.0836220099008642e-05,1.0,0.5328241586685181,0.9055194805194804
587,1.0788323379529174e-05,1.0,0.5329824090003967,0.9055194805194804
588,1.0735107025539037e-05,1.0,0.5330426096916199,0.9055194805194804
589,1.0680824743758421e-05,1.0,0.5333633422851562,0.9055194805194804
590,1.063825129676843e-05,1.0,0.5333684682846069,0.9055194805194804
591,1.0592484613880515e-05,1.0,0.5334848761558533,0.9055194805194804
592,1.0532880878599826e-05,1.0,0.5337573289871216,0.9055194805194804
593,1.048711419571191e-05,1.0,0.5339486002922058,0.9055194805194804
594,1.043602514982922e-05,1.0,0.5340417623519897,0.9055194805194804
595,1.0396644938737154e-05,1.0,0.5341750979423523,0.9055194805194804
596,1.033384796755854e-05,1.0,0.5342805981636047,0.9055194805194804
597,1.0290210411767475e-05,1.0,0.5344446897506714,0.9055194805194804
598,1.0245507837680634e-05,1.0,0.534657895565033,0.9055194805194804
599,1.018909733829787e-05,1.0,0.5347656607627869,0.9055194805194804
600,1.0155037671211176e-05,1.0,0.5349000096321106,0.9055194805194804
601,1.0110336006619036e-05,1.0,0.535007119178772,0.9055194805194804
602,1.0064568414236419e-05,1.0,0.5351797342300415,0.9055194805194804
603,1.0016672604251653e-05,1.0,0.5352595448493958,0.9055194805194804
604,9.97196912067011e-06,1.0,0.5353699326515198,0.9055194805194804
605,9.92088007478742e-06,1.0,0.535531222820282,0.9055194805194804
606,9.871921974990983e-06,1.0,0.5357064604759216,0.9055194805194804
607,9.830410817812663e-06,1.0,0.535797119140625,0.9055194805194804
608,9.783580026123673e-06,1.0,0.5359166264533997,0.9055194805194804
609,9.744199815031607e-06,1.0,0.5360754728317261,0.9055194805194804
610,9.693110769148916e-06,1.0,0.5362862348556519,0.9055194805194804
611,9.646279977459926e-06,1.0,0.5363566279411316,0.9055194805194804
612,9.605833838577382e-06,1.0,0.5365102291107178,0.9055194805194804
613,9.566453627485316e-06,1.0,0.5367136001586914,0.9055194805194804
614,9.517493708699476e-06,1.0,0.5367904901504517,0.9055194805194804
615,9.479176696913783e-06,1.0,0.5369905829429626,0.9055194805194804
616,9.431280886929017e-06,1.0,0.5370576977729797,0.9055194805194804
617,9.386579222336877e-06,1.0,0.537255585193634,0.9055194805194804
618,9.337617484561633e-06,1.0,0.5374278426170349,0.9055194805194804
619,9.298237273469567e-06,1.0,0.5376121401786804,0.9055194805194804
620,9.257792044081725e-06,1.0,0.5377026796340942,0.9055194805194804
621,9.215218597091734e-06,1.0,0.5379597544670105,0.9055194805194804
622,9.184353075397667e-06,1.0,0.5381504893302917,0.9055194805194804
623,9.13858548301505e-06,1.0,0.5382011532783508,0.9055194805194804
624,9.099204362428281e-06,1.0,0.5383449196815491,0.9055194805194804
625,9.048116226040293e-06,1.0,0.5384092926979065,0.9055194805194804
626,9.008735105453525e-06,1.0,0.5385618805885315,0.9055194805194804
627,8.969353984866757e-06,1.0,0.5386890172958374,0.9055194805194804
628,8.934230208978988e-06,1.0,0.5388824343681335,0.9055194805194804
629,8.889527634892147e-06,1.0,0.5390427708625793,0.9055194805194804
630,8.846953278407454e-06,1.0,0.539182722568512,0.9055194805194804
631,8.811830412014388e-06,1.0,0.5393553972244263,0.9055194805194804
632,8.773512490733992e-06,1.0,0.5395054221153259,0.9055194805194804
633,8.732003152545076e-06,1.0,0.5396432280540466,0.9055194805194804
634,8.693687050254084e-06,1.0,0.5399020314216614,0.9055194805194804
635,8.646855349070393e-06,1.0,0.540039598941803,0.9055194805194804
636,8.613860700279474e-06,1.0,0.5401422381401062,0.9055194805194804
637,8.57980103319278e-06,1.0,0.5404585599899292,0.9055194805194804
638,8.537227586202789e-06,1.0,0.540442168712616,0.9055194805194804
639,8.495718248013873e-06,1.0,0.5406852960586548,0.9055194805194804
640,8.464851816825103e-06,1.0,0.5409444570541382,0.9055194805194804
641,8.421213351539336e-06,1.0,0.5410581827163696,0.9055194805194804
642,8.381832230952568e-06,1.0,0.5411850214004517,0.9055194805194804
643,8.343515219166875e-06,1.0,0.5412936806678772,0.9055194805194804
644,8.309456461574882e-06,1.0,0.5416028499603271,0.9055194805194804
645,8.264753887488041e-06,1.0,0.541762113571167,0.9055194805194804
646,8.234952474595048e-06,1.0,0.5418725609779358,0.9055194805194804
647,8.198764589906204e-06,1.0,0.5420782566070557,0.9055194805194804
648,8.157253432727885e-06,1.0,0.5423036217689514,0.9055194805194804
649,8.122130566334818e-06,1.0,0.5423963069915771,0.9055194805194804
650,8.090200026344974e-06,1.0,0.542557418346405,0.9055194805194804
651,8.052948032855056e-06,1.0,0.5427201986312866,0.9055194805194804
652,8.018888365768362e-06,1.0,0.5429818630218506,0.9055194805194804
653,7.979507245181594e-06,1.0,0.5430562496185303,0.9055194805194804
654,7.945448487589601e-06,1.0,0.5432472229003906,0.9055194805194804
655,7.908195584604982e-06,1.0,0.5433194041252136,0.9055194805194804
656,7.874135917518288e-06,1.0,0.5436121225357056,0.9055194805194804
657,7.835819815227296e-06,1.0,0.5437507033348083,0.9055194805194804
658,7.80069694883423e-06,1.0,0.5439821481704712,0.9055194805194804
659,7.765572263451759e-06,1.0,0.544039785861969,0.9055194805194804
660,7.737899068160914e-06,1.0,0.5441768765449524,0.9055194805194804
661,7.702776201767847e-06,1.0,0.5444008708000183,0.9055194805194804
662,7.66126686357893e-06,1.0,0.5445326566696167,0.9055194805194804
663,7.63252864999231e-06,1.0,0.544685959815979,0.9055194805194804
664,7.6005985647498164e-06,1.0,0.5448783040046692,0.9055194805194804
665,7.563345661765197e-06,1.0,0.5448821187019348,0.9055194805194804
666,7.531415121775353e-06,1.0,0.5451492667198181,0.9055194805194804
667,7.501613254135009e-06,1.0,0.5452840924263,0.9055194805194804
668,7.465424914698815e-06,1.0,0.5454071164131165,0.9055194805194804
669,7.43349391996162e-06,1.0,0.5455610156059265,0.9055194805194804
670,7.396242381219054e-06,1.0,0.5457487106323242,0.9055194805194804
671,7.369632839981932e-06,1.0,0.5456969141960144,0.9055194805194804
672,7.337702299992088e-06,1.0,0.5460718870162964,0.9055194805194804
673,7.2993861977010965e-06,1.0,0.546181857585907,0.9055194805194804
674,7.2706484388618264e-06,1.0,0.5465222597122192,0.9055194805194804
675,7.2429756983183324e-06,1.0,0.5465627908706665,0.9055194805194804
676,7.201465450634714e-06,1.0,0.5466100573539734,0.9055194805194804
677,7.174855909397593e-06,1.0,0.5468088388442993,0.9055194805194804
678,7.1471845330961514e-06,1.0,0.5470186471939087,0.9055194805194804
679,7.104609721864108e-06,1.0,0.5471068024635315,0.9055194805194804
680,7.079065198922763e-06,1.0,0.5474233627319336,0.9055194805194804
681,7.055649348330917e-06,1.0,0.54738849401474,0.9055194805194804
682,7.020525572443148e-06,1.0,0.547512948513031,0.9055194805194804
683,6.989659596001729e-06,1.0,0.5478497743606567,0.9055194805194804
684,6.96092229190981e-06,1.0,0.547967791557312,0.9055194805194804
685,6.926862170075765e-06,1.0,0.5480496287345886,0.9055194805194804
686,6.898124411236495e-06,1.0,0.5482555031776428,0.9055194805194804
687,6.8693875618919265e-06,1.0,0.5483661890029907,0.9055194805194804
688,6.836392003606306e-06,1.0,0.5484548807144165,0.9055194805194804
689,6.811911589466035e-06,1.0,0.5486471056938171,0.9055194805194804
690,6.782110176573042e-06,1.0,0.5487417578697205,0.9055194805194804
691,6.753372417733772e-06,1.0,0.5488854646682739,0.9055194805194804
692,6.7171849877922796e-06,1.0,0.549001157283783,0.9055194805194804
693,6.698026936646784e-06,1.0,0.5492244362831116,0.9055194805194804
694,6.670353286608588e-06,1.0,0.5492298007011414,0.9055194805194804
695,6.6320362748228945e-06,1.0,0.5495430827140808,0.9055194805194804
696,6.605427188333124e-06,1.0,0.5494117736816406,0.9055194805194804
697,6.57988357488648e-06,1.0,0.5497580170631409,0.9055194805194804
698,6.550081252498785e-06,1.0,0.549892246723175,0.9055194805194804
699,6.52240805720794e-06,1.0,0.5499892830848694,0.9055194805194804
700,6.494734861917095e-06,1.0,0.5501882433891296,0.9055194805194804
701,6.463868430728326e-06,1.0,0.5502278804779053,0.9055194805194804
702,6.441517143684905e-06,1.0,0.5503416061401367,0.9055194805194804
703,6.415972165996209e-06,1.0,0.5505233407020569,0.9055194805194804
704,6.382976607710589e-06,1.0,0.5506612658500671,0.9055194805194804
705,6.347853741317522e-06,1.0,0.5507501363754272,0.9055194805194804
706,6.32763067187625e-06,1.0,0.5509436726570129,0.9055194805194804
707,6.30102204013383e-06,1.0,0.5509458780288696,0.9055194805194804
708,6.273348844842985e-06,1.0,0.5511688590049744,0.9055194805194804
709,6.24354652245529e-06,1.0,0.5512496829032898,0.9055194805194804
710,6.218001999513945e-06,1.0,0.5515588521957397,0.9055194805194804
711,6.198843948368449e-06,1.0,0.55158931016922,0.9055194805194804
712,6.164784281281754e-06,1.0,0.5516924262046814,0.9055194805194804
713,6.141367975942558e-06,1.0,0.5518580079078674,0.9055194805194804
714,6.116888926044339e-06,1.0,0.5519840121269226,0.9055194805194804
715,6.095601293054642e-06,1.0,0.5521575212478638,0.9055194805194804
716,6.062605734769022e-06,1.0,0.5522577166557312,0.9055194805194804
717,6.0445117924246006e-06,1.0,0.5524106621742249,0.9055194805194804
718,6.0200313782843295e-06,1.0,0.5524970889091492,0.9055194805194804
719,5.981715275993338e-06,1.0,0.5527963638305664,0.9055194805194804
720,5.958299425401492e-06,1.0,0.5529481172561646,0.9055194805194804
721,5.934883120062295e-06,1.0,0.5529881715774536,0.9055194805194804
722,5.908274033572525e-06,1.0,0.553112804889679,0.9055194805194804
723,5.8795371842279565e-06,1.0,0.5531595349311829,0.9055194805194804
724,5.855057224835036e-06,1.0,0.5533482432365417,0.9055194805194804
725,5.834834155393764e-06,1.0,0.5535119771957397,0.9055194805194804
726,5.810353741253493e-06,1.0,0.5535746812820435,0.9055194805194804
727,5.784809673059499e-06,1.0,0.5538074374198914,0.9055194805194804
728,5.7592651501181535e-06,1.0,0.5537871718406677,0.9055194805194804
729,5.732655608881032e-06,1.0,0.5540993809700012,0.9055194805194804
730,5.711368430638686e-06,1.0,0.5542093515396118,0.9055194805194804
731,5.684759798896266e-06,1.0,0.5543516278266907,0.9055194805194804
732,5.6624085118528455e-06,1.0,0.5544926524162292,0.9055194805194804
733,5.637928552459925e-06,1.0,0.5545412302017212,0.9055194805194804
734,5.615576810669154e-06,1.0,0.5546374320983887,0.9055194805194804
735,5.586839051829884e-06,1.0,0.5548191666603088,0.9055194805194804
736,5.5698096730338875e-06,1.0,0.5551431775093079,0.9055194805194804
737,5.548522494791541e-06,1.0,0.5552584528923035,0.9055194805194804
738,5.5208488447533455e-06,1.0,0.5553646087646484,0.9055194805194804
739,5.495304776559351e-06,1.0,0.5554150342941284,0.9055194805194804
740,5.4686956900695805e-06,1.0,0.5557398200035095,0.9055194805194804
741,5.449536729429383e-06,1.0,0.5558152198791504,0.9055194805194804
742,5.425056315289112e-06,1.0,0.5559332966804504,0.9055194805194804
743,5.400576355896192e-06,1.0,0.5560078620910645,0.9055194805194804
744,5.382481958804419e-06,1.0,0.5562552213668823,0.9055194805194804
745,5.364388016459998e-06,1.0,0.5563511252403259,0.9055194805194804
746,5.340972165868152e-06,1.0,0.5566292405128479,0.9055194805194804
747,5.313299425324658e-06,1.0,0.5567014217376709,0.9055194805194804
748,5.293076810630737e-06,1.0,0.5569361448287964,0.9055194805194804
749,5.272853741189465e-06,1.0,0.5570172071456909,0.9055194805194804
750,5.247308763500769e-06,1.0,0.5573009252548218,0.9055194805194804
751,5.221764695306774e-06,1.0,0.557336688041687,0.9055194805194804
752,5.203670298215002e-06,1.0,0.5575302243232727,0.9055194805194804
753,5.184511792322155e-06,1.0,0.5576358437538147,0.9055194805194804
754,5.164288722880883e-06,1.0,0.5577560663223267,0.9055194805194804
755,5.141938345332164e-06,1.0,0.5579163432121277,0.9055194805194804
756,5.120651167089818e-06,1.0,0.5581303238868713,0.9055194805194804
757,5.090848844702123e-06,1.0,0.5583809614181519,0.9055194805194804
758,5.0738190111587755e-06,1.0,0.5585221648216248,0.9055194805194804
759,5.055725068814354e-06,1.0,0.5586748719215393,0.9055194805194804
760,5.034437890572008e-06,1.0,0.5588003396987915,0.9055194805194804
761,5.014215275878087e-06,1.0,0.5589607357978821,0.9055194805194804
762,4.993992206436815e-06,1.0,0.5591756701469421,0.9055194805194804
763,4.971640464646043e-06,1.0,0.5592379570007324,0.9055194805194804
764,4.950353286403697e-06,1.0,0.5594460368156433,0.9055194805194804
765,4.925873327010777e-06,1.0,0.5595726370811462,0.9055194805194804
766,4.906714366370579e-06,1.0,0.559822142124176,0.9055194805194804
767,4.885427642875584e-06,1.0,0.5598892569541931,0.9055194805194804
768,4.863075901084812e-06,1.0,0.5602033734321594,0.9055194805194804
769,4.846046067541465e-06,1.0,0.5601553916931152,0.9055194805194804
770,4.826888016395969e-06,1.0,0.5603980422019958,0.9055194805194804
771,4.805600383406272e-06,1.0,0.5605311393737793,0.9055194805194804
772,4.788570549862925e-06,1.0,0.5607648491859436,0.9055194805194804
773,4.768348389916355e-06,1.0,0.5608810782432556,0.9055194805194804
774,4.743868430523435e-06,1.0,0.5610929131507874,0.9055194805194804
775,4.727902705781162e-06,1.0,0.561211109161377,0.9055194805194804
776,4.708744199888315e-06,1.0,0.5614005923271179,0.9055194805194804
777,4.690649802796543e-06,1.0,0.56144779920578,0.9055194805194804
778,4.664041171054123e-06,1.0,0.5616329908370972,0.9055194805194804
779,4.64807544631185e-06,1.0,0.5616938471794128,0.9055194805194804
780,4.629981503967429e-06,1.0,0.5619279146194458,0.9055194805194804
781,4.618273123924155e-06,1.0,0.5620876550674438,0.9055194805194804
782,4.5895358198322356e-06,1.0,0.562233030796051,0.9055194805194804
783,4.572505986288888e-06,1.0,0.5623789429664612,0.9055194805194804
784,4.554412043944467e-06,1.0,0.5625864863395691,0.9055194805194804
785,4.538446773949545e-06,1.0,0.562735915184021,0.9055194805194804
786,4.519287813309347e-06,1.0,0.5628253817558289,0.9055194805194804
787,4.504387561610201e-06,1.0,0.563039243221283,0.9055194805194804
788,4.48203581981943e-06,1.0,0.5631980299949646,0.9055194805194804
789,4.461812750378158e-06,1.0,0.5631660223007202,0.9055194805194804
790,4.443718808033736e-06,1.0,0.5634571313858032,0.9055194805194804
791,4.42456030214089e-06,1.0,0.563651442527771,0.9055194805194804
792,4.400079888000619e-06,1.0,0.5638664364814758,0.9055194805194804
793,4.3873078539036214e-06,1.0,0.563825249671936,0.9055194805194804
794,4.369213456811849e-06,1.0,0.5641462206840515,0.9055194805194804
795,4.355376859166427e-06,1.0,0.5642716288566589,0.9055194805194804
796,4.338347025623079e-06,1.0,0.564376950263977,0.9055194805194804
797,4.311737939133309e-06,1.0,0.564637303352356,0.9055194805194804
798,4.291514869692037e-06,1.0,0.5647398829460144,0.9055194805194804
799,4.277678726793965e-06,1.0,0.5649190545082092,0.9055194805194804
800,4.265970801498042e-06,1.0,0.5650952458381653,0.9055194805194804
801,4.248940967954695e-06,1.0,0.5652841925621033,0.9055194805194804
802,4.224460553814424e-06,1.0,0.5653359889984131,0.9055194805194804
803,4.210624410916353e-06,1.0,0.565606415271759,0.9055194805194804
804,4.190401341475081e-06,1.0,0.5656811594963074,0.9055194805194804
805,4.177628852630733e-06,1.0,0.5658389329910278,0.9055194805194804
806,4.163791800237959e-06,1.0,0.5659827589988708,0.9055194805194804
807,4.142505076742964e-06,1.0,0.5661197900772095,0.9055194805194804
808,4.125475243199617e-06,1.0,0.5662807822227478,0.9055194805194804
809,4.109509518457344e-06,1.0,0.5664480328559875,0.9055194805194804
810,4.0967374843603466e-06,1.0,0.5664888024330139,0.9055194805194804
811,4.081836323166499e-06,1.0,0.566733181476593,0.9055194805194804
812,4.062677817273652e-06,1.0,0.5669165253639221,0.9055194805194804
813,4.043519766128156e-06,1.0,0.5671617984771729,0.9055194805194804
814,4.02223258788581e-06,1.0,0.5671563148498535,0.9055194805194804
815,4.005202754342463e-06,1.0,0.5674223303794861,0.9055194805194804
816,3.993494374299189e-06,1.0,0.567472517490387,0.9055194805194804
817,3.9754008867021184e-06,1.0,0.5676507353782654,0.9055194805194804
818,3.958371053158771e-06,1.0,0.5677885413169861,0.9055194805194804
819,3.944534000765998e-06,1.0,0.5678589940071106,0.9055194805194804
820,3.926440058421576e-06,1.0,0.5681574940681458,0.9055194805194804
821,3.90728155252873e-06,1.0,0.5681847333908081,0.9055194805194804
822,3.893444500135956e-06,1.0,0.5684106945991516,0.9055194805194804
823,3.880672466038959e-06,1.0,0.5685675740242004,0.9055194805194804
824,3.866835868393537e-06,1.0,0.5686159133911133,0.9055194805194804
825,3.848741471301764e-06,1.0,0.5687932968139648,0.9055194805194804
826,3.831711637758417e-06,1.0,0.5689146518707275,0.9055194805194804
827,3.817875040112995e-06,1.0,0.5690696835517883,0.9055194805194804
828,3.7987167615938233e-06,1.0,0.569336473941803,0.9055194805194804
829,3.7838156003999757e-06,1.0,0.569491446018219,0.9055194805194804
830,3.7721074477303773e-06,1.0,0.569557785987854,0.9055194805194804
831,3.7540132780122804e-06,1.0,0.5698042511940002,0.9055194805194804
832,3.7359191082941834e-06,1.0,0.5699196457862854,0.9055194805194804
833,3.7242111829982605e-06,1.0,0.5700363516807556,0.9055194805194804
834,3.710374585352838e-06,1.0,0.570216715335846,0.9055194805194804
835,3.6933452065568417e-06,1.0,0.5704084634780884,0.9055194805194804
836,3.678444045362994e-06,1.0,0.5706295371055603,0.9055194805194804
837,3.6624785479943966e-06,1.0,0.5708054900169373,0.9055194805194804
838,3.648641950348974e-06,1.0,0.5708478689193726,0.9055194805194804
839,3.6326762256067013e-06,1.0,0.5712434649467468,0.9055194805194804
840,3.617775291786529e-06,1.0,0.5712558627128601,0.9055194805194804
841,3.6039384667674312e-06,1.0,0.5715327262878418,0.9055194805194804
842,3.590101869122009e-06,1.0,0.5715940594673157,0.9055194805194804
843,3.5762652714765863e-06,1.0,0.5717321038246155,0.9055194805194804
844,3.563493237379589e-06,1.0,0.5718346238136292,0.9055194805194804
845,3.5475277400109917e-06,1.0,0.5721019506454468,0.9055194805194804
846,3.5358195873413933e-06,1.0,0.5722512006759644,0.9055194805194804
847,3.518789753798046e-06,1.0,0.5724324584007263,0.9055194805194804
848,3.5102748370263726e-06,1.0,0.572526752948761,0.9055194805194804
849,3.4889878861577017e-06,1.0,0.572799563407898,0.9055194805194804
850,3.480472969386028e-06,1.0,0.5728592276573181,0.9055194805194804
851,3.4591855637700064e-06,1.0,0.5730365514755249,0.9055194805194804
852,3.4474776384740835e-06,1.0,0.5732230544090271,0.9055194805194804
853,3.436833821979235e-06,1.0,0.5733593702316284,0.9055194805194804
854,3.4219326607853873e-06,1.0,0.5736428499221802,0.9055194805194804
855,3.4049030546157155e-06,1.0,0.5737015008926392,0.9055194805194804
856,3.392130793145043e-06,1.0,0.5739133954048157,0.9055194805194804
857,3.3793587590480456e-06,1.0,0.5740375518798828,0.9055194805194804
858,3.358071353432024e-06,1.0,0.5741416811943054,0.9055194805194804
859,3.3484921004856005e-06,1.0,0.5744550824165344,0.9055194805194804
860,3.3357196116412524e-06,1.0,0.5744519233703613,0.9055194805194804
861,3.3240116863453295e-06,1.0,0.5747314691543579,0.9055194805194804
862,3.308046188976732e-06,1.0,0.5748264193534851,0.9055194805194804
863,3.2942095913313096e-06,1.0,0.575005054473877,0.9055194805194804
864,3.2846303383848863e-06,1.0,0.5750831365585327,0.9055194805194804
865,3.267600504841539e-06,1.0,0.5752419829368591,0.9055194805194804
866,3.2601499242446152e-06,1.0,0.5754439234733582,0.9055194805194804
867,3.243120090701268e-06,1.0,0.5756482481956482,0.9055194805194804
868,3.2335408377548447e-06,1.0,0.5757249593734741,0.9055194805194804
869,3.2122536595124984e-06,1.0,0.5760309100151062,0.9055194805194804
870,3.20480330628925e-06,1.0,0.5760022401809692,0.9055194805194804
871,3.194159717168077e-06,1.0,0.5762540698051453,0.9055194805194804
872,3.186709136571153e-06,1.0,0.5764597058296204,0.9055194805194804
873,3.167550403304631e-06,1.0,0.5766109228134155,0.9055194805194804
874,3.1569068141834578e-06,1.0,0.576747715473175,0.9055194805194804
875,3.14732778861071e-06,1.0,0.5770972967147827,0.9055194805194804
876,3.133490963591612e-06,1.0,0.577004075050354,0.9055194805194804
877,3.1143322303250898e-06,1.0,0.577348530292511,0.9055194805194804
878,3.1047529773786664e-06,1.0,0.5774549245834351,0.9055194805194804
879,3.0951739518059185e-06,1.0,0.577595591545105,0.9055194805194804
880,3.0813371267868206e-06,1.0,0.5776521563529968,0.9055194805194804
881,3.0706935376656475e-06,1.0,0.5777819752693176,0.9055194805194804
882,3.0579210488212993e-06,1.0,0.577957272529602,0.9055194805194804
883,3.046212896151701e-06,1.0,0.5781787633895874,0.9055194805194804
884,3.0270546176325297e-06,1.0,0.578427255153656,0.9055194805194804
885,3.0164114832587074e-06,1.0,0.5783900618553162,0.9055194805194804
886,3.0089609026617836e-06,1.0,0.5786634087562561,0.9055194805194804
887,2.9951240776426857e-06,1.0,0.5787893533706665,0.9055194805194804
888,2.987673497045762e-06,1.0,0.5791236758232117,0.9055194805194804
889,2.9791585802740883e-06,1.0,0.5790995359420776,0.9055194805194804
890,2.9610648653033422e-06,1.0,0.5794080495834351,0.9055194805194804
891,2.949356712633744e-06,1.0,0.5794099569320679,0.9055194805194804
892,2.9333912152651465e-06,1.0,0.579672634601593,0.9055194805194804
893,2.921683062595548e-06,1.0,0.5797518491744995,0.9055194805194804
894,2.9121038096491247e-06,1.0,0.5799558758735657,0.9055194805194804
895,2.898266984630027e-06,1.0,0.5801989436149597,0.9055194805194804
896,2.887623622882529e-06,1.0,0.5804257988929749,0.9055194805194804
897,2.8737867978634313e-06,1.0,0.5805920958518982,0.9055194805194804
898,2.8674005534412572e-06,1.0,0.5807405710220337,0.9055194805194804
899,2.8556926281453343e-06,1.0,0.5807632803916931,0.9055194805194804
900,2.843984475475736e-06,1.0,0.5810083746910095,0.9055194805194804
901,2.835469786077738e-06,1.0,0.581135630607605,0.9055194805194804
902,2.8248261969565647e-06,1.0,0.5812534689903259,0.9055194805194804
903,2.807796136039542e-06,1.0,0.581375777721405,0.9055194805194804
904,2.799281446641544e-06,1.0,0.5817787051200867,0.9055194805194804
905,2.787573521345621e-06,1.0,0.5816646218299866,0.9055194805194804
906,2.7790586045739474e-06,1.0,0.5819658637046814,0.9055194805194804
907,2.7662861157295993e-06,1.0,0.5819502472877502,0.9055194805194804
908,2.754577963060001e-06,1.0,0.5822394490242004,0.9055194805194804
909,2.7439343739388278e-06,1.0,0.5823901295661926,0.9055194805194804
910,2.736483793341904e-06,1.0,0.5825459361076355,0.9055194805194804
911,2.7183898509974824e-06,1.0,0.5826414823532104,0.9055194805194804
912,2.7088103706773836e-06,1.0,0.5829282402992249,0.9055194805194804
913,2.698167008929886e-06,1.0,0.5830194354057312,0.9055194805194804
914,2.690716428332962e-06,1.0,0.5832949280738831,0.9055194805194804
915,2.680072839211789e-06,1.0,0.583329975605011,0.9055194805194804
916,2.6747509309643647e-06,1.0,0.5835369229316711,0.9055194805194804
917,2.659849769770517e-06,1.0,0.5837516784667969,0.9055194805194804
918,2.6481416171009187e-06,1.0,0.5839151740074158,0.9055194805194804
919,2.6385625915281707e-06,1.0,0.5841394662857056,0.9055194805194804
920,2.6257901026838226e-06,1.0,0.584253191947937,0.9055194805194804
921,2.6140821773878997e-06,1.0,0.5843528509140015,0.9055194805194804
922,2.609824605315225e-06,1.0,0.5846871733665466,0.9055194805194804
923,2.603438360893051e-06,1.0,0.5847733616828918,0.9055194805194804
924,2.5864087547233794e-06,1.0,0.5850252509117126,0.9055194805194804
925,2.576829501776956e-06,1.0,0.5849707722663879,0.9055194805194804
926,2.5672502488305327e-06,1.0,0.5851322412490845,0.9055194805194804
927,2.5555423235346097e-06,1.0,0.5852616429328918,0.9055194805194804
928,2.5448987344134366e-06,1.0,0.5855233073234558,0.9055194805194804
929,2.5353194814670132e-06,1.0,0.5857322812080383,0.9055194805194804
930,2.5278689008700894e-06,1.0,0.5858684778213501,0.9055194805194804
931,2.5204183202731656e-06,1.0,0.5860451459884644,0.9055194805194804
932,2.5108388399530668e-06,1.0,0.5863632559776306,0.9055194805194804
933,2.5001952508318936e-06,1.0,0.5865634679794312,0.9055194805194804
934,2.4863584258127958e-06,1.0,0.5865856409072876,0.9055194805194804
935,2.475715064065298e-06,1.0,0.586844265460968,0.9055194805194804
936,2.4650712475704495e-06,1.0,0.5869385600090027,0.9055194805194804
937,2.456556330798776e-06,1.0,0.5872743725776672,0.9055194805194804
938,2.442719505779678e-06,1.0,0.5872734189033508,0.9055194805194804
939,2.4320761440321803e-06,1.0,0.5876550078392029,0.9055194805194804
940,2.4246255634352565e-06,1.0,0.5877869725227356,0.9055194805194804
941,2.4182393190130824e-06,1.0,0.5880018472671509,0.9055194805194804
942,2.4054668301687343e-06,1.0,0.588054358959198,0.9055194805194804
943,2.3926945686980616e-06,1.0,0.5883207321166992,0.9055194805194804
944,2.382050752203213e-06,1.0,0.5884416699409485,0.9055194805194804
945,2.37566496252839e-06,1.0,0.5885888338088989,0.9055194805194804
946,2.3714073904557154e-06,1.0,0.5888010859489441,0.9055194805194804
947,2.361828137509292e-06,1.0,0.5890676379203796,0.9055194805194804
948,2.355441893087118e-06,1.0,0.589058518409729,0.9055194805194804
949,2.3469272036891198e-06,1.0,0.5894309878349304,0.9055194805194804
950,2.3373479507426964e-06,1.0,0.5896338224411011,0.9055194805194804
951,2.3277684704225976e-06,1.0,0.5898995995521545,0.9055194805194804
952,2.3171248813014245e-06,1.0,0.5899905562400818,0.9055194805194804
953,2.305416728631826e-06,1.0,0.5902597308158875,0.9055194805194804
954,2.2937088033359032e-06,1.0,0.5901356935501099,0.9055194805194804
955,2.2841293230158044e-06,1.0,0.5905417203903198,0.9055194805194804
956,2.2788076421420556e-06,1.0,0.5904408693313599,0.9055194805194804
957,2.2745502974430565e-06,1.0,0.5907224416732788,0.9055194805194804
958,2.261778035972384e-06,1.0,0.5907950401306152,0.9055194805194804
959,2.250070110676461e-06,1.0,0.5909875631332397,0.9055194805194804
960,2.245812765977462e-06,1.0,0.5912491083145142,0.9055194805194804
961,2.2404908577300375e-06,1.0,0.5915502905845642,0.9055194805194804
962,2.2266540327109396e-06,1.0,0.5916133522987366,0.9055194805194804
963,2.2149458800413413e-06,1.0,0.5916966795921326,0.9055194805194804
964,2.2096241991675925e-06,1.0,0.5919005274772644,0.9055194805194804
965,2.2032379547454184e-06,1.0,0.5920538306236267,0.9055194805194804
966,2.194723037973745e-06,1.0,0.5923910737037659,0.9055194805194804
967,2.187272457376821e-06,1.0,0.5924111604690552,0.9055194805194804
968,2.1755643047072226e-06,1.0,0.5926111936569214,0.9055194805194804
969,2.1659850517607993e-06,1.0,0.5927391052246094,0.9055194805194804
970,2.1585344711638754e-06,1.0,0.593091607093811,0.9055194805194804
971,2.152148454115377e-06,1.0,0.592974841594696,0.9055194805194804
972,2.1393759652710287e-06,1.0,0.5933712124824524,0.9055194805194804
973,2.1329897208488546e-06,1.0,0.5932586789131165,0.9055194805194804
974,2.1276680399751058e-06,1.0,0.5934719443321228,0.9055194805194804
975,2.115960114679183e-06,1.0,0.5936604738235474,0.9055194805194804
976,2.109573870257009e-06,1.0,0.5941054224967957,0.9055194805194804
977,2.1031876258348348e-06,1.0,0.5939579606056213,0.9055194805194804
978,2.0999946173105855e-06,1.0,0.5942703485488892,0.9055194805194804
979,2.085093456116738e-06,1.0,0.5943089127540588,0.9055194805194804
980,2.076578539345064e-06,1.0,0.5946823954582214,0.9055194805194804
981,2.07125663109764e-06,1.0,0.5948918461799622,0.9055194805194804
982,2.0563554699037923e-06,1.0,0.5950308442115784,0.9055194805194804
983,2.053162461379543e-06,1.0,0.5950995087623596,0.9055194805194804
984,2.0414547634572955e-06,1.0,0.5952588319778442,0.9055194805194804
985,2.0340041828603717e-06,1.0,0.5952243804931641,0.9055194805194804
986,2.026553602263448e-06,1.0,0.5955389142036438,0.9055194805194804
987,2.0212316940160235e-06,1.0,0.5956260561943054,0.9055194805194804
988,2.01271677724435e-06,1.0,0.5958596467971802,0.9055194805194804
989,2.005266196647426e-06,1.0,0.595830500125885,0.9055194805194804
990,1.9946223801525775e-06,1.0,0.5961747169494629,0.9055194805194804
991,1.9882365904777544e-06,1.0,0.5963545441627502,0.9055194805194804
992,1.9818503460555803e-06,1.0,0.5966321229934692,0.9055194805194804
993,1.9712065295607317e-06,1.0,0.5965889692306519,0.9055194805194804
994,1.9637561763374833e-06,1.0,0.5969218611717224,0.9055194805194804
995,1.958434268090059e-06,1.0,0.5968648791313171,0.9055194805194804
996,1.9531123598426348e-06,1.0,0.5972042083740234,0.9055194805194804
997,1.9456620066193864e-06,1.0,0.5972366333007812,0.9055194805194804
998,1.9360825262992876e-06,1.0,0.5975871682167053,0.9055194805194804
999,1.9318251816002885e-06,1.0,0.5975317358970642,0.9055194805194804
