,loss,recall,val_loss,val_recall
0,2.7998273372650146,0.5899999737739563,0.49108269810676575,0.7599999904632568
1,0.608005166053772,0.8199999928474426,0.6720306277275085,0.6399999856948853
2,0.35339221358299255,0.7900000214576721,0.6687840819358826,0.6700000166893005
3,0.3025408089160919,0.8399999737739563,0.422329306602478,0.7900000214576721
4,0.26411816477775574,0.8700000047683716,0.3815312087535858,0.800000011920929
5,0.20543093979358673,0.9200000166893005,0.37645602226257324,0.8500000238418579
6,0.14573639631271362,0.9300000071525574,0.43945616483688354,0.800000011920929
7,0.11795925348997116,0.9599999785423279,0.4019412696361542,0.8199999928474426
8,0.08918680995702744,0.9700000286102295,0.6632605791091919,0.6700000166893005
9,0.05449536815285683,0.9900000095367432,0.5625783801078796,0.75
10,0.03935166448354721,1.0,0.9473084211349487,0.5199999809265137
11,0.02046785317361355,1.0,1.0384734869003296,0.49000000953674316
12,0.016477951779961586,1.0,1.1755954027175903,0.4399999976158142
13,0.009268690831959248,1.0,1.0581085681915283,0.6100000143051147
14,0.006959828082472086,1.0,1.1049996614456177,0.6100000143051147
15,0.006556328386068344,1.0,1.2075271606445312,0.5600000023841858
16,0.004392759408801794,1.0,1.110630750656128,0.6399999856948853
17,0.0047242725268006325,1.0,1.2675459384918213,0.6000000238418579
18,0.0029703343752771616,1.0,1.0921928882598877,0.6600000262260437
19,0.003040238283574581,1.0,1.0878266096115112,0.6800000071525574
20,0.0025429243687540293,1.0,1.121828317642212,0.6800000071525574
21,0.0020274175330996513,1.0,1.0135959386825562,0.6899999976158142
22,0.002164718694984913,1.0,0.9748772382736206,0.7200000286102295
23,0.0015502707101404667,1.0,0.9798135161399841,0.7099999785423279
24,0.0016032226849347353,1.0,0.9111114740371704,0.7599999904632568
25,0.0014132637297734618,1.0,0.8224809765815735,0.7599999904632568
26,0.001071828999556601,1.0,0.8129205107688904,0.7599999904632568
27,0.0011035146890208125,1.0,0.7588667273521423,0.7699999809265137
28,0.0010232878848910332,1.0,0.7007062435150146,0.7799999713897705
29,0.0008560470305383205,1.0,0.6400302648544312,0.8199999928474426
30,0.0009077973081730306,1.0,0.6215882897377014,0.8399999737739563
31,0.0008148766937665641,1.0,0.6125755906105042,0.8399999737739563
32,0.0007350663072429597,1.0,0.5579885244369507,0.8700000047683716
33,0.0005595346447080374,1.0,0.5459105968475342,0.8799999952316284
34,0.0006504455814138055,1.0,0.5335076451301575,0.8899999856948853
35,0.000508152530528605,1.0,0.5145013332366943,0.8899999856948853
36,0.0004992869216948748,1.0,0.4837578535079956,0.8899999856948853
37,0.00044884465751238167,1.0,0.46787941455841064,0.8899999856948853
38,0.00046346598537638783,1.0,0.4514114260673523,0.8899999856948853
39,0.0004331881646066904,1.0,0.42773041129112244,0.8899999856948853
40,0.00039209602982737124,1.0,0.42421162128448486,0.8899999856948853
41,0.00042490591295063496,1.0,0.41846856474876404,0.8899999856948853
42,0.00032749256934039295,1.0,0.4100223481655121,0.8899999856948853
43,0.00034362581209279597,1.0,0.4071982204914093,0.9100000262260437
44,0.00031329295597970486,1.0,0.39678847789764404,0.9300000071525574
45,0.0003050947852898389,1.0,0.3928437829017639,0.9300000071525574
46,0.0002860869572032243,1.0,0.39032065868377686,0.9300000071525574
47,0.00029737595468759537,1.0,0.39087578654289246,0.9300000071525574
48,0.0002719676704145968,1.0,0.40044844150543213,0.9300000071525574
49,0.00028410146478563547,1.0,0.391437292098999,0.9300000071525574
50,0.0002847437863238156,1.0,0.3885445296764374,0.9300000071525574
51,0.00024260250211227685,1.0,0.3892783224582672,0.9399999976158142
52,0.0002245097275590524,1.0,0.3890847861766815,0.9399999976158142
53,0.0002095882809953764,1.0,0.38688454031944275,0.9399999976158142
54,0.00020229269284754992,1.0,0.386921226978302,0.9399999976158142
55,0.00024914980167523026,1.0,0.3910048007965088,0.9399999976158142
56,0.0001905295066535473,1.0,0.38978907465934753,0.9300000071525574
57,0.0002216729917563498,1.0,0.3892468214035034,0.9200000166893005
58,0.0001645754964556545,1.0,0.391640305519104,0.9200000166893005
59,0.00019081919162999839,1.0,0.3962816298007965,0.9200000166893005
60,0.00016138431965373456,1.0,0.39593514800071716,0.9200000166893005
61,0.00015444826567545533,1.0,0.3962084949016571,0.9200000166893005
62,0.00015351432375609875,1.0,0.3969166576862335,0.9200000166893005
63,0.00014520510740112513,1.0,0.39930039644241333,0.9200000166893005
64,0.0001824804348871112,1.0,0.40298977494239807,0.9200000166893005
65,0.0001389232638757676,1.0,0.40887314081192017,0.9200000166893005
66,0.0001472574076615274,1.0,0.41178303956985474,0.9200000166893005
67,0.00011323506623739377,1.0,0.4152894914150238,0.9200000166893005
68,0.00011586500477278605,1.0,0.4174991846084595,0.9200000166893005
69,0.00013584877888206393,1.0,0.4174792468547821,0.9200000166893005
70,9.341040276922286e-05,1.0,0.4203113615512848,0.9200000166893005
71,0.00010097835911437869,1.0,0.4228801429271698,0.9200000166893005
72,9.863659943221137e-05,1.0,0.42458510398864746,0.9200000166893005
73,9.157083695754409e-05,1.0,0.4258882999420166,0.9200000166893005
74,8.55240214150399e-05,1.0,0.42852264642715454,0.9200000166893005
75,9.924586629495025e-05,1.0,0.4321128726005554,0.9200000166893005
76,7.309510692721233e-05,1.0,0.43453270196914673,0.9200000166893005
77,9.36954966164194e-05,1.0,0.4360678195953369,0.9200000166893005
78,8.508050086675212e-05,1.0,0.43681132793426514,0.9200000166893005
79,7.079102942952886e-05,1.0,0.4397508203983307,0.9100000262260437
80,0.00010312898666597903,1.0,0.4423576295375824,0.9100000262260437
81,6.821114220656455e-05,1.0,0.4414333701133728,0.9100000262260437
82,6.79630902595818e-05,1.0,0.442281037569046,0.9100000262260437
83,6.526659126393497e-05,1.0,0.4449170231819153,0.9100000262260437
84,7.780632586218417e-05,1.0,0.4463968575000763,0.9100000262260437
85,7.024062506388873e-05,1.0,0.44816598296165466,0.9200000166893005
86,6.453399691963568e-05,1.0,0.44937118887901306,0.9100000262260437
87,7.935547910165042e-05,1.0,0.45144379138946533,0.9100000262260437
88,5.3968349675415084e-05,1.0,0.45290032029151917,0.9100000262260437
89,6.550268881255761e-05,1.0,0.45411285758018494,0.9100000262260437
90,5.5376112868543714e-05,1.0,0.45604830980300903,0.9100000262260437
91,5.177016282686964e-05,1.0,0.45782583951950073,0.9100000262260437
92,4.827232623938471e-05,1.0,0.46024632453918457,0.9100000262260437
93,6.0120277339592576e-05,1.0,0.46210864186286926,0.9100000262260437
94,4.830216494156048e-05,1.0,0.4623132646083832,0.9100000262260437
95,4.941539737046696e-05,1.0,0.46378272771835327,0.9100000262260437
96,3.81758545699995e-05,1.0,0.4654920697212219,0.9100000262260437
97,5.140644498169422e-05,1.0,0.4668373167514801,0.9100000262260437
98,3.851667861454189e-05,1.0,0.46881821751594543,0.9100000262260437
99,4.561233436106704e-05,1.0,0.4707697927951813,0.9100000262260437
100,4.7474983148276806e-05,1.0,0.47178277373313904,0.9100000262260437
101,3.8895868783583865e-05,1.0,0.47365352511405945,0.9100000262260437
102,3.9929276681505144e-05,1.0,0.47602975368499756,0.9100000262260437
103,4.134826303925365e-05,1.0,0.47719481587409973,0.9100000262260437
104,3.4687462175497785e-05,1.0,0.47787439823150635,0.9100000262260437
105,3.0864059226587415e-05,1.0,0.4794929623603821,0.9100000262260437
106,2.9218983399914578e-05,1.0,0.48179003596305847,0.9100000262260437
107,3.0053432055865414e-05,1.0,0.4824678897857666,0.9100000262260437
108,3.315618232591078e-05,1.0,0.48316532373428345,0.9100000262260437
109,3.8244586903601885e-05,1.0,0.48416024446487427,0.9100000262260437
110,3.644002208602615e-05,1.0,0.48524123430252075,0.9100000262260437
111,2.446303187753074e-05,1.0,0.48590123653411865,0.9100000262260437
112,2.679186945897527e-05,1.0,0.486280620098114,0.9100000262260437
113,2.617339850985445e-05,1.0,0.4875989556312561,0.9100000262260437
114,2.5114948584814556e-05,1.0,0.4878210425376892,0.9100000262260437
115,2.645086351549253e-05,1.0,0.48933371901512146,0.9100000262260437
116,3.16536970785819e-05,1.0,0.48925819993019104,0.9100000262260437
117,2.2327976694214158e-05,1.0,0.48947787284851074,0.9100000262260437
118,2.16749103856273e-05,1.0,0.4901202321052551,0.9100000262260437
119,3.190230199834332e-05,1.0,0.4909275472164154,0.9100000262260437
120,2.8171729354653507e-05,1.0,0.4906429648399353,0.9100000262260437
121,2.8460583052947186e-05,1.0,0.4911791980266571,0.9100000262260437
122,2.271431549161207e-05,1.0,0.4921414256095886,0.9100000262260437
123,2.8277845558477566e-05,1.0,0.4927244484424591,0.9100000262260437
124,2.291101736773271e-05,1.0,0.49408653378486633,0.9100000262260437
125,1.9609044102253392e-05,1.0,0.4953286647796631,0.9100000262260437
126,2.1729469153797254e-05,1.0,0.4960668981075287,0.9100000262260437
127,2.3914377379696816e-05,1.0,0.496760755777359,0.9100000262260437
128,2.8693340937024914e-05,1.0,0.49714478850364685,0.9100000262260437
129,1.9972580048488453e-05,1.0,0.497548371553421,0.9100000262260437
130,1.7939020835910924e-05,1.0,0.49815303087234497,0.9100000262260437
131,2.4568516892031766e-05,1.0,0.49869999289512634,0.9100000262260437
132,2.204892734880559e-05,1.0,0.49926742911338806,0.9100000262260437
133,1.7617147022974677e-05,1.0,0.5002139806747437,0.9100000262260437
134,2.125044738932047e-05,1.0,0.5013135671615601,0.9100000262260437
135,1.7606625988264568e-05,1.0,0.5020688772201538,0.9100000262260437
136,2.264676550112199e-05,1.0,0.5019596219062805,0.9100000262260437
137,2.1147456209291704e-05,1.0,0.502151370048523,0.9100000262260437
138,1.8207378161605448e-05,1.0,0.5030249953269958,0.9100000262260437
139,2.0358893380034715e-05,1.0,0.5042570233345032,0.9100000262260437
140,1.8060445654555224e-05,1.0,0.5050665140151978,0.9100000262260437
141,1.898666778288316e-05,1.0,0.5056712627410889,0.9100000262260437
142,2.1658774130628444e-05,1.0,0.5060681700706482,0.9100000262260437
143,1.8094930055667646e-05,1.0,0.5061860084533691,0.9100000262260437
144,2.524194133002311e-05,1.0,0.5062141418457031,0.9100000262260437
145,1.586981670698151e-05,1.0,0.5064722895622253,0.9100000262260437
146,2.3368867914541624e-05,1.0,0.5065648555755615,0.9100000262260437
147,2.105376734107267e-05,1.0,0.5068306922912598,0.9100000262260437
148,2.6225525289191864e-05,1.0,0.5071178674697876,0.9100000262260437
149,1.763645741448272e-05,1.0,0.5075764060020447,0.9100000262260437
150,2.1713480236940086e-05,1.0,0.5078555941581726,0.9100000262260437
151,2.121818033629097e-05,1.0,0.5080613493919373,0.9100000262260437
152,1.8617054593050852e-05,1.0,0.5074131488800049,0.9100000262260437
153,2.2721931600244716e-05,1.0,0.507163941860199,0.9100000262260437
154,1.6642175978631712e-05,1.0,0.5076369643211365,0.9100000262260437
155,1.470289225835586e-05,1.0,0.5081818699836731,0.9100000262260437
156,1.8782844563247636e-05,1.0,0.5090080499649048,0.9100000262260437
157,1.4396487131307367e-05,1.0,0.5094566345214844,0.9100000262260437
158,1.4925766663509421e-05,1.0,0.5099458694458008,0.9100000262260437
159,1.9030958355870098e-05,1.0,0.5107085704803467,0.9100000262260437
160,1.6952137229964137e-05,1.0,0.5119865536689758,0.9100000262260437
161,1.685431197984144e-05,1.0,0.5130426287651062,0.9100000262260437
162,1.424492074875161e-05,1.0,0.5134191513061523,0.9100000262260437
163,2.1040621504653245e-05,1.0,0.5137712955474854,0.9100000262260437
164,1.2746720130962785e-05,1.0,0.5142867565155029,0.9100000262260437
165,1.4255603673518635e-05,1.0,0.5144857168197632,0.9100000262260437
166,1.4334309526020661e-05,1.0,0.5147802233695984,0.9100000262260437
167,1.53787259478122e-05,1.0,0.5159419178962708,0.9100000262260437
168,1.3909955669078045e-05,1.0,0.5164653658866882,0.9100000262260437
169,1.970126322703436e-05,1.0,0.5164974927902222,0.9100000262260437
170,1.7196456610690802e-05,1.0,0.5168070197105408,0.9100000262260437
171,1.355373296973994e-05,1.0,0.5171676874160767,0.9100000262260437
172,1.5944737242534757e-05,1.0,0.5177596211433411,0.9100000262260437
173,1.081203117792029e-05,1.0,0.5183489322662354,0.9100000262260437
174,1.3553670214605518e-05,1.0,0.5188495516777039,0.9100000262260437
175,1.6751904695411213e-05,1.0,0.5195721387863159,0.9100000262260437
176,1.8002105207415298e-05,1.0,0.5199379920959473,0.9100000262260437
177,1.3489226148521993e-05,1.0,0.5201047658920288,0.9100000262260437
178,1.265612354472978e-05,1.0,0.5206212401390076,0.9100000262260437
179,1.4399774045159575e-05,1.0,0.5208935737609863,0.9100000262260437
180,1.3989925719215535e-05,1.0,0.521353006362915,0.9100000262260437
181,1.51927160914056e-05,1.0,0.5220046043395996,0.9100000262260437
182,1.41664277180098e-05,1.0,0.5227724313735962,0.9100000262260437
183,1.2881323527835775e-05,1.0,0.5236315727233887,0.9100000262260437
184,1.1974273547821213e-05,1.0,0.5242142677307129,0.9100000262260437
185,1.2143324966018554e-05,1.0,0.5247114300727844,0.9100000262260437
186,1.3301938452059403e-05,1.0,0.5248745679855347,0.9100000262260437
187,1.0790601663757116e-05,1.0,0.5255414843559265,0.9100000262260437
188,1.285148573515471e-05,1.0,0.5255115628242493,0.9100000262260437
189,1.0913345249718986e-05,1.0,0.5256360769271851,0.9100000262260437
190,1.1756102139770519e-05,1.0,0.5255695581436157,0.9100000262260437
191,1.113384041673271e-05,1.0,0.5258233547210693,0.9100000262260437
192,1.1926642400794663e-05,1.0,0.526580274105072,0.9100000262260437
193,1.2389046787575353e-05,1.0,0.5271164178848267,0.9100000262260437
194,1.1763209840864874e-05,1.0,0.5274398922920227,0.9100000262260437
195,1.1283934327366296e-05,1.0,0.5277600288391113,0.9100000262260437
196,1.0008623576140963e-05,1.0,0.5281692147254944,0.9100000262260437
197,1.2636859537451528e-05,1.0,0.5289410948753357,0.9100000262260437
198,1.4317615750769619e-05,1.0,0.529339075088501,0.9100000262260437
199,1.0680832929210737e-05,1.0,0.5302149653434753,0.9100000262260437
200,8.840423106448725e-06,1.0,0.5311256647109985,0.9100000262260437
201,1.2360439541225787e-05,1.0,0.5319887399673462,0.9100000262260437
202,1.1069472748204134e-05,1.0,0.5324318408966064,0.9100000262260437
203,1.1123116564704105e-05,1.0,0.5326247811317444,0.9100000262260437
204,1.0216033842880279e-05,1.0,0.5327509641647339,0.9100000262260437
205,9.165770279651042e-06,1.0,0.5332043170928955,0.9100000262260437
206,1.1516338418005034e-05,1.0,0.5335642099380493,0.9100000262260437
207,8.464910933980718e-06,1.0,0.5339707136154175,0.9100000262260437
208,1.0393543561804108e-05,1.0,0.5346586108207703,0.9100000262260437
209,1.2878947927674744e-05,1.0,0.5349360704421997,0.9100000262260437
210,1.2656086255447008e-05,1.0,0.5351037979125977,0.9100000262260437
211,8.834429536364041e-06,1.0,0.5354627370834351,0.9100000262260437
212,1.476697525504278e-05,1.0,0.5355706810951233,0.9100000262260437
213,1.1243237167946063e-05,1.0,0.5356665253639221,0.9100000262260437
214,1.1939658179471735e-05,1.0,0.5358631610870361,0.9100000262260437
215,8.96080382517539e-06,1.0,0.5357792377471924,0.9100000262260437
216,1.0025210031017195e-05,1.0,0.5358101725578308,0.9100000262260437
217,8.715195690456312e-06,1.0,0.5358220934867859,0.9100000262260437
218,8.818929018161725e-06,1.0,0.5359711050987244,0.9100000262260437
219,1.0659427971404511e-05,1.0,0.5362208485603333,0.9100000262260437
220,8.42317967908457e-06,1.0,0.5364491939544678,0.9100000262260437
221,1.2230401807755698e-05,1.0,0.5365004539489746,0.9100000262260437
222,1.0550916158535983e-05,1.0,0.5365625619888306,0.9100000262260437
223,1.0018057764682453e-05,1.0,0.5368611812591553,0.9100000262260437
224,1.0993202522513457e-05,1.0,0.5373063683509827,0.9100000262260437
225,9.419748494110536e-06,1.0,0.537594199180603,0.9100000262260437
226,1.0522376214794349e-05,1.0,0.5379112362861633,0.9100000262260437
227,9.335044524050318e-06,1.0,0.5383098125457764,0.9100000262260437
228,8.821307346806861e-06,1.0,0.5385156869888306,0.9100000262260437
229,1.0516315342101734e-05,1.0,0.5387420058250427,0.9100000262260437
230,1.5231592442432884e-05,1.0,0.5386762022972107,0.9100000262260437
231,1.2162361599621363e-05,1.0,0.5388731956481934,0.9100000262260437
232,1.044711098074913e-05,1.0,0.5389978885650635,0.9100000262260437
233,8.783131306699943e-06,1.0,0.5390419960021973,0.9100000262260437
234,7.75324042479042e-06,1.0,0.5392241477966309,0.9100000262260437
235,9.375562513014302e-06,1.0,0.5394687652587891,0.9100000262260437
236,1.0249357728753239e-05,1.0,0.539672315120697,0.9100000262260437
237,1.2271951163711492e-05,1.0,0.5397455096244812,0.9100000262260437
238,1.6209571185754612e-05,1.0,0.5396900177001953,0.9100000262260437
239,9.074053195945453e-06,1.0,0.5396540760993958,0.9100000262260437
240,9.097876500163693e-06,1.0,0.5397164225578308,0.9100000262260437
241,8.237215297413059e-06,1.0,0.5397619605064392,0.9100000262260437
242,8.848767720337491e-06,1.0,0.5399339199066162,0.9100000262260437
243,9.720110028865747e-06,1.0,0.540419340133667,0.9100000262260437
244,6.976038093853276e-06,1.0,0.5408889651298523,0.9100000262260437
245,8.208594408642966e-06,1.0,0.5412316918373108,0.9100000262260437
246,1.009561492537614e-05,1.0,0.5416201949119568,0.9100000262260437
247,6.5695294324541464e-06,1.0,0.5419391393661499,0.9100000262260437
248,8.429080480709672e-06,1.0,0.542286217212677,0.9100000262260437
249,7.81524067861028e-06,1.0,0.5425431728363037,0.9100000262260437
250,1.1811846889031585e-05,1.0,0.542725145816803,0.9100000262260437
251,7.4016011240019e-06,1.0,0.5423632264137268,0.9100000262260437
252,6.606488113902742e-06,1.0,0.5423502922058105,0.9100000262260437
253,5.644500106427586e-06,1.0,0.542499303817749,0.9100000262260437
254,7.0034134296292905e-06,1.0,0.5428304076194763,0.9100000262260437
255,6.794842647650512e-06,1.0,0.543312132358551,0.9100000262260437
256,9.571116606821306e-06,1.0,0.5435233116149902,0.9100000262260437
257,8.9738905444392e-06,1.0,0.5437605381011963,0.9100000262260437
258,1.0792698958539404e-05,1.0,0.54374098777771,0.9100000262260437
259,7.427802302117925e-06,1.0,0.5441169738769531,0.9100000262260437
260,7.31217187421862e-06,1.0,0.5441758632659912,0.9100000262260437
261,9.053721441887319e-06,1.0,0.5440155267715454,0.9100000262260437
262,1.2679367500822991e-05,1.0,0.5439570546150208,0.9100000262260437
263,6.22146762907505e-06,1.0,0.5439819097518921,0.9100000262260437
264,8.125110070977826e-06,1.0,0.5442764759063721,0.9100000262260437
265,8.31821216706885e-06,1.0,0.5444639921188354,0.9100000262260437
266,8.828460522636306e-06,1.0,0.5446130633354187,0.9100000262260437
267,7.398023626592476e-06,1.0,0.5446717739105225,0.9100000262260437
268,7.86886357673211e-06,1.0,0.5448994040489197,0.9100000262260437
269,7.840205398679245e-06,1.0,0.5451046228408813,0.9100000262260437
270,7.047501640045084e-06,1.0,0.5452937483787537,0.9100000262260437
271,8.10845540399896e-06,1.0,0.5456048846244812,0.9100000262260437
272,7.6125579653307796e-06,1.0,0.5457311868667603,0.9100000262260437
273,8.585291652707383e-06,1.0,0.5459628105163574,0.9100000262260437
274,6.910454885655781e-06,1.0,0.5460093021392822,0.9100000262260437
275,6.142776328488253e-06,1.0,0.5461227297782898,0.9100000262260437
276,6.707820375595475e-06,1.0,0.5462985038757324,0.9100000262260437
277,8.589808203396387e-06,1.0,0.5464058518409729,0.9100000262260437
278,5.838803645019652e-06,1.0,0.5465968251228333,0.9100000262260437
279,7.176299277489306e-06,1.0,0.546769380569458,0.9100000262260437
280,8.942901331465691e-06,1.0,0.5468707084655762,0.9100000262260437
281,8.445773346466012e-06,1.0,0.5468883514404297,0.9100000262260437
282,6.117754765000427e-06,1.0,0.5469016432762146,0.9100000262260437
283,7.644786819582805e-06,1.0,0.546901524066925,0.9100000262260437
284,7.719864697719458e-06,1.0,0.5470637679100037,0.9100000262260437
285,6.171381301101064e-06,1.0,0.5473990440368652,0.9100000262260437
286,8.547141078452114e-06,1.0,0.5477023720741272,0.9100000262260437
287,6.165434569993522e-06,1.0,0.5478726029396057,0.9100000262260437
288,1.1478068699943833e-05,1.0,0.5479801893234253,0.9100000262260437
289,6.197598850121722e-06,1.0,0.5481579303741455,0.9100000262260437
290,7.34913282940397e-06,1.0,0.5484599471092224,0.9100000262260437
291,8.115576747513842e-06,1.0,0.5487114191055298,0.9100000262260437
292,7.61138335292344e-06,1.0,0.5489277839660645,0.9100000262260437
293,6.717347787343897e-06,1.0,0.5490396022796631,0.9100000262260437
294,6.27391045782133e-06,1.0,0.5491983890533447,0.9100000262260437
295,6.6827674345404375e-06,1.0,0.5492295622825623,0.9100000262260437
296,8.892828191164881e-06,1.0,0.5491472482681274,0.9100000262260437
297,7.0749524638813455e-06,1.0,0.5494930148124695,0.9100000262260437
298,6.1785422076354735e-06,1.0,0.5496814250946045,0.9100000262260437
299,7.452852059941506e-06,1.0,0.5499741435050964,0.9100000262260437
300,7.809281669324264e-06,1.0,0.5502548813819885,0.9100000262260437
301,9.074026820599101e-06,1.0,0.5505212545394897,0.9100000262260437
302,7.147687028918881e-06,1.0,0.5506748557090759,0.9100000262260437
303,7.51005245547276e-06,1.0,0.5508085489273071,0.9100000262260437
304,7.1882150223245844e-06,1.0,0.5508731007575989,0.9100000262260437
305,5.880524895474082e-06,1.0,0.5510323643684387,0.9100000262260437
306,7.982097486092243e-06,1.0,0.5513866543769836,0.9100000262260437
307,7.861678568588104e-06,1.0,0.5515466928482056,0.9100000262260437
308,6.7912355916632805e-06,1.0,0.5516919493675232,0.9100000262260437
309,8.12152666185284e-06,1.0,0.5518002510070801,0.9100000262260437
310,7.212025138869649e-06,1.0,0.5519160628318787,0.9100000262260437
311,5.950860668235691e-06,1.0,0.5519563555717468,0.9100000262260437
312,6.64940898786881e-06,1.0,0.5521336793899536,0.9100000262260437
313,7.00942018738715e-06,1.0,0.5523404479026794,0.9100000262260437
314,6.790060979255941e-06,1.0,0.5523781776428223,0.9100000262260437
315,6.289375960477628e-06,1.0,0.5522592663764954,0.9100000262260437
316,6.166615094116423e-06,1.0,0.5522398948669434,0.9100000262260437
317,8.62091746967053e-06,1.0,0.5522863268852234,0.9100000262260437
318,1.0063421541417483e-05,1.0,0.5523979067802429,0.9100000262260437
319,7.520775398006663e-06,1.0,0.552501380443573,0.9100000262260437
320,6.359737653838238e-06,1.0,0.552593469619751,0.9100000262260437
321,7.344320238189539e-06,1.0,0.5526336431503296,0.9100000262260437
322,6.347805083350977e-06,1.0,0.5527229905128479,0.9100000262260437
323,7.210858257167274e-06,1.0,0.5529974699020386,0.9100000262260437
324,6.531389772135299e-06,1.0,0.5533007979393005,0.9100000262260437
325,6.880648015794577e-06,1.0,0.5533188581466675,0.9100000262260437
326,6.56593010717188e-06,1.0,0.5531399250030518,0.9100000262260437
327,6.294177183008287e-06,1.0,0.5532060861587524,0.9100000262260437
328,7.433754035446327e-06,1.0,0.5533857941627502,0.9100000262260437
329,7.593476311740233e-06,1.0,0.5535863637924194,0.9100000262260437
330,7.518387064919807e-06,1.0,0.5536941289901733,0.9100000262260437
331,6.2357580645766575e-06,1.0,0.5538643002510071,0.9100000262260437
332,8.46484545036219e-06,1.0,0.5539973974227905,0.9100000262260437
333,6.0474117162812036e-06,1.0,0.5540182590484619,0.9100000262260437
334,4.988855835108552e-06,1.0,0.5541765093803406,0.9100000262260437
335,7.451641067746095e-06,1.0,0.5543155670166016,0.9100000262260437
336,6.848453267593868e-06,1.0,0.5543635487556458,0.9100000262260437
337,7.898594049038365e-06,1.0,0.5543823838233948,0.9100000262260437
338,6.1129867390263826e-06,1.0,0.5544471144676208,0.9100000262260437
339,4.963830178894568e-06,1.0,0.5547057390213013,0.9100000262260437
340,6.093903721193783e-06,1.0,0.5548375248908997,0.9100000262260437
341,7.045157417451264e-06,1.0,0.5548751950263977,0.9100000262260437
342,7.331238066399237e-06,1.0,0.5550376176834106,0.9100000262260437
343,7.5158377512707375e-06,1.0,0.5550267696380615,0.9100000262260437
344,6.1260761867742985e-06,1.0,0.5551884174346924,0.9100000262260437
345,7.500494120904477e-06,1.0,0.5557013154029846,0.9100000262260437
346,8.62098931975197e-06,1.0,0.555915892124176,0.9100000262260437
347,6.054530786059331e-06,1.0,0.556002140045166,0.9100000262260437
348,8.362360858882312e-06,1.0,0.5560237169265747,0.9100000262260437
349,5.708860044251196e-06,1.0,0.556179940700531,0.9100000262260437
350,7.539836133219069e-06,1.0,0.5564963817596436,0.9100000262260437
351,6.570707682840293e-06,1.0,0.556660532951355,0.9100000262260437
352,7.546957931481302e-06,1.0,0.5567224621772766,0.9100000262260437
353,5.372700798034202e-06,1.0,0.5568749904632568,0.9100000262260437
354,5.3667440624849405e-06,1.0,0.5569633841514587,0.9100000262260437
355,5.923422122577904e-06,1.0,0.5570133328437805,0.9100000262260437
356,6.799570201110328e-06,1.0,0.5570594668388367,0.9100000262260437
357,5.9305689319444355e-06,1.0,0.5572195649147034,0.9100000262260437
358,5.620652245852398e-06,1.0,0.5573630928993225,0.9100000262260437
359,6.828180175943999e-06,1.0,0.5575039982795715,0.9100000262260437
360,4.688456101575866e-06,1.0,0.5576216578483582,0.9100000262260437
361,6.011611731082667e-06,1.0,0.5576552748680115,0.9100000262260437
362,5.330983640305931e-06,1.0,0.5579946637153625,0.9100000262260437
363,5.303544639900792e-06,1.0,0.558121383190155,0.9100000262260437
364,7.353897672146559e-06,1.0,0.5583384037017822,0.9100000262260437
365,5.570564553636359e-06,1.0,0.5585517883300781,0.9100000262260437
366,6.449057764257304e-06,1.0,0.5582984685897827,0.9100000262260437
367,5.30118359165499e-06,1.0,0.558219313621521,0.9100000262260437
368,5.406071977631655e-06,1.0,0.5583320260047913,0.9100000262260437
369,6.797195055696648e-06,1.0,0.5585885643959045,0.9100000262260437
370,5.378662535804324e-06,1.0,0.5588808655738831,0.9100000262260437
371,5.7267343436251394e-06,1.0,0.5589600205421448,0.9100000262260437
372,7.662387361051515e-06,1.0,0.5590323209762573,0.9100000262260437
373,5.551492904487532e-06,1.0,0.5590059757232666,0.9100000262260437
374,5.919861905567814e-06,1.0,0.5590825080871582,0.9100000262260437
375,5.70170050195884e-06,1.0,0.5591718554496765,0.9100000262260437
376,5.4501870181411505e-06,1.0,0.559232234954834,0.9100000262260437
377,5.956811946816742e-06,1.0,0.5592953562736511,0.9100000262260437
378,5.0734947762975935e-06,1.0,0.5593737959861755,0.9100000262260437
379,6.47058550384827e-06,1.0,0.559579074382782,0.9100000262260437
380,5.243959094514139e-06,1.0,0.5596943497657776,0.9100000262260437
381,5.379824415285839e-06,1.0,0.5599032044410706,0.9100000262260437
382,6.1463551901397295e-06,1.0,0.5599374175071716,0.9100000262260437
383,5.624217010335997e-06,1.0,0.5600159168243408,0.9100000262260437
384,4.843429906031815e-06,1.0,0.560291051864624,0.9100000262260437
385,5.90196168559487e-06,1.0,0.5605553984642029,0.9100000262260437
386,7.470676791854203e-06,1.0,0.5609335899353027,0.9100000262260437
387,6.5027606979128905e-06,1.0,0.5612741708755493,0.9100000262260437
388,6.030690201441757e-06,1.0,0.5612402558326721,0.9100000262260437
389,5.682629307557363e-06,1.0,0.5614069700241089,0.9100000262260437
390,5.568190772464732e-06,1.0,0.5614883899688721,0.9100000262260437
391,5.407257503975416e-06,1.0,0.5616648197174072,0.9100000262260437
392,4.641968189389445e-06,1.0,0.5618428587913513,0.9100000262260437
393,4.967395398125518e-06,1.0,0.5618994235992432,0.9100000262260437
394,7.086867299221922e-06,1.0,0.5621970295906067,0.9100000262260437
395,4.316520517022582e-06,1.0,0.562136709690094,0.9100000262260437
396,5.721970865124604e-06,1.0,0.562227189540863,0.9100000262260437
397,4.855323822994251e-06,1.0,0.562446117401123,0.9100000262260437
398,6.246473276405595e-06,1.0,0.5625773668289185,0.9100000262260437
399,5.031752607465023e-06,1.0,0.5625684261322021,0.9100000262260437
400,4.4738785618392285e-06,1.0,0.562714695930481,0.9100000262260437
401,7.145247764128726e-06,1.0,0.5626828670501709,0.9100000262260437
402,5.818538284074748e-06,1.0,0.562727689743042,0.9100000262260437
403,4.621698280971032e-06,1.0,0.5627390742301941,0.9100000262260437
404,6.831629889347823e-06,1.0,0.5625964403152466,0.9100000262260437
405,4.806467131857062e-06,1.0,0.5626225471496582,0.9100000262260437
406,5.2475220400083344e-06,1.0,0.5626794695854187,0.9100000262260437
407,5.012696874473477e-06,1.0,0.5628132820129395,0.9100000262260437
408,5.875738679606002e-06,1.0,0.5628305077552795,0.9100000262260437
409,5.53840072825551e-06,1.0,0.5628724694252014,0.9100000262260437
410,5.665943717758637e-06,1.0,0.563007116317749,0.9100000262260437
411,4.59784860140644e-06,1.0,0.5632719397544861,0.9100000262260437
412,5.8506907407718245e-06,1.0,0.5634631514549255,0.9100000262260437
413,3.98871361539932e-06,1.0,0.5636364817619324,0.9100000262260437
414,4.730176442535594e-06,1.0,0.5638229250907898,0.9100000262260437
415,4.129376520722872e-06,1.0,0.5641286373138428,0.9100000262260437
416,5.832792794535635e-06,1.0,0.5645588040351868,0.9100000262260437
417,5.8316336435382254e-06,1.0,0.5650691390037537,0.9100000262260437
418,5.4680708672094624e-06,1.0,0.5653601288795471,0.9100000262260437
419,4.681291102315299e-06,1.0,0.5654802918434143,0.9100000262260437
420,6.567100172105711e-06,1.0,0.5657654404640198,0.9100000262260437
421,6.532527095259866e-06,1.0,0.5657179951667786,0.9100000262260437
422,5.837582193635171e-06,1.0,0.5658149719238281,0.9100000262260437
423,4.638378868548898e-06,1.0,0.5659624338150024,0.9100000262260437
424,7.035606358840596e-06,1.0,0.5659810900688171,0.9100000262260437
425,4.184208137303358e-06,1.0,0.5660704374313354,0.9100000262260437
426,4.1353368942509405e-06,1.0,0.5660755634307861,0.9100000262260437
427,4.752831500809407e-06,1.0,0.5662873983383179,0.9100000262260437
428,4.218785761622712e-06,1.0,0.5663821697235107,0.9100000262260437
429,4.5728256736765616e-06,1.0,0.566592812538147,0.9100000262260437
430,5.786350357084302e-06,1.0,0.566799521446228,0.9100000262260437
431,5.301169949234463e-06,1.0,0.5669012665748596,0.9100000262260437
432,5.20817866345169e-06,1.0,0.5671922564506531,0.9100000262260437
433,4.569242719298927e-06,1.0,0.5674403309822083,0.9100000262260437
434,4.335603534855181e-06,1.0,0.5675588846206665,0.9100000262260437
435,3.96844052374945e-06,1.0,0.5675444602966309,0.9100000262260437
436,6.176123861223459e-06,1.0,0.567861020565033,0.9100000262260437
437,4.498906946537318e-06,1.0,0.5678988099098206,0.9100000262260437
438,4.528701538220048e-06,1.0,0.5680183172225952,0.9100000262260437
439,3.969631052314071e-06,1.0,0.5680729150772095,0.9100000262260437
440,5.476340902532684e-06,1.0,0.5682858824729919,0.9100000262260437
441,3.8802340895927045e-06,1.0,0.5685592293739319,0.9100000262260437
442,4.45002024207497e-06,1.0,0.5686943531036377,0.9100000262260437
443,6.2869421526556835e-06,1.0,0.5688448548316956,0.9100000262260437
444,6.011609912093263e-06,1.0,0.5689733624458313,0.9100000262260437
445,4.9864629545481876e-06,1.0,0.5690973401069641,0.9100000262260437
446,5.781560957984766e-06,1.0,0.5692031383514404,0.9100000262260437
447,4.246191110723885e-06,1.0,0.5693111419677734,0.9100000262260437
448,4.696780706581194e-06,1.0,0.5694825053215027,0.9100000262260437
449,4.891100161330542e-06,1.0,0.5694723725318909,0.9100000262260437
450,6.662446594418725e-06,1.0,0.5699218511581421,0.9100000262260437
451,4.8577285269857384e-06,1.0,0.5705132484436035,0.9100000262260437
452,5.023425728722941e-06,1.0,0.5708972215652466,0.9100000262260437
453,4.253348834026838e-06,1.0,0.5713337659835815,0.9100000262260437
454,3.4725378554867348e-06,1.0,0.5717357993125916,0.9100000262260437
455,6.657713129243348e-06,1.0,0.5719910860061646,0.9100000262260437
456,3.641813009380712e-06,1.0,0.5718436241149902,0.9100000262260437
457,4.659848855226301e-06,1.0,0.5719700455665588,0.9100000262260437
458,4.137693849770585e-06,1.0,0.5720966458320618,0.9100000262260437
459,4.187757895124378e-06,1.0,0.5723190903663635,0.9100000262260437
460,6.5920949054998346e-06,1.0,0.5722720623016357,0.9100000262260437
461,3.969639237766387e-06,1.0,0.5721462965011597,0.9100000262260437
462,4.092418294021627e-06,1.0,0.5719069838523865,0.9100000262260437
463,5.752906872658059e-06,1.0,0.5718795657157898,0.9100000262260437
464,5.327388862497173e-06,1.0,0.5717410445213318,0.9100000262260437
465,5.64567199035082e-06,1.0,0.5716328620910645,0.9100000262260437
466,4.153209829382831e-06,1.0,0.5715934634208679,0.9100000262260437
467,4.4822259042121004e-06,1.0,0.5716969966888428,0.9100000262260437
468,3.6120095501246396e-06,1.0,0.571629524230957,0.9100000262260437
469,3.873076366289752e-06,1.0,0.5716835856437683,0.9100000262260437
470,4.6049967750150245e-06,1.0,0.5716406106948853,0.9100000262260437
471,4.253301995049696e-06,1.0,0.5716254711151123,0.9100000262260437
472,5.546681222767802e-06,1.0,0.5720134377479553,0.9100000262260437
473,4.219963102514157e-06,1.0,0.5722129940986633,0.9100000262260437
474,4.880369033344323e-06,1.0,0.5722566246986389,0.9100000262260437
475,3.519037363730604e-06,1.0,0.572378933429718,0.9100000262260437
476,3.952945917262696e-06,1.0,0.5726401805877686,0.9100000262260437
477,5.818502813781379e-06,1.0,0.572792112827301,0.9100000262260437
478,4.000619355792878e-06,1.0,0.5728165507316589,0.9100000262260437
479,4.2652563934098e-06,1.0,0.5726969242095947,0.9100000262260437
480,3.6740032101079123e-06,1.0,0.5726637840270996,0.9100000262260437
481,3.834930794255342e-06,1.0,0.57270747423172,0.9100000262260437
482,6.103399300627643e-06,1.0,0.5730436444282532,0.9100000262260437
483,4.489369530347176e-06,1.0,0.5734156966209412,0.9100000262260437
484,4.332016487751389e-06,1.0,0.5736748576164246,0.9100000262260437
485,4.353472832008265e-06,1.0,0.57395339012146,0.9100000262260437
486,4.144870672462275e-06,1.0,0.5742636322975159,0.9100000262260437
487,5.749326192017179e-06,1.0,0.5743644833564758,0.9100000262260437
488,5.8769433053385e-06,1.0,0.5747168064117432,0.9100000262260437
489,3.3509529657749226e-06,1.0,0.5749876499176025,0.9100000262260437
490,4.328447175794281e-06,1.0,0.5750890970230103,0.9100000262260437
491,3.726448539964622e-06,1.0,0.5753926038742065,0.9100000262260437
492,3.427245019338443e-06,1.0,0.5756032466888428,0.9100000262260437
493,4.556130079436116e-06,1.0,0.5757757425308228,0.9100000262260437
494,4.279531822248828e-06,1.0,0.5761449337005615,0.9100000262260437
495,6.0746883718820754e-06,1.0,0.576185405254364,0.9100000262260437
496,3.585789727367228e-06,1.0,0.576295018196106,0.9100000262260437
497,3.989896413258975e-06,1.0,0.5764296650886536,0.9100000262260437
498,3.397438831598265e-06,1.0,0.5765974521636963,0.9100000262260437
499,3.869490228680661e-06,1.0,0.5768192410469055,0.9100000262260437
500,3.726454224306508e-06,1.0,0.5769277811050415,0.9100000262260437
501,6.239244612515904e-06,1.0,0.5769856572151184,0.9100000262260437
502,4.018510480818804e-06,1.0,0.5771931409835815,0.9100000262260437
503,3.2233999718300765e-06,1.0,0.5773621201515198,0.9100000262260437
504,4.312934379413491e-06,1.0,0.5774214863777161,0.9100000262260437
505,4.221135441184742e-06,1.0,0.5774295330047607,0.9100000262260437
506,4.198511760478141e-06,1.0,0.5776951313018799,0.9100000262260437
507,3.252000396969379e-06,1.0,0.5780155062675476,0.9100000262260437
508,4.076918230566662e-06,1.0,0.5784624218940735,0.9100000262260437
509,4.343928139860509e-06,1.0,0.5788275003433228,0.9100000262260437
510,3.844470029434888e-06,1.0,0.5790064334869385,0.9100000262260437
511,3.5202078834117856e-06,1.0,0.57929927110672,0.9100000262260437
512,3.308033910798258e-06,1.0,0.5795574188232422,0.9100000262260437
513,3.3688243092910852e-06,1.0,0.5797775387763977,0.9100000262260437
514,2.993328735101386e-06,1.0,0.5799130201339722,0.9100000262260437
515,4.764726782013895e-06,1.0,0.5802505016326904,0.9100000262260437
516,4.129372427996714e-06,1.0,0.5806050300598145,0.9100000262260437
517,3.625121280492749e-06,1.0,0.5809677243232727,0.9100000262260437
518,4.910171355732018e-06,1.0,0.5815109610557556,0.9100000262260437
519,3.902872776961885e-06,1.0,0.5816856622695923,0.9100000262260437
520,3.2758450743131107e-06,1.0,0.5819137692451477,0.9100000262260437
521,3.7014031022408744e-06,1.0,0.5819313526153564,0.9100000262260437
522,4.177045411779545e-06,1.0,0.5820897817611694,0.9100000262260437
523,3.0720057111466303e-06,1.0,0.5823006629943848,0.9100000262260437
524,3.884998022840591e-06,1.0,0.5824741125106812,0.9100000262260437
525,3.0422024792642333e-06,1.0,0.5827175378799438,0.9100000262260437
526,3.0958453862695023e-06,1.0,0.5828011631965637,0.9100000262260437
527,3.268695763836149e-06,1.0,0.5828366875648499,0.9100000262260437
528,3.6739920687978156e-06,1.0,0.5828986167907715,0.9100000262260437
529,4.198499027552316e-06,1.0,0.5829814672470093,0.9100000262260437
530,3.288955667812843e-06,1.0,0.5830817818641663,0.9100000262260437
531,3.964836196246324e-06,1.0,0.58320152759552,0.9100000262260437
532,3.157831770295161e-06,1.0,0.5834932923316956,0.9100000262260437
533,3.3533274290675763e-06,1.0,0.5839045643806458,0.9100000262260437
534,4.037569851789158e-06,1.0,0.5842099189758301,0.9100000262260437
535,3.6763626667379867e-06,1.0,0.5846265554428101,0.9100000262260437
536,3.4224715363961877e-06,1.0,0.5848832726478577,0.9100000262260437
537,5.1580627768998966e-06,1.0,0.5851154923439026,0.9100000262260437
538,3.308033910798258e-06,1.0,0.5855454206466675,0.9100000262260437
539,4.409487701195758e-06,1.0,0.5858544111251831,0.9100000262260437
540,3.6882952372252475e-06,1.0,0.5858340263366699,0.9100000262260437
541,3.973199454776477e-06,1.0,0.5858767032623291,0.9100000262260437
542,3.7908203012193553e-06,1.0,0.5865111351013184,0.9100000262260437
543,3.2114744499267545e-06,1.0,0.5866736769676208,0.9100000262260437
544,3.6620738228521077e-06,1.0,0.5869861841201782,0.9100000262260437
545,5.074639830127126e-06,1.0,0.5867645144462585,0.9100000262260437
546,2.4831176688167034e-06,1.0,0.5862511992454529,0.9100000262260437
547,4.854111011809437e-06,1.0,0.5862611532211304,0.9100000262260437
548,3.1840527299209498e-06,1.0,0.5863978862762451,0.9100000262260437
549,3.820622623607051e-06,1.0,0.5865181684494019,0.9100000262260437
550,3.2162463412532816e-06,1.0,0.5863823890686035,0.9100000262260437
551,3.361672042956343e-06,1.0,0.5862742066383362,0.9100000262260437
552,3.5833870697388193e-06,1.0,0.5866023302078247,0.9100000262260437
553,3.629879756772425e-06,1.0,0.5869821906089783,0.9100000262260437
554,4.805207026947755e-06,1.0,0.5875488519668579,0.9100000262260437
555,2.5164949875033926e-06,1.0,0.587807834148407,0.9100000262260437
556,2.4914625100791454e-06,1.0,0.58798748254776,0.9100000262260437
557,3.731213155333535e-06,1.0,0.5882887244224548,0.9100000262260437
558,3.6370463476487203e-06,1.0,0.5888988375663757,0.9100000262260437
559,3.526178716128925e-06,1.0,0.5893715023994446,0.9100000262260437
560,3.0231271921365988e-06,1.0,0.5897863507270813,0.9100000262260437
561,4.607362370734336e-06,1.0,0.5902232527732849,0.9100000262260437
562,4.4631365199165884e-06,1.0,0.5903165936470032,0.9100000262260437
563,3.3545104543009074e-06,1.0,0.5906801819801331,0.9100000262260437
564,2.982590331157553e-06,1.0,0.5909437537193298,0.9100000262260437
565,2.9766326861135894e-06,1.0,0.5911636352539062,0.9100000262260437
566,2.7179560220247367e-06,1.0,0.5914128422737122,0.9100000262260437
567,2.5784836452658055e-06,1.0,0.5916370153427124,0.9100000262260437
568,3.3580938634258928e-06,1.0,0.5919379591941833,0.9100000262260437
569,3.7347833767853444e-06,1.0,0.5921595096588135,0.9100000262260437
570,3.4927993510791566e-06,1.0,0.592487096786499,0.9100000262260437
571,2.815706920955563e-06,1.0,0.592807412147522,0.9100000262260437
572,2.9146383440092904e-06,1.0,0.5931013822555542,0.9100000262260437
573,2.9265688681334723e-06,1.0,0.5933007001876831,0.9100000262260437
574,4.489324965106789e-06,1.0,0.592922568321228,0.9100000262260437
575,3.2436564652016386e-06,1.0,0.5927789211273193,0.9100000262260437
576,2.4795381250442006e-06,1.0,0.593093752861023,0.9100000262260437
577,4.720612650999101e-06,1.0,0.5933148860931396,0.9100000262260437
578,2.734644795054919e-06,1.0,0.5932558178901672,0.9100000262260437
579,2.599937715785927e-06,1.0,0.5932943224906921,0.9100000262260437
580,3.2114755867951317e-06,1.0,0.5934197902679443,0.9100000262260437
581,2.6368920771346893e-06,1.0,0.5936963558197021,0.9100000262260437
582,2.4688094981684117e-06,1.0,0.5940865278244019,0.9100000262260437
583,3.2627315249555977e-06,1.0,0.5942853093147278,0.9100000262260437
584,3.741936325241113e-06,1.0,0.5945205688476562,0.9100000262260437
585,2.4568901153543266e-06,1.0,0.5949616432189941,0.9100000262260437
586,2.9837879083061125e-06,1.0,0.5952388644218445,0.9100000262260437
587,2.611860054457793e-06,1.0,0.5950912237167358,0.9100000262260437
588,3.701412651935243e-06,1.0,0.5953993201255798,0.9100000262260437
589,3.1554466204397613e-06,1.0,0.5958803296089172,0.9100000262260437
590,2.841922196239466e-06,1.0,0.5961245894432068,0.9100000262260437
591,2.565370323281968e-06,1.0,0.5961524844169617,0.9100000262260437
592,2.772787638605223e-06,1.0,0.5963177680969238,0.9100000262260437
593,3.29849581248709e-06,1.0,0.5964151620864868,0.9100000262260437
594,4.4058683670300525e-06,1.0,0.596489429473877,0.9100000262260437
595,2.5570247998984996e-06,1.0,0.5965494513511658,0.9100000262260437
596,2.4700011636014096e-06,1.0,0.596937894821167,0.9100000262260437
597,2.1469486455316655e-06,1.0,0.5971401929855347,0.9100000262260437
598,2.348410816921387e-06,1.0,0.5972938537597656,0.9100000262260437
599,3.694235829243553e-06,1.0,0.5975011587142944,0.9100000262260437
600,2.7859039164468413e-06,1.0,0.5980673432350159,0.9100000262260437
601,3.323513737996109e-06,1.0,0.5982867479324341,0.9100000262260437
602,2.8371598546073074e-06,1.0,0.5983768701553345,0.9100000262260437
603,3.2817740702739684e-06,1.0,0.5988520979881287,0.9100000262260437
604,2.2578130938200047e-06,1.0,0.5990696549415588,0.9100000262260437
605,2.613051719890791e-06,1.0,0.5992022752761841,0.9100000262260437
606,2.5260299025831046e-06,1.0,0.599170446395874,0.9100000262260437
607,4.805197477253387e-06,1.0,0.5992193818092346,0.9100000262260437
608,3.825387011602288e-06,1.0,0.5994775891304016,0.9100000262260437
609,2.677423253771849e-06,1.0,0.5996277332305908,0.9100000262260437
610,2.3102661543816794e-06,1.0,0.599852442741394,0.9100000262260437
611,2.483110392859089e-06,1.0,0.6000016331672668,0.9100000262260437
612,2.3448310457752086e-06,1.0,0.6000433564186096,0.9100000262260437
613,2.4473524717905093e-06,1.0,0.600212037563324,0.9100000262260437
614,2.0766162833751878e-06,1.0,0.600418746471405,0.9100000262260437
615,2.8931840461154934e-06,1.0,0.6004039645195007,0.9100000262260437
616,2.777560439426452e-06,1.0,0.6004776954650879,0.9100000262260437
617,3.3580927265575156e-06,1.0,0.6002395749092102,0.8999999761581421
618,1.9562164652597858e-06,1.0,0.6005682945251465,0.9100000262260437
619,3.5762329844146734e-06,1.0,0.6003980040550232,0.8999999761581421
620,2.5367564830958145e-06,1.0,0.6001608967781067,0.8999999761581421
621,2.4759640382399084e-06,1.0,0.6001154184341431,0.8999999761581421
622,2.01223724616284e-06,1.0,0.6002405285835266,0.8999999761581421
623,2.115953066095244e-06,1.0,0.6002262234687805,0.8999999761581421
624,2.2983365397521993e-06,1.0,0.6004036068916321,0.8999999761581421
625,3.522601218719501e-06,1.0,0.6006110310554504,0.8999999761581421
626,2.5641620595706627e-06,1.0,0.6006748080253601,0.8999999761581421
627,2.685766048671212e-06,1.0,0.6010613441467285,0.8999999761581421
628,2.071847575280117e-06,1.0,0.6013252139091492,0.8999999761581421
629,2.8860324619017774e-06,1.0,0.601697564125061,0.8999999761581421
630,2.3054933535604505e-06,1.0,0.6023223400115967,0.8999999761581421
631,2.3984769086382585e-06,1.0,0.6025088429450989,0.8999999761581421
632,2.3472143766412046e-06,1.0,0.6026424169540405,0.8999999761581421
633,2.199396931246156e-06,1.0,0.6030840873718262,0.8999999761581421
634,2.186284973504371e-06,1.0,0.603348970413208,0.8999999761581421
635,3.0755704756302293e-06,1.0,0.603691816329956,0.8999999761581421
636,2.4127812139340676e-06,1.0,0.60429847240448,0.9100000262260437
637,3.982681846537162e-06,1.0,0.604647696018219,0.9100000262260437
638,2.2399322006094735e-06,1.0,0.6050592660903931,0.9100000262260437
639,1.7177993640871136e-06,1.0,0.6052048206329346,0.9100000262260437
640,4.137637915846426e-06,1.0,0.6054702401161194,0.9100000262260437
641,2.15648492485343e-06,1.0,0.6059083342552185,0.9100000262260437
642,2.2113169961812673e-06,1.0,0.6059640645980835,0.9100000262260437
643,2.3364905246126e-06,1.0,0.6061539649963379,0.9100000262260437
644,3.0863029678585008e-06,1.0,0.6062739491462708,0.9100000262260437
645,2.738220246101264e-06,1.0,0.6064174771308899,0.9100000262260437
646,2.255426352348877e-06,1.0,0.6065933704376221,0.9100000262260437
647,2.224431455033482e-06,1.0,0.6062765717506409,0.9100000262260437
648,1.6355458001271472e-06,1.0,0.6061305403709412,0.9100000262260437
649,1.6021675719457562e-06,1.0,0.6062962412834167,0.9100000262260437
650,1.747600435919594e-06,1.0,0.6064587831497192,0.9100000262260437
651,2.187478685300448e-06,1.0,0.6069046258926392,0.9100000262260437
652,2.0849608972639544e-06,1.0,0.6073542237281799,0.9100000262260437
653,2.06588561013632e-06,1.0,0.6078283190727234,0.9100000262260437
654,2.5355648176628165e-06,1.0,0.6085199117660522,0.9100000262260437
655,2.0718457562907133e-06,1.0,0.608939528465271,0.9100000262260437
656,3.4141182823077543e-06,1.0,0.6085541248321533,0.8999999761581421
657,1.982441062864382e-06,1.0,0.6084306836128235,0.8999999761581421
658,2.669053401405108e-06,1.0,0.6085804104804993,0.8999999761581421
659,2.813310175042716e-06,1.0,0.6087700724601746,0.8999999761581421
660,2.4235089313151548e-06,1.0,0.6089222431182861,0.8999999761581421
661,1.9287981558591127e-06,1.0,0.6088113188743591,0.8999999761581421
662,3.125637704215478e-06,1.0,0.6091936826705933,0.8999999761581421
663,1.8477360299584689e-06,1.0,0.6095916628837585,0.8999999761581421
664,2.1660155198333086e-06,1.0,0.610231339931488,0.8999999761581421
665,2.369854882999789e-06,1.0,0.6107372045516968,0.8999999761581421
666,2.031314807027229e-06,1.0,0.6112279295921326,0.8999999761581421
667,2.267344598294585e-06,1.0,0.6117574572563171,0.9100000262260437
668,2.7000644422514597e-06,1.0,0.6117125153541565,0.8999999761581421
669,1.5604432519467082e-06,1.0,0.611680805683136,0.8999999761581421
670,1.4305072681963793e-06,1.0,0.6118664741516113,0.8999999761581421
671,1.6927657497944892e-06,1.0,0.6121047139167786,0.8999999761581421
672,2.096882553814794e-06,1.0,0.6123043894767761,0.8999999761581421
673,2.044430402747821e-06,1.0,0.6124585866928101,0.8999999761581421
674,2.02654950953729e-06,1.0,0.6122952103614807,0.8999999761581421
675,4.429686669027433e-06,1.0,0.6125154495239258,0.8999999761581421
676,1.5711727883171989e-06,1.0,0.6123908162117004,0.8999999761581421
677,2.934904387075221e-06,1.0,0.6123414039611816,0.8999999761581421
678,1.8668087022888358e-06,1.0,0.6121721863746643,0.8999999761581421
679,2.143366145901382e-06,1.0,0.612023115158081,0.8999999761581421
680,1.9562146462703822e-06,1.0,0.6123989224433899,0.8999999761581421
681,1.983634319913108e-06,1.0,0.6124762296676636,0.8999999761581421
682,3.5535686038201675e-06,1.0,0.6123281121253967,0.8999999761581421
683,2.0861509710812243e-06,1.0,0.6123514771461487,0.8999999761581421
684,2.0658878838730743e-06,1.0,0.612407922744751,0.8999999761581421
685,1.714223799353931e-06,1.0,0.6126636862754822,0.8999999761581421
686,2.452118451401475e-06,1.0,0.6126972436904907,0.8999999761581421
687,2.1445612219395116e-06,1.0,0.6128478050231934,0.8999999761581421
688,3.5225541523686843e-06,1.0,0.6133685111999512,0.8999999761581421
689,2.0491968371061375e-06,1.0,0.6135461926460266,0.8999999761581421
690,2.989728500324418e-06,1.0,0.6139093041419983,0.8999999761581421
691,2.112374886564794e-06,1.0,0.6140672564506531,0.8999999761581421
692,1.811969127629709e-06,1.0,0.614372193813324,0.8999999761581421
693,1.6236249393841717e-06,1.0,0.6146023869514465,0.8999999761581421
694,1.5950151919241762e-06,1.0,0.6148858666419983,0.8999999761581421
695,2.1207044937909814e-06,1.0,0.6152374744415283,0.8999999761581421
696,2.2482713575300295e-06,1.0,0.6160224676132202,0.8999999761581421
697,1.534217858534248e-06,1.0,0.6163245439529419,0.8999999761581421
698,1.7821693063524435e-06,1.0,0.6165689826011658,0.8999999761581421
699,1.4066655467104283e-06,1.0,0.616558849811554,0.8999999761581421
700,2.047994030363043e-06,1.0,0.6166228652000427,0.8999999761581421
701,1.6903794630707125e-06,1.0,0.6162882447242737,0.8999999761581421
702,1.4078576668907772e-06,1.0,0.6163559556007385,0.8999999761581421
703,1.8262788898937288e-06,1.0,0.6170663237571716,0.8999999761581421
704,1.6200480104089365e-06,1.0,0.6174193024635315,0.8999999761581421
705,1.7738266251399182e-06,1.0,0.6177127361297607,0.8999999761581421
706,1.6033529846026795e-06,1.0,0.6185591816902161,0.8999999761581421
707,1.8083890154230176e-06,1.0,0.6190476417541504,0.8999999761581421
708,1.4376587387232576e-06,1.0,0.6195789575576782,0.8999999761581421
709,1.969327513506869e-06,1.0,0.6201328039169312,0.8999999761581421
710,1.8358150555286556e-06,1.0,0.6201980710029602,0.8999999761581421
711,1.6593867258052342e-06,1.0,0.6202075481414795,0.8999999761581421
712,1.4567326616088394e-06,1.0,0.6204103827476501,0.8999999761581421
713,2.1791183826280758e-06,1.0,0.6202442646026611,0.8999999761581421
714,1.1885133517353097e-06,1.0,0.6203625798225403,0.8999999761581421
715,1.8787217186400085e-06,1.0,0.6205331683158875,0.8999999761581421
716,1.1849371048811008e-06,1.0,0.6210167407989502,0.8999999761581421
717,2.061107579720556e-06,1.0,0.6208643913269043,0.8999999761581421
718,1.1706318900905899e-06,1.0,0.6209515333175659,0.8999999761581421
719,1.6164715361810522e-06,1.0,0.6214882135391235,0.8999999761581421
720,1.2946089782417403e-06,1.0,0.6216655969619751,0.8999999761581421
721,2.1183304852456786e-06,1.0,0.6218801140785217,0.8999999761581421
722,1.388783857692033e-06,1.0,0.62233966588974,0.8999999761581421
723,2.9336933948798105e-06,1.0,0.6239982843399048,0.8999999761581421
724,1.2862649327871623e-06,1.0,0.6248418688774109,0.8999999761581421
725,1.07288167328079e-06,1.0,0.6252225637435913,0.8999999761581421
726,1.6271994809358148e-06,1.0,0.6254447102546692,0.8999999761581421
727,2.0313143522798782e-06,1.0,0.6259675025939941,0.8999999761581421
728,1.505606292084849e-06,1.0,0.6260539889335632,0.8999999761581421
729,1.6093138128780993e-06,1.0,0.6257877945899963,0.8999999761581421
730,1.5962045836204197e-06,1.0,0.6253808736801147,0.8999999761581421
731,1.6474650692543946e-06,1.0,0.625457227230072,0.8999999761581421
732,1.4495791447188822e-06,1.0,0.625615119934082,0.8999999761581421
733,1.4162023944663815e-06,1.0,0.626003086566925,0.8999999761581421
734,1.4495786899715313e-06,1.0,0.6263142228126526,0.8999999761581421
735,1.8048199308395851e-06,1.0,0.6269915103912354,0.8999999761581421
736,1.3983207054479863e-06,1.0,0.627539873123169,0.8999999761581421
737,1.205202124765492e-06,1.0,0.6279780864715576,0.8999999761581421
738,1.991974613702041e-06,1.0,0.6281474828720093,0.8999999761581421
739,1.6832284472911851e-06,1.0,0.6283909678459167,0.8999999761581421
740,1.200434326165123e-06,1.0,0.6287118792533875,0.8999999761581421
741,1.2326206615398405e-06,1.0,0.6290777325630188,0.8999999761581421
742,1.2338110764176236e-06,1.0,0.6293139457702637,0.8999999761581421
743,1.8083867416862631e-06,1.0,0.6300253868103027,0.8999999761581421
744,1.7392455902154325e-06,1.0,0.6306040287017822,0.8999999761581421
745,1.2493080703279702e-06,1.0,0.6309787034988403,0.8999999761581421
746,1.2803041045117425e-06,1.0,0.631641149520874,0.8999999761581421
747,1.2981856798433e-06,1.0,0.6318867206573486,0.8999999761581421
748,1.5234890042847837e-06,1.0,0.6321998834609985,0.8999999761581421
749,1.0061241937364684e-06,1.0,0.6323369741439819,0.8999999761581421
750,1.652215246394917e-06,1.0,0.6321021318435669,0.8999999761581421
751,1.1706321174642653e-06,1.0,0.632036030292511,0.8999999761581421
752,1.043079237206257e-06,1.0,0.6321308612823486,0.8999999761581421
753,1.48295703183976e-06,1.0,0.6324275135993958,0.8999999761581421
754,1.393548473060946e-06,1.0,0.6324011087417603,0.8999999761581421
755,1.4901107761033927e-06,1.0,0.6326119303703308,0.8999999761581421
756,1.4519627029585536e-06,1.0,0.6328784823417664,0.8999999761581421
757,1.3554034694607253e-06,1.0,0.6334395408630371,0.8999999761581421
758,1.099106725632737e-06,1.0,0.633775532245636,0.8999999761581421
759,1.3267926988191903e-06,1.0,0.6343153119087219,0.8999999761581421
760,1.672492999205133e-06,1.0,0.6348944902420044,0.8999999761581421
761,1.4400407053472009e-06,1.0,0.6351323127746582,0.8999999761581421
762,1.2218888514325954e-06,1.0,0.6358383297920227,0.8999999761581421
763,1.2147387451477698e-06,1.0,0.6364084482192993,0.8999999761581421
764,9.59632984631753e-07,1.0,0.6369013786315918,0.8999999761581421
765,1.246925648956676e-06,1.0,0.637592077255249,0.8999999761581421
766,1.2683823342740652e-06,1.0,0.6381013989448547,0.8999999761581421
767,1.0609599030431127e-06,1.0,0.6388214230537415,0.8999999761581421
768,1.0168528206122573e-06,1.0,0.6391037106513977,0.8999999761581421
769,1.0395028766652104e-06,1.0,0.639546275138855,0.8999999761581421
770,1.8095769291903707e-06,1.0,0.6410300731658936,0.8999999761581421
771,9.191014669340802e-07,1.0,0.6419497728347778,0.8999999761581421
772,1.9848171177727636e-06,1.0,0.6422404646873474,0.8999999761581421
773,1.1467888043625862e-06,1.0,0.6423116326332092,0.8999999761581421
774,1.5914373534542392e-06,1.0,0.6427233815193176,0.8999999761581421
775,1.0609603577904636e-06,1.0,0.643215537071228,0.8999999761581421
776,8.368476187570195e-07,1.0,0.6435649394989014,0.8999999761581421
777,9.071804356608482e-07,1.0,0.6438441276550293,0.8999999761581421
778,1.3303705372891272e-06,1.0,0.6442153453826904,0.8999999761581421
779,9.548627986077918e-07,1.0,0.6445862054824829,0.8999999761581421
780,9.58439727583027e-07,1.0,0.644899845123291,0.8999999761581421
781,9.131414344665245e-07,1.0,0.645629346370697,0.8999999761581421
782,1.095529682970664e-06,1.0,0.6459388732910156,0.8999999761581421
783,1.0490385875527863e-06,1.0,0.6464557647705078,0.8999999761581421
784,1.4102395198278828e-06,1.0,0.647097110748291,0.8999999761581421
785,1.218314082507277e-06,1.0,0.6476287841796875,0.8999999761581421
786,1.7320951428700937e-06,1.0,0.6483047008514404,0.8999999761581421
787,1.3911620726503315e-06,1.0,0.6484713554382324,0.8999999761581421
788,1.484149493080622e-06,1.0,0.6487709879875183,0.8999999761581421
789,1.0907599516940536e-06,1.0,0.6488323211669922,0.8999999761581421
790,1.0323501555831172e-06,1.0,0.6490121483802795,0.8999999761581421
791,1.0514219184187823e-06,1.0,0.6491720080375671,0.8999999761581421
792,9.75129410107911e-07,1.0,0.6493024230003357,0.8999999761581421
793,1.1134113719890593e-06,1.0,0.6493029594421387,0.8999999761581421
794,1.4364654816745315e-06,1.0,0.6495652198791504,0.8999999761581421
795,1.3017607898291317e-06,1.0,0.6501234173774719,0.8999999761581421
796,7.259836252160312e-07,1.0,0.650620698928833,0.8999999761581421
797,1.61170089540974e-06,1.0,0.6508314609527588,0.8999999761581421
798,9.047968205777579e-07,1.0,0.6505584716796875,0.8999999761581421
799,8.201587320399994e-07,1.0,0.6508352160453796,0.8999999761581421
