,loss,recall,val_loss,val_recall
0,0.7704266309738159,0.6679999828338623,1.5620146989822388,0.00022222222469281405
1,0.24482300877571106,0.9340000152587891,1.449108600616455,0.34200000762939453
2,0.19494079053401947,0.9300000071525574,0.6556516289710999,0.7382222414016724
3,0.16115885972976685,0.9440000057220459,0.6478689908981323,0.6597777605056763
4,0.1461065262556076,0.949999988079071,0.6227297782897949,0.7497777938842773
5,0.13860483467578888,0.9539999961853027,0.564160168170929,0.8188889026641846
6,0.12655381858348846,0.9620000123977661,0.5092035531997681,0.8844444155693054
7,0.12171302735805511,0.9580000042915344,0.47886502742767334,0.8437777757644653
8,0.10304856300354004,0.9660000205039978,0.5520521998405457,0.8448888659477234
9,0.09426745027303696,0.972000002861023,0.5783529877662659,0.7935555577278137
10,0.09837363660335541,0.972000002861023,0.5889049172401428,0.7488889098167419
11,0.09388549625873566,0.9739999771118164,0.5186251401901245,0.8444444537162781
12,0.10847881436347961,0.9520000219345093,0.5331692695617676,0.8368889093399048
13,0.11042968183755875,0.9660000205039978,0.3191031217575073,0.9215555787086487
14,0.102543905377388,0.9620000123977661,0.516620397567749,0.8384444713592529
15,0.09275471419095993,0.972000002861023,0.34493112564086914,0.9179999828338623
16,0.08492355048656464,0.9760000109672546,0.26624348759651184,0.9259999990463257
17,0.06935261934995651,0.9800000190734863,0.2559269070625305,0.9206666946411133
18,0.05951797217130661,0.9800000190734863,0.2838408350944519,0.9222221970558167
19,0.05682026594877243,0.9819999933242798,0.2614661455154419,0.9246666431427002
20,0.056227412074804306,0.9779999852180481,0.2735708951950073,0.9224444627761841
21,0.06720121204853058,0.9779999852180481,0.2587985396385193,0.9248889088630676
22,0.06270210444927216,0.9760000109672546,0.2560511529445648,0.9273333549499512
23,0.059179164469242096,0.9819999933242798,0.2541220784187317,0.9286666512489319
24,0.06814878433942795,0.9819999933242798,0.239999920129776,0.929111123085022
25,0.05768834054470062,0.984000027179718,0.27772843837738037,0.9075555801391602
26,0.05157068371772766,0.984000027179718,0.2672281861305237,0.8964444398880005
27,0.042218856513500214,0.9879999756813049,0.2892465591430664,0.8911111354827881
28,0.05124511569738388,0.984000027179718,0.3030183017253876,0.882888913154602
29,0.05851136893033981,0.9860000014305115,0.2634727954864502,0.9377777576446533
30,0.07410949468612671,0.9679999947547913,0.23071885108947754,0.9304444193840027
31,0.07396791130304337,0.972000002861023,0.2805509865283966,0.9113333225250244
32,0.0521245039999485,0.9779999852180481,0.23560665547847748,0.9351111054420471
33,0.0557323694229126,0.9819999933242798,0.25754645466804504,0.9177777767181396
34,0.052806317806243896,0.984000027179718,0.25167757272720337,0.9368888735771179
35,0.044637974351644516,0.9819999933242798,0.31755369901657104,0.8726666569709778
36,0.04732672497630119,0.984000027179718,0.23082391917705536,0.9324444532394409
37,0.039936985820531845,0.9900000095367432,0.25359272956848145,0.9171110987663269
38,0.03891991451382637,0.984000027179718,0.22995173931121826,0.940666675567627
39,0.04148470610380173,0.9900000095367432,0.2218180000782013,0.9402222037315369
40,0.025728672742843628,0.9900000095367432,0.24193879961967468,0.9248889088630676
41,0.019154079258441925,0.9919999837875366,0.24767741560935974,0.9351111054420471
42,0.021122422069311142,0.9900000095367432,0.45952653884887695,0.7908889055252075
43,0.029648393392562866,0.9900000095367432,0.24328678846359253,0.9357777833938599
44,0.026511767879128456,0.9919999837875366,0.2535680830478668,0.9351111054420471
45,0.026785073801875114,0.9900000095367432,0.4751046597957611,0.8006666898727417
46,0.0226577315479517,0.9940000176429749,0.29893937706947327,0.940666675567627
47,0.017399165779352188,0.9940000176429749,0.27469098567962646,0.9315555691719055
48,0.03699161857366562,0.9919999837875366,0.33540546894073486,0.8946666717529297
49,0.06870566308498383,0.972000002861023,0.3123587369918823,0.9424444437026978
50,0.05830663442611694,0.9760000109672546,0.339424729347229,0.9088888764381409
51,0.071553535759449,0.9760000109672546,0.4866301119327545,0.8937777876853943
52,0.040725335478782654,0.9919999837875366,0.4177805483341217,0.9211111068725586
53,0.02743215300142765,0.9919999837875366,0.3732439875602722,0.9015555381774902
54,0.03785768523812294,0.9860000014305115,0.6133726239204407,0.789555549621582
55,0.024765582755208015,0.9900000095367432,0.4369626045227051,0.8817777633666992
56,0.020659545436501503,0.9940000176429749,0.3913949131965637,0.9306666851043701
57,0.01575055532157421,0.9919999837875366,0.6407312154769897,0.7964444160461426
58,0.014083176851272583,0.9940000176429749,0.32545503973960876,0.9366666674613953
59,0.007741239853203297,1.0,0.3978988528251648,0.8966666460037231
60,0.020064175128936768,0.9900000095367432,0.3328860104084015,0.9235555529594421
61,0.01979917474091053,0.9959999918937683,0.5009701251983643,0.9271110892295837
62,0.02954530157148838,0.9919999837875366,0.3841097950935364,0.9388889074325562
63,0.011072447523474693,0.9980000257492065,0.38606974482536316,0.9384444355964661
64,0.011312251910567284,0.9959999918937683,0.3918212056159973,0.906000018119812
65,0.011401178315281868,0.9980000257492065,0.43339285254478455,0.9368888735771179
66,0.03176868334412575,0.9879999756813049,0.41759318113327026,0.9444444179534912
67,0.05681469663977623,0.984000027179718,0.951324462890625,0.9284444451332092
68,0.04212008789181709,0.984000027179718,0.39644649624824524,0.9331111311912537
69,0.04562423378229141,0.9819999933242798,0.44159144163131714,0.9153333306312561
70,0.030961738899350166,0.9879999756813049,0.3731684386730194,0.9286666512489319
71,0.03390617296099663,0.984000027179718,0.4571346640586853,0.937333345413208
72,0.016306456178426743,0.9959999918937683,0.37414300441741943,0.9428889155387878
73,0.007720355875790119,1.0,0.33648914098739624,0.9377777576446533
74,0.011485857889056206,0.9980000257492065,0.3648461103439331,0.9068889021873474
75,0.01091759093105793,0.9959999918937683,0.3848787248134613,0.9031111001968384
76,0.008180459961295128,0.9959999918937683,0.33922767639160156,0.9266666769981384
77,0.003034475026652217,1.0,0.426148921251297,0.8991110920906067
78,0.0028993322048336267,1.0,0.4049678146839142,0.9100000262260437
79,0.0013911094283685088,1.0,0.38229507207870483,0.9171110987663269
80,0.0014337124302983284,1.0,0.3891357481479645,0.9108889102935791
81,0.001653133425861597,1.0,0.3944909870624542,0.9062222242355347
82,0.0020911134779453278,1.0,0.3502543568611145,0.9293333292007446
83,0.0011781533248722553,1.0,0.4128744900226593,0.9044444561004639
84,0.0014918555971235037,1.0,0.3987487852573395,0.9066666960716248
85,0.0013192759361118078,1.0,0.3523232638835907,0.9259999990463257
86,0.0017167843179777265,1.0,0.3519158959388733,0.9277777671813965
87,0.0008098538964986801,1.0,0.355896532535553,0.9264444708824158
88,0.0005831161397509277,1.0,0.35108518600463867,0.9311110973358154
89,0.0005412591272033751,1.0,0.35138043761253357,0.9322222471237183
90,0.0008182425517588854,1.0,0.354585736989975,0.9348888993263245
91,0.0004004869260825217,1.0,0.357591837644577,0.9364444613456726
92,0.004617863334715366,0.9959999918937683,0.45028629899024963,0.88355553150177
93,0.025848763063549995,0.9900000095367432,0.7533931732177734,0.8091111183166504
94,0.010098004713654518,0.9959999918937683,0.38492196798324585,0.93022221326828
95,0.033769115805625916,0.9900000095367432,0.4242246150970459,0.9348888993263245
96,0.03462313860654831,0.984000027179718,0.48690328001976013,0.9051111340522766
97,0.05171893909573555,0.984000027179718,0.8063410520553589,0.7875555753707886
98,0.034842222929000854,0.9900000095367432,2.7236745357513428,0.3817777633666992
99,0.0342852920293808,0.9860000014305115,0.6174969673156738,0.9319999814033508
100,0.01399522926658392,0.9959999918937683,0.35000425577163696,0.9428889155387878
101,0.008268596604466438,0.9980000257492065,0.31661760807037354,0.9351111054420471
102,0.011339686810970306,0.9940000176429749,0.3752196431159973,0.9395555257797241
103,0.009066196158528328,0.9980000257492065,0.3634192943572998,0.9351111054420471
104,0.019542625173926353,0.9919999837875366,0.4863393008708954,0.8882222175598145
105,0.014553911052644253,0.9980000257492065,0.42052993178367615,0.9311110973358154
106,0.008761637844145298,0.9980000257492065,0.47551870346069336,0.8942221999168396
107,0.004372915253043175,1.0,0.3923214077949524,0.9233333468437195
108,0.003185225185006857,1.0,0.3843131959438324,0.9155555367469788
109,0.0012762376572936773,1.0,0.3692459166049957,0.9264444708824158
110,0.001089943340048194,1.0,0.3602727949619293,0.9288889169692993
111,0.0009289982262998819,1.0,0.3560297191143036,0.9271110892295837
112,0.0006288564763963223,1.0,0.35173043608665466,0.9306666851043701
113,0.0004796972789335996,1.0,0.35319989919662476,0.9315555691719055
114,0.0007041244534775615,1.0,0.35526174306869507,0.9331111311912537
115,0.0005354756722226739,1.0,0.3597145080566406,0.9328888654708862
116,0.0003211362345609814,1.0,0.36291787028312683,0.9337777495384216
117,0.00031415128614753485,1.0,0.36514344811439514,0.9342222213745117
118,0.0004621600965037942,1.0,0.36502185463905334,0.9333333373069763
119,0.00046547234524041414,1.0,0.3660641014575958,0.9340000152587891
120,0.0006162388599477708,1.0,0.3671231269836426,0.933555543422699
121,0.0004800379101652652,1.0,0.3702666759490967,0.9351111054420471
122,0.0002927490568254143,1.0,0.3715934455394745,0.9380000233650208
123,0.00035937881330028176,1.0,0.37261906266212463,0.9388889074325562
124,0.0003505726344883442,1.0,0.36851468682289124,0.9388889074325562
125,0.00036953584640286863,1.0,0.368831992149353,0.9388889074325562
126,0.00025594542967155576,1.0,0.37095925211906433,0.9397777915000916
127,0.0002447930455673486,1.0,0.37280675768852234,0.9397777915000916
128,0.00020862759265583009,1.0,0.3739788234233856,0.9399999976158142
129,0.0002552243531681597,1.0,0.37520018219947815,0.9399999976158142
130,0.00021525708143599331,1.0,0.37673965096473694,0.9395555257797241
131,0.00030194956343621016,1.0,0.37689873576164246,0.9380000233650208
132,0.00021611836564261466,1.0,0.37824052572250366,0.937333345413208
133,0.00022420594177674502,1.0,0.38023534417152405,0.9371111392974854
134,0.00022805847402196378,1.0,0.3820073902606964,0.9382222294807434
135,0.00042200571624562144,1.0,0.3808714747428894,0.9366666674613953
136,0.00020387601398397237,1.0,0.37946727871894836,0.9359999895095825
137,0.00020020664669573307,1.0,0.3807082772254944,0.9359999895095825
138,0.00014350215496961027,1.0,0.38218265771865845,0.9371111392974854
139,0.00020140605920460075,1.0,0.3834048807621002,0.9384444355964661
140,0.00021204620134085417,1.0,0.3862680196762085,0.9391111135482788
141,0.00039443254354409873,1.0,0.38605570793151855,0.9371111392974854
142,0.00027810342726297677,1.0,0.3865078389644623,0.9357777833938599
143,0.00020630081417039037,1.0,0.3860275447368622,0.9364444613456726
144,0.0002640099264681339,1.0,0.38724493980407715,0.9366666674613953
145,0.00015702308155596256,1.0,0.38955289125442505,0.9364444613456726
146,0.0002889829920604825,1.0,0.3921383321285248,0.9371111392974854
147,0.00029012616141699255,1.0,0.39426079392433167,0.9377777576446533
148,0.00033537985291332006,1.0,0.3926413059234619,0.9377777576446533
149,0.00021270281285978854,1.0,0.3923860788345337,0.9380000233650208
150,0.00010190455213887617,1.0,0.3925507664680481,0.9377777576446533
151,0.00014946970622986555,1.0,0.39331722259521484,0.9375555515289307
152,0.00015285149856936187,1.0,0.395053893327713,0.9380000233650208
153,0.00011793564044637606,1.0,0.3975444436073303,0.9382222294807434
154,0.00017647647473495454,1.0,0.40044012665748596,0.9388889074325562
155,0.00013942520308773965,1.0,0.4024316370487213,0.9388889074325562
156,0.00011965882731601596,1.0,0.4032599925994873,0.9388889074325562
157,0.00018873449880629778,1.0,0.4041338264942169,0.9395555257797241
158,0.0001396742300130427,1.0,0.40365928411483765,0.9375555515289307
159,0.0002311880380148068,1.0,0.40272945165634155,0.9371111392974854
160,0.0001620510738575831,1.0,0.4001528322696686,0.9362221956253052
161,0.00018123594054486603,1.0,0.39813217520713806,0.9357777833938599
162,0.0001835346920415759,1.0,0.3974211812019348,0.9380000233650208
163,0.00011993169755442068,1.0,0.39873600006103516,0.9397777915000916
164,0.0002235204156022519,1.0,0.40152671933174133,0.9402222037315369
165,0.000135275608045049,1.0,0.40370407700538635,0.9395555257797241
166,0.0001286688493564725,1.0,0.405530720949173,0.9391111135482788
167,9.642876102589071e-05,1.0,0.4076876938343048,0.9391111135482788
168,0.00023413261806126684,1.0,0.40780970454216003,0.9380000233650208
169,0.00015850274940021336,1.0,0.4089067578315735,0.9375555515289307
170,0.0001522735838079825,1.0,0.41168636083602905,0.9391111135482788
171,9.427670738659799e-05,1.0,0.41403236985206604,0.9404444694519043
172,0.0001438768522348255,1.0,0.41442540287971497,0.9399999976158142
173,0.00020632606174331158,1.0,0.4119682013988495,0.9362221956253052
174,0.00019841844914481044,1.0,0.40874379873275757,0.9344444274902344
175,0.00016594596672803164,1.0,0.407061904668808,0.9342222213745117
176,0.0001466761896153912,1.0,0.40736424922943115,0.933555543422699
177,0.000148227161844261,1.0,0.4088297486305237,0.9340000152587891
178,0.0001212063361890614,1.0,0.4095870554447174,0.9342222213745117
179,9.47021326282993e-05,1.0,0.4110199511051178,0.9362221956253052
180,0.00010867823584703729,1.0,0.41183048486709595,0.9362221956253052
181,0.00012304358824621886,1.0,0.4124280512332916,0.9366666674613953
182,0.00013444448995869607,1.0,0.4133901596069336,0.9368888735771179
183,0.0001271234214073047,1.0,0.41486895084381104,0.9371111392974854
184,6.880541332066059e-05,1.0,0.4149463176727295,0.9388889074325562
185,7.007004751358181e-05,1.0,0.41557958722114563,0.9393333196640015
186,0.0001870610867626965,1.0,0.41923263669013977,0.9402222037315369
187,0.00011119305418105796,1.0,0.4221591651439667,0.9402222037315369
188,0.00010052266588900238,1.0,0.4224795401096344,0.9399999976158142
189,9.523690823698416e-05,1.0,0.42310115694999695,0.9399999976158142
190,0.000145517144119367,1.0,0.4218882918357849,0.9380000233650208
191,7.596483192173764e-05,1.0,0.421363890171051,0.9371111392974854
192,9.498702274868265e-05,1.0,0.4210672974586487,0.937333345413208
193,0.00013378722360357642,1.0,0.4213698208332062,0.9375555515289307
194,0.0001284508325625211,1.0,0.421146035194397,0.9380000233650208
195,0.00010254108929075301,1.0,0.42162466049194336,0.9391111135482788
196,8.833762694848701e-05,1.0,0.42224636673927307,0.9395555257797241
197,9.882510494207963e-05,1.0,0.422803670167923,0.9393333196640015
198,0.00016906038217712194,1.0,0.4227156341075897,0.9388889074325562
199,5.375020919018425e-05,1.0,0.42155271768569946,0.9371111392974854
200,9.164138464257121e-05,1.0,0.4216061234474182,0.9371111392974854
201,0.00028960697818547487,1.0,0.42109373211860657,0.9371111392974854
202,8.866301504895091e-05,1.0,0.4205368459224701,0.9386666417121887
203,7.8216937254183e-05,1.0,0.4208354949951172,0.9382222294807434
204,0.0001055275570251979,1.0,0.421265184879303,0.9380000233650208
205,0.00011019842349924147,1.0,0.42214155197143555,0.9386666417121887
206,9.020115248858929e-05,1.0,0.4232710897922516,0.9391111135482788
207,9.30120368138887e-05,1.0,0.4245911240577698,0.9395555257797241
208,0.00012378189421724528,1.0,0.4247744083404541,0.9388889074325562
209,0.00010252434731228277,1.0,0.4247473478317261,0.9380000233650208
210,9.757126099430025e-05,1.0,0.42530882358551025,0.9380000233650208
211,9.849924390437081e-05,1.0,0.42615625262260437,0.9391111135482788
212,6.7353350459598e-05,1.0,0.4265633225440979,0.9393333196640015
213,7.4440409662202e-05,1.0,0.42683863639831543,0.9397777915000916
214,8.798886847216636e-05,1.0,0.42743980884552,0.9399999976158142
215,6.44335596007295e-05,1.0,0.42772018909454346,0.9399999976158142
216,0.00010642900451784953,1.0,0.42744284868240356,0.9393333196640015
217,8.082432759692892e-05,1.0,0.4275134801864624,0.9386666417121887
218,6.446334737120196e-05,1.0,0.4277641475200653,0.9382222294807434
219,6.761965778423473e-05,1.0,0.42891645431518555,0.9388889074325562
220,8.113745570881292e-05,1.0,0.4294615089893341,0.9388889074325562
221,0.00011400624498492107,1.0,0.4287000000476837,0.9377777576446533
222,5.897377195651643e-05,1.0,0.42910537123680115,0.937333345413208
223,9.003653394756839e-05,1.0,0.4297526180744171,0.937333345413208
224,8.138853445416316e-05,1.0,0.429791122674942,0.937333345413208
225,7.107484998414293e-05,1.0,0.42938223481178284,0.9377777576446533
226,6.551106343977153e-05,1.0,0.4297533929347992,0.9380000233650208
227,8.319137850776315e-05,1.0,0.42986056208610535,0.9382222294807434
228,7.957621710374951e-05,1.0,0.4303143322467804,0.9382222294807434
229,7.67776436987333e-05,1.0,0.4310155510902405,0.9384444355964661
230,7.487688708351925e-05,1.0,0.4316388964653015,0.9397777915000916
231,6.369959010044113e-05,1.0,0.43174439668655396,0.9399999976158142
232,0.00010203503188677132,1.0,0.43130266666412354,0.9397777915000916
233,0.00011949587496928871,1.0,0.4303106963634491,0.9393333196640015
234,5.76245402044151e-05,1.0,0.4295467734336853,0.9388889074325562
235,8.5802937974222e-05,1.0,0.4293346405029297,0.9386666417121887
236,6.930529343662784e-05,1.0,0.42971155047416687,0.9391111135482788
237,5.541649807128124e-05,1.0,0.4305027425289154,0.9388889074325562
238,0.00010143028339371085,1.0,0.4309530258178711,0.9388889074325562
239,7.423554052365944e-05,1.0,0.4306859076023102,0.9388889074325562
240,0.00014578895934391767,1.0,0.4298696517944336,0.937333345413208
241,6.239539652597159e-05,1.0,0.4296445846557617,0.9366666674613953
242,7.08883089828305e-05,1.0,0.42987486720085144,0.9366666674613953
243,6.547336670337245e-05,1.0,0.4302438199520111,0.9371111392974854
244,0.00021391383779700845,1.0,0.43053776025772095,0.9366666674613953
245,5.919540853938088e-05,1.0,0.43060165643692017,0.9368888735771179
246,7.254143565660343e-05,1.0,0.4309150278568268,0.937333345413208
247,9.212696022586897e-05,1.0,0.43140462040901184,0.9377777576446533
248,7.690952043049037e-05,1.0,0.43226730823516846,0.9382222294807434
249,4.78858346468769e-05,1.0,0.4327814280986786,0.9382222294807434
250,6.015454346197657e-05,1.0,0.4332858622074127,0.9382222294807434
251,7.512117008445784e-05,1.0,0.4336317181587219,0.9384444355964661
252,0.00013109995052218437,1.0,0.43379828333854675,0.9384444355964661
253,6.103420309955254e-05,1.0,0.4338870942592621,0.9386666417121887
254,6.294139893725514e-05,1.0,0.43382543325424194,0.9386666417121887
255,6.58217104501091e-05,1.0,0.4334515929222107,0.9388889074325562
256,0.00011467184958746657,1.0,0.433389812707901,0.9386666417121887
257,7.104619726305827e-05,1.0,0.43404629826545715,0.9386666417121887
258,5.0418017053743824e-05,1.0,0.43436792492866516,0.9388889074325562
259,6.084113920223899e-05,1.0,0.4343976378440857,0.9388889074325562
260,5.282348138280213e-05,1.0,0.43435773253440857,0.9388889074325562
261,9.166239033220336e-05,1.0,0.4345090687274933,0.9388889074325562
262,6.23265586909838e-05,1.0,0.43411731719970703,0.9388889074325562
263,6.702199607389048e-05,1.0,0.4341752529144287,0.9391111135482788
264,4.29368628829252e-05,1.0,0.4342295527458191,0.9388889074325562
265,5.323377263266593e-05,1.0,0.43444764614105225,0.9386666417121887
266,8.216450805775821e-05,1.0,0.43499788641929626,0.9386666417121887
267,6.067682625143789e-05,1.0,0.43534204363822937,0.9386666417121887
268,8.168016211129725e-05,1.0,0.4353049099445343,0.9386666417121887
269,9.499207226326689e-05,1.0,0.4353291690349579,0.9382222294807434
270,7.604577695019543e-05,1.0,0.4351484775543213,0.9384444355964661
271,5.811471419292502e-05,1.0,0.435515433549881,0.9386666417121887
272,7.611984619870782e-05,1.0,0.4359146058559418,0.9388889074325562
273,0.0001372200349578634,1.0,0.4354031980037689,0.9382222294807434
274,5.7022236433112994e-05,1.0,0.43583279848098755,0.9384444355964661
275,7.977240602485836e-05,1.0,0.43625181913375854,0.9391111135482788
276,4.7519504732917994e-05,1.0,0.43671348690986633,0.9388889074325562
277,4.3228275899309665e-05,1.0,0.4369097948074341,0.9388889074325562
278,5.802748637506738e-05,1.0,0.4371647834777832,0.9388889074325562
279,8.826870907796547e-05,1.0,0.4369875490665436,0.9386666417121887
280,5.443417830974795e-05,1.0,0.43716880679130554,0.9386666417121887
281,4.796620487468317e-05,1.0,0.4373537600040436,0.9391111135482788
282,4.66822057205718e-05,1.0,0.4377625286579132,0.9393333196640015
283,4.7263856686186045e-05,1.0,0.4377062916755676,0.9393333196640015
284,8.398907812079415e-05,1.0,0.43730372190475464,0.9391111135482788
285,6.085998393245973e-05,1.0,0.4366367757320404,0.9380000233650208
286,6.634127930738032e-05,1.0,0.4368203282356262,0.9377777576446533
287,9.019237768370658e-05,1.0,0.43707653880119324,0.9377777576446533
288,6.980907346587628e-05,1.0,0.4376929998397827,0.9386666417121887
289,6.133208080427721e-05,1.0,0.4380621612071991,0.9386666417121887
290,4.199905743007548e-05,1.0,0.43827560544013977,0.9388889074325562
291,5.561152647715062e-05,1.0,0.4386056363582611,0.9388889074325562
292,9.72984780673869e-05,1.0,0.438608318567276,0.9388889074325562
293,5.082520146970637e-05,1.0,0.43844926357269287,0.9388889074325562
294,9.054121619556099e-05,1.0,0.4380641281604767,0.9384444355964661
295,4.771706517203711e-05,1.0,0.4382232427597046,0.9382222294807434
296,4.6544028009520844e-05,1.0,0.4383556544780731,0.9384444355964661
297,6.351129559334368e-05,1.0,0.438581258058548,0.9388889074325562
298,7.682364230277017e-05,1.0,0.4386870265007019,0.9388889074325562
299,6.986738299019635e-05,1.0,0.43917667865753174,0.9388889074325562
300,4.144576087128371e-05,1.0,0.4398265779018402,0.9395555257797241
301,9.871512156678364e-05,1.0,0.44028520584106445,0.9397777915000916
302,7.009696128079668e-05,1.0,0.4399072229862213,0.9397777915000916
303,4.728121348307468e-05,1.0,0.4395265281200409,0.9395555257797241
304,3.8912556192371994e-05,1.0,0.439572274684906,0.9395555257797241
305,0.00013616531214211136,1.0,0.439496785402298,0.9397777915000916
306,7.066293619573116e-05,1.0,0.43867501616477966,0.9395555257797241
307,5.5337710364256054e-05,1.0,0.438590407371521,0.9393333196640015
308,5.970854181214236e-05,1.0,0.43912410736083984,0.9393333196640015
309,3.428664058446884e-05,1.0,0.4393891990184784,0.9395555257797241
310,0.00012106193753425032,1.0,0.43966811895370483,0.9399999976158142
311,5.7908622693503276e-05,1.0,0.4391835629940033,0.9395555257797241
312,4.060409628436901e-05,1.0,0.4389079809188843,0.9395555257797241
313,9.073538240045309e-05,1.0,0.43895888328552246,0.9393333196640015
314,4.563721449812874e-05,1.0,0.438821941614151,0.9393333196640015
315,3.832869333564304e-05,1.0,0.4390311539173126,0.9395555257797241
316,4.927486224914901e-05,1.0,0.4394187927246094,0.9395555257797241
317,4.8258047172566876e-05,1.0,0.439737468957901,0.9393333196640015
318,4.348286165622994e-05,1.0,0.439954549074173,0.9393333196640015
319,7.190241740318015e-05,1.0,0.44022390246391296,0.9393333196640015
320,4.958539648214355e-05,1.0,0.4405083954334259,0.9386666417121887
321,7.009544060565531e-05,1.0,0.44051864743232727,0.9386666417121887
322,4.671015631174669e-05,1.0,0.4405598044395447,0.9384444355964661
323,4.892430661129765e-05,1.0,0.4407428801059723,0.9382222294807434
324,5.0571314204717055e-05,1.0,0.44118666648864746,0.9382222294807434
325,6.308923912001774e-05,1.0,0.4414421617984772,0.9382222294807434
326,3.263691905885935e-05,1.0,0.44161638617515564,0.9384444355964661
327,4.603484921972267e-05,1.0,0.4418102502822876,0.9384444355964661
328,4.7201901907101274e-05,1.0,0.44195207953453064,0.9386666417121887
329,3.581626879167743e-05,1.0,0.4420888423919678,0.9386666417121887
330,5.438013977254741e-05,1.0,0.4423227906227112,0.9386666417121887
331,5.595908442046493e-05,1.0,0.44228842854499817,0.9386666417121887
332,4.8925405280897394e-05,1.0,0.44244492053985596,0.9388889074325562
333,0.00012913357932120562,1.0,0.44266030192375183,0.9386666417121887
334,3.6795820051338524e-05,1.0,0.4425545632839203,0.9386666417121887
335,4.052645817864686e-05,1.0,0.44255977869033813,0.9386666417121887
336,6.41266888123937e-05,1.0,0.44264107942581177,0.9388889074325562
337,7.669342448934913e-05,1.0,0.44262510538101196,0.9388889074325562
338,5.3035364544484764e-05,1.0,0.4424910545349121,0.9384444355964661
339,5.041648546466604e-05,1.0,0.44261834025382996,0.9384444355964661
340,0.00011005694250343367,1.0,0.4427123963832855,0.9384444355964661
341,6.910795491421595e-05,1.0,0.44258594512939453,0.9382222294807434
342,6.49436260573566e-05,1.0,0.4428146779537201,0.9382222294807434
343,0.0001318888971582055,1.0,0.4429536461830139,0.9382222294807434
344,6.03516491537448e-05,1.0,0.443255215883255,0.9384444355964661
345,4.433116191648878e-05,1.0,0.4435340166091919,0.9384444355964661
346,5.129630517330952e-05,1.0,0.4437277317047119,0.9384444355964661
347,4.3506352085387334e-05,1.0,0.44408807158470154,0.9384444355964661
348,5.0830200052587315e-05,1.0,0.4443342387676239,0.9386666417121887
349,4.812025144929066e-05,1.0,0.44464948773384094,0.9386666417121887
350,5.565740502788685e-05,1.0,0.4447627365589142,0.9388889074325562
351,5.6381584727205336e-05,1.0,0.4448067545890808,0.9388889074325562
352,8.518281538272277e-05,1.0,0.4451545476913452,0.9388889074325562
353,4.57013156847097e-05,1.0,0.4452400803565979,0.9386666417121887
354,4.498393172980286e-05,1.0,0.44525715708732605,0.9386666417121887
355,5.4233278206083924e-05,1.0,0.445146381855011,0.9388889074325562
356,5.217774378252216e-05,1.0,0.4452042877674103,0.9391111135482788
357,3.364090662216768e-05,1.0,0.4453565776348114,0.9391111135482788
358,5.269486428005621e-05,1.0,0.44546714425086975,0.9393333196640015
359,4.6513690904248506e-05,1.0,0.4455072283744812,0.9395555257797241
360,4.551071469904855e-05,1.0,0.4453907608985901,0.9395555257797241
361,3.816455136984587e-05,1.0,0.44526436924934387,0.9397777915000916
362,5.749070624005981e-05,1.0,0.44511157274246216,0.9391111135482788
363,4.9606831453274935e-05,1.0,0.4451279640197754,0.9388889074325562
364,4.360833918326534e-05,1.0,0.4449712336063385,0.9388889074325562
365,3.780269616981968e-05,1.0,0.4448557198047638,0.9391111135482788
366,9.85393489827402e-05,1.0,0.4445771276950836,0.9393333196640015
367,7.283963350346312e-05,1.0,0.44449013471603394,0.9393333196640015
368,5.571981455432251e-05,1.0,0.44455665349960327,0.9397777915000916
369,4.49512226623483e-05,1.0,0.44457492232322693,0.9397777915000916
370,6.578824832104146e-05,1.0,0.44431865215301514,0.9391111135482788
371,4.8275243898388e-05,1.0,0.4442049562931061,0.9391111135482788
372,5.792630327050574e-05,1.0,0.444255530834198,0.9391111135482788
373,4.6936609578551725e-05,1.0,0.44437775015830994,0.9391111135482788
374,4.1708895878400654e-05,1.0,0.4442864656448364,0.9388889074325562
375,5.480380423250608e-05,1.0,0.44421201944351196,0.9388889074325562
376,4.324184192228131e-05,1.0,0.44413474202156067,0.9388889074325562
377,3.923662006855011e-05,1.0,0.4442911148071289,0.9388889074325562
378,4.350581730250269e-05,1.0,0.44458505511283875,0.9388889074325562
379,4.750059815705754e-05,1.0,0.4447541832923889,0.9388889074325562
380,4.3919550080318004e-05,1.0,0.44487929344177246,0.9388889074325562
381,0.0001305612677242607,1.0,0.4437130391597748,0.9380000233650208
382,3.559867764124647e-05,1.0,0.4433709979057312,0.9377777576446533
383,5.042619159212336e-05,1.0,0.44340062141418457,0.9377777576446533
384,6.478872819570825e-05,1.0,0.44365859031677246,0.9377777576446533
385,0.00012190236884634942,1.0,0.44393864274024963,0.9382222294807434
386,4.025738962809555e-05,1.0,0.44332507252693176,0.9391111135482788
387,6.20119390077889e-05,1.0,0.44344109296798706,0.9393333196640015
388,7.423350325552747e-05,1.0,0.4437404274940491,0.9393333196640015
389,5.592246452579275e-05,1.0,0.44390246272087097,0.9393333196640015
390,5.583683741861023e-05,1.0,0.4441276490688324,0.9393333196640015
391,6.683800893370062e-05,1.0,0.44444629549980164,0.9391111135482788
392,4.0349779737880453e-05,1.0,0.4446497857570648,0.9397777915000916
393,4.2826497519854456e-05,1.0,0.44483432173728943,0.9397777915000916
394,5.164710819371976e-05,1.0,0.44500619173049927,0.9397777915000916
395,4.151187386014499e-05,1.0,0.44538140296936035,0.9397777915000916
396,3.89964843634516e-05,1.0,0.44559165835380554,0.9395555257797241
397,4.811471444554627e-05,1.0,0.4458029270172119,0.9397777915000916
398,6.558505992870778e-05,1.0,0.4460611045360565,0.9397777915000916
399,7.999419904081151e-05,1.0,0.44641542434692383,0.9393333196640015
400,6.780868716305122e-05,1.0,0.4466816782951355,0.9391111135482788
401,5.2831030188826844e-05,1.0,0.446851909160614,0.9391111135482788
402,4.0185961552197114e-05,1.0,0.446970671415329,0.9393333196640015
403,4.1782073822105303e-05,1.0,0.44704174995422363,0.9395555257797241
404,4.8697878810344264e-05,1.0,0.4470750391483307,0.9395555257797241
405,4.025237285532057e-05,1.0,0.4473402202129364,0.9395555257797241
406,5.812023300677538e-05,1.0,0.44764846563339233,0.9395555257797241
407,4.7360739699797705e-05,1.0,0.44778692722320557,0.9397777915000916
408,4.195775181869976e-05,1.0,0.44764941930770874,0.9395555257797241
409,5.3106876293895766e-05,1.0,0.4475988447666168,0.9395555257797241
410,5.6714612583164126e-05,1.0,0.44781848788261414,0.9395555257797241
411,6.586500239791349e-05,1.0,0.44785863161087036,0.9391111135482788
412,3.273415131843649e-05,1.0,0.4477284550666809,0.9388889074325562
413,6.527716323034838e-05,1.0,0.44802436232566833,0.9391111135482788
414,4.250158235663548e-05,1.0,0.4483206868171692,0.9391111135482788
415,4.8428970330860466e-05,1.0,0.44848567247390747,0.9393333196640015
416,6.972296250751242e-05,1.0,0.4482134282588959,0.9391111135482788
417,4.410758629092015e-05,1.0,0.44811567664146423,0.9391111135482788
418,4.2577721615089104e-05,1.0,0.4478629231452942,0.9388889074325562
419,8.224984776461497e-05,1.0,0.44774678349494934,0.9384444355964661
420,8.807614358374849e-05,1.0,0.44788119196891785,0.9380000233650208
421,8.010968304006383e-05,1.0,0.44831669330596924,0.9388889074325562
422,4.131521927774884e-05,1.0,0.4482784867286682,0.9391111135482788
423,5.883082121727057e-05,1.0,0.4485970735549927,0.9388889074325562
424,0.0002598519786261022,1.0,0.44683557748794556,0.9375555515289307
425,3.836676842183806e-05,1.0,0.4476288855075836,0.9333333373069763
426,5.3132283937884495e-05,1.0,0.4483889937400818,0.9331111311912537
427,7.193184865172952e-05,1.0,0.4486466348171234,0.933555543422699
428,4.762094613397494e-05,1.0,0.4488557279109955,0.9340000152587891
429,7.975541666382924e-05,1.0,0.4491760730743408,0.9348888993263245
430,5.183212488191202e-05,1.0,0.44936272501945496,0.9359999895095825
431,4.743790486827493e-05,1.0,0.44968682527542114,0.9364444613456726
432,5.19789318786934e-05,1.0,0.450157105922699,0.9366666674613953
433,3.547345113474876e-05,1.0,0.45039471983909607,0.9371111392974854
434,4.206628000247292e-05,1.0,0.4505448043346405,0.9371111392974854
435,6.232488522073254e-05,1.0,0.45080119371414185,0.9371111392974854
436,5.752583820139989e-05,1.0,0.45077869296073914,0.937333345413208
437,0.0001938785135280341,1.0,0.45085927844047546,0.937333345413208
438,8.471224282402545e-05,1.0,0.45002204179763794,0.9366666674613953
439,4.0012499084696174e-05,1.0,0.4498016834259033,0.9368888735771179
440,5.3561081585939974e-05,1.0,0.4497537612915039,0.9371111392974854
441,5.545154999708757e-05,1.0,0.4498210847377777,0.9380000233650208
442,5.687628799933009e-05,1.0,0.4496224522590637,0.9380000233650208
443,8.47321207402274e-05,1.0,0.4497234523296356,0.9386666417121887
444,4.813462510355748e-05,1.0,0.4500811696052551,0.9386666417121887
445,3.964754068874754e-05,1.0,0.45023825764656067,0.9384444355964661
446,3.7662968679796904e-05,1.0,0.4502788484096527,0.9384444355964661
447,4.012873614556156e-05,1.0,0.4503803849220276,0.9384444355964661
448,3.412576552364044e-05,1.0,0.4503398835659027,0.9386666417121887
449,5.017412331653759e-05,1.0,0.4499441385269165,0.9388889074325562
450,3.226085755159147e-05,1.0,0.4498543441295624,0.9388889074325562
451,5.0084763643098995e-05,1.0,0.4500979483127594,0.9395555257797241
452,4.6948603994678706e-05,1.0,0.4503297209739685,0.9395555257797241
453,5.301248893374577e-05,1.0,0.4507068693637848,0.9395555257797241
454,5.597711424343288e-05,1.0,0.4512282609939575,0.9395555257797241
455,6.36967015452683e-05,1.0,0.4513321816921234,0.9397777915000916
456,4.623705171979964e-05,1.0,0.4514670670032501,0.9399999976158142
457,5.959900590823963e-05,1.0,0.4515083134174347,0.9397777915000916
458,3.3898893889272586e-05,1.0,0.4516609013080597,0.9395555257797241
459,4.030376658192836e-05,1.0,0.4516119360923767,0.9395555257797241
460,4.6753913920838386e-05,1.0,0.4516407251358032,0.9395555257797241
461,3.5958066291641444e-05,1.0,0.4517793655395508,0.9393333196640015
462,2.9695431294385344e-05,1.0,0.4518492817878723,0.9393333196640015
463,3.189460403518751e-05,1.0,0.45176032185554504,0.9393333196640015
464,2.3652464733459055e-05,1.0,0.45169323682785034,0.9391111135482788
465,4.221438939566724e-05,1.0,0.45182254910469055,0.9391111135482788
466,5.9795580455102026e-05,1.0,0.4516887962818146,0.9393333196640015
467,4.8915921070147306e-05,1.0,0.4519061744213104,0.9399999976158142
468,3.493743497529067e-05,1.0,0.45220768451690674,0.9402222037315369
469,2.8797579943784513e-05,1.0,0.4523257911205292,0.9402222037315369
470,7.565657870145515e-05,1.0,0.45242446660995483,0.9399999976158142
471,7.377209112746641e-05,1.0,0.45300522446632385,0.9402222037315369
472,2.9178510885685682e-05,1.0,0.45301517844200134,0.9404444694519043
473,3.487970388960093e-05,1.0,0.45286211371421814,0.9404444694519043
474,4.0390594222117215e-05,1.0,0.45242297649383545,0.9402222037315369
475,4.333949982537888e-05,1.0,0.4523193836212158,0.9399999976158142
476,4.9956244765780866e-05,1.0,0.4523558020591736,0.9397777915000916
477,2.833108010236174e-05,1.0,0.45237264037132263,0.9397777915000916
478,3.471042145974934e-05,1.0,0.45237067341804504,0.9395555257797241
479,3.068913065362722e-05,1.0,0.4521920680999756,0.9395555257797241
480,3.018424285983201e-05,1.0,0.45187807083129883,0.9393333196640015
481,3.100477624684572e-05,1.0,0.451725572347641,0.9393333196640015
482,5.123901792103425e-05,1.0,0.45116662979125977,0.9391111135482788
483,0.00013433389540296048,1.0,0.45083969831466675,0.9391111135482788
484,4.4866643293062225e-05,1.0,0.4502726197242737,0.9382222294807434
485,2.6778929168358445e-05,1.0,0.44992879033088684,0.9388889074325562
486,4.970774898538366e-05,1.0,0.4499746263027191,0.9393333196640015
487,6.522846524603665e-05,1.0,0.45022052526474,0.9391111135482788
488,6.612639117520303e-05,1.0,0.45083752274513245,0.9391111135482788
489,2.4906961698434316e-05,1.0,0.45083731412887573,0.9391111135482788
490,5.899581083212979e-05,1.0,0.45116299390792847,0.9391111135482788
491,4.529847501544282e-05,1.0,0.4511749744415283,0.9391111135482788
492,4.5578566641779616e-05,1.0,0.45140793919563293,0.9391111135482788
493,4.798528607352637e-05,1.0,0.4511995017528534,0.9393333196640015
494,5.3535386541625485e-05,1.0,0.4506976008415222,0.9397777915000916
495,4.185161378700286e-05,1.0,0.45015949010849,0.9397777915000916
496,8.18492189864628e-05,1.0,0.45082467794418335,0.9402222037315369
497,6.891633529448882e-05,1.0,0.45094534754753113,0.9402222037315369
498,4.96198954351712e-05,1.0,0.44957828521728516,0.9393333196640015
499,3.166002716170624e-05,1.0,0.44948911666870117,0.9391111135482788
500,4.344566332292743e-05,1.0,0.4499528408050537,0.9393333196640015
501,3.591488712118007e-05,1.0,0.4504644274711609,0.9391111135482788
502,2.3322190827457234e-05,1.0,0.45079392194747925,0.9393333196640015
503,4.026318129035644e-05,1.0,0.45102760195732117,0.9395555257797241
504,4.056764373672195e-05,1.0,0.45144400000572205,0.9395555257797241
505,3.599572664825246e-05,1.0,0.45202675461769104,0.9395555257797241
506,3.488091169856489e-05,1.0,0.452144056558609,0.9395555257797241
507,3.731194738065824e-05,1.0,0.45197147130966187,0.9393333196640015
508,2.891584335884545e-05,1.0,0.4519927203655243,0.9393333196640015
509,4.441996134119108e-05,1.0,0.45252788066864014,0.9393333196640015
510,5.20644462085329e-05,1.0,0.4527331590652466,0.9393333196640015
511,2.5269813704653643e-05,1.0,0.45283710956573486,0.9393333196640015
512,4.035642996313982e-05,1.0,0.453276127576828,0.9393333196640015
513,3.292967812740244e-05,1.0,0.453459769487381,0.9393333196640015
514,2.3724307538941503e-05,1.0,0.45352527499198914,0.9393333196640015
515,5.0156315410276875e-05,1.0,0.45367082953453064,0.9388889074325562
516,4.961812010151334e-05,1.0,0.45359745621681213,0.9391111135482788
517,2.9052864192635752e-05,1.0,0.4533558487892151,0.9391111135482788
518,3.949916936107911e-05,1.0,0.4531131982803345,0.9391111135482788
519,5.752508877776563e-05,1.0,0.45229393243789673,0.9388889074325562
520,2.9966235160827637e-05,1.0,0.4526250660419464,0.9388889074325562
521,2.8357100745779462e-05,1.0,0.45286184549331665,0.9386666417121887
522,2.459599454596173e-05,1.0,0.4531455934047699,0.9386666417121887
523,8.69648065418005e-05,1.0,0.45236191153526306,0.9386666417121887
524,3.138493048027158e-05,1.0,0.4523279368877411,0.9386666417121887
525,5.4410214943345636e-05,1.0,0.4526022970676422,0.9382222294807434
526,3.605613892432302e-05,1.0,0.45277372002601624,0.9384444355964661
527,3.4082928323186934e-05,1.0,0.45311781764030457,0.9384444355964661
528,3.070354796363972e-05,1.0,0.4534984230995178,0.9386666417121887
529,2.2617485228693113e-05,1.0,0.45371511578559875,0.9386666417121887
530,3.643211675807834e-05,1.0,0.4539089500904083,0.9386666417121887
531,4.0466347854817286e-05,1.0,0.45437657833099365,0.9386666417121887
532,4.005311711807735e-05,1.0,0.4547120928764343,0.9388889074325562
533,2.788638994388748e-05,1.0,0.4552697539329529,0.9391111135482788
534,4.065979373990558e-05,1.0,0.4555864930152893,0.9395555257797241
535,5.617921851808205e-05,1.0,0.4552760422229767,0.9391111135482788
536,4.463370351004414e-05,1.0,0.4546682834625244,0.9388889074325562
537,4.731081935460679e-05,1.0,0.45485246181488037,0.9391111135482788
538,4.296035331208259e-05,1.0,0.4551981985569,0.9391111135482788
539,3.5114844649797305e-05,1.0,0.4556952714920044,0.9393333196640015
540,2.103230872307904e-05,1.0,0.4558708369731903,0.9393333196640015
541,2.4099465008475818e-05,1.0,0.45582735538482666,0.9393333196640015
542,4.727806299342774e-05,1.0,0.455542653799057,0.9391111135482788
543,5.2976494771428406e-05,1.0,0.45612016320228577,0.9391111135482788
544,3.635394023149274e-05,1.0,0.4563804268836975,0.9391111135482788
545,3.377404937054962e-05,1.0,0.4561406373977661,0.9388889074325562
546,3.547241794876754e-05,1.0,0.456050306558609,0.9388889074325562
547,4.9956572183873504e-05,1.0,0.4553704559803009,0.9388889074325562
548,3.4832130040740594e-05,1.0,0.4547617435455322,0.9386666417121887
549,8.553748921258375e-05,1.0,0.45487675070762634,0.9386666417121887
550,2.9719480153289624e-05,1.0,0.45498570799827576,0.9386666417121887
551,3.800792183028534e-05,1.0,0.455282986164093,0.9388889074325562
552,1.9882423657691106e-05,1.0,0.4557553231716156,0.9386666417121887
553,4.404335413710214e-05,1.0,0.4562009572982788,0.9386666417121887
554,4.2239262256771326e-05,1.0,0.4565148651599884,0.9388889074325562
555,3.9276616007555276e-05,1.0,0.45760035514831543,0.9388889074325562
556,1.8334285414312035e-05,1.0,0.45831596851348877,0.9391111135482788
557,4.3427542550489306e-05,1.0,0.4579078257083893,0.9391111135482788
558,2.7544911063159816e-05,1.0,0.45714735984802246,0.9391111135482788
559,2.830668381648138e-05,1.0,0.4568319320678711,0.9391111135482788
560,3.1455158023163676e-05,1.0,0.45668825507164,0.9382222294807434
561,5.011268876842223e-05,1.0,0.455631822347641,0.9384444355964661
562,2.3941960535012186e-05,1.0,0.45518365502357483,0.9382222294807434
563,2.0900768504361622e-05,1.0,0.4553751051425934,0.9384444355964661
564,5.4892163461772725e-05,1.0,0.4558887779712677,0.9384444355964661
565,3.057618232560344e-05,1.0,0.4564823806285858,0.9386666417121887
566,2.9228178391349502e-05,1.0,0.45707443356513977,0.9388889074325562
567,3.076046414207667e-05,1.0,0.4574739634990692,0.9388889074325562
568,2.5847713914117776e-05,1.0,0.45785242319107056,0.9388889074325562
569,2.8623768230318092e-05,1.0,0.45808741450309753,0.9391111135482788
570,3.376228050910868e-05,1.0,0.45824918150901794,0.9388889074325562
571,4.7690151404822245e-05,1.0,0.4584498703479767,0.9388889074325562
572,4.673997682402842e-05,1.0,0.4586779475212097,0.9388889074325562
573,3.211616422049701e-05,1.0,0.458471417427063,0.9391111135482788
574,4.202580385026522e-05,1.0,0.4586006999015808,0.9393333196640015
575,2.5593710233806632e-05,1.0,0.45886409282684326,0.9393333196640015
576,2.4267161279567517e-05,1.0,0.4589555561542511,0.9391111135482788
577,4.5524506276706234e-05,1.0,0.4588022530078888,0.9386666417121887
578,5.8666581026045606e-05,1.0,0.4585671126842499,0.9388889074325562
579,2.0788655092474073e-05,1.0,0.4581175148487091,0.9391111135482788
580,2.8306702006375417e-05,1.0,0.45841488242149353,0.9386666417121887
581,2.8479820684879087e-05,1.0,0.4586654603481293,0.9386666417121887
582,3.092269616900012e-05,1.0,0.4591580927371979,0.9388889074325562
583,5.182912718737498e-05,1.0,0.45999976992607117,0.9388889074325562
584,2.8683867640211247e-05,1.0,0.4600629210472107,0.9388889074325562
585,2.984730053867679e-05,1.0,0.4602071940898895,0.9388889074325562
586,3.2541778637096286e-05,1.0,0.46054333448410034,0.9388889074325562
587,4.669222471420653e-05,1.0,0.4605852961540222,0.9388889074325562
588,2.7367324946681038e-05,1.0,0.46005821228027344,0.9386666417121887
589,2.1115913114044815e-05,1.0,0.45984527468681335,0.9386666417121887
590,3.4426760976202786e-05,1.0,0.4600626528263092,0.9386666417121887
591,4.5419652451528236e-05,1.0,0.4601362347602844,0.9384444355964661
592,2.473613312758971e-05,1.0,0.4599064588546753,0.9380000233650208
593,2.2023339624865912e-05,1.0,0.460067480802536,0.9380000233650208
594,3.0890652851667255e-05,1.0,0.46022260189056396,0.9382222294807434
595,2.623867112561129e-05,1.0,0.4606306850910187,0.9382222294807434
596,4.691676440415904e-05,1.0,0.46062374114990234,0.9384444355964661
597,4.562986578093842e-05,1.0,0.4606965184211731,0.9384444355964661
598,4.2424995626788586e-05,1.0,0.4603203237056732,0.9380000233650208
599,3.693478720379062e-05,1.0,0.4602620005607605,0.9377777576446533
600,2.143768870155327e-05,1.0,0.4605092704296112,0.9377777576446533
601,2.417460382275749e-05,1.0,0.4608975648880005,0.9380000233650208
602,2.8542635845951736e-05,1.0,0.4611510932445526,0.9384444355964661
603,1.8032667867373675e-05,1.0,0.4615458846092224,0.9386666417121887
604,2.373149254708551e-05,1.0,0.46153733134269714,0.9384444355964661
605,3.665074109449051e-05,1.0,0.46123620867729187,0.9386666417121887
606,3.9585400372743607e-05,1.0,0.4609840512275696,0.9384444355964661
607,3.652535087894648e-05,1.0,0.46136289834976196,0.9384444355964661
608,2.4483559172949754e-05,1.0,0.46117687225341797,0.9384444355964661
609,8.306816744152457e-05,1.0,0.45974966883659363,0.9382222294807434
610,2.482937452441547e-05,1.0,0.4583996832370758,0.9377777576446533
611,3.6457513488130644e-05,1.0,0.4586854875087738,0.9371111392974854
612,1.8934011677629314e-05,1.0,0.45916885137557983,0.9382222294807434
613,4.1493840399198234e-05,1.0,0.45982491970062256,0.9382222294807434
614,2.061034319922328e-05,1.0,0.4603334367275238,0.9380000233650208
615,5.8431785873835906e-05,1.0,0.4607011079788208,0.9375555515289307
616,2.4281904188683257e-05,1.0,0.4610074758529663,0.937333345413208
617,1.9939068806706928e-05,1.0,0.4614364206790924,0.937333345413208
618,3.386030221008696e-05,1.0,0.4618331789970398,0.9377777576446533
619,2.3937322112033144e-05,1.0,0.46232834458351135,0.9375555515289307
620,2.720658085308969e-05,1.0,0.4629526436328888,0.9375555515289307
621,2.776218934741337e-05,1.0,0.46366086602211,0.9375555515289307
622,2.9624499802594073e-05,1.0,0.46425530314445496,0.9380000233650208
623,4.280991925043054e-05,1.0,0.4648551344871521,0.9382222294807434
624,2.4679829948581755e-05,1.0,0.4653729498386383,0.9386666417121887
625,4.01481993321795e-05,1.0,0.46591123938560486,0.9386666417121887
626,1.6599557056906633e-05,1.0,0.46634846925735474,0.9386666417121887
627,2.9240218282211572e-05,1.0,0.4664757549762726,0.9386666417121887
628,3.1742980354465544e-05,1.0,0.4668155312538147,0.9386666417121887
629,3.3258784242207184e-05,1.0,0.466842383146286,0.9386666417121887
630,1.99857367988443e-05,1.0,0.4667533040046692,0.9386666417121887
631,2.327271613467019e-05,1.0,0.46700814366340637,0.9386666417121887
632,7.174699567258358e-05,1.0,0.4656147360801697,0.9384444355964661
633,2.267599484184757e-05,1.0,0.46484026312828064,0.937333345413208
634,2.0811570720979944e-05,1.0,0.46523237228393555,0.937333345413208
635,2.8300581107032485e-05,1.0,0.4660477340221405,0.937333345413208
636,3.48754292645026e-05,1.0,0.46606531739234924,0.9377777576446533
637,3.71450514649041e-05,1.0,0.46637678146362305,0.9380000233650208
638,3.88741354981903e-05,1.0,0.4671737849712372,0.9384444355964661
639,3.167410977766849e-05,1.0,0.46747851371765137,0.9384444355964661
640,1.977929423446767e-05,1.0,0.46748876571655273,0.9384444355964661
641,2.101076279359404e-05,1.0,0.4677194058895111,0.9384444355964661
642,2.0472121832426637e-05,1.0,0.46758702397346497,0.9382222294807434
643,2.2584341422771104e-05,1.0,0.46768298745155334,0.9382222294807434
644,2.247978227387648e-05,1.0,0.46744754910469055,0.9382222294807434
645,2.653634328453336e-05,1.0,0.46748584508895874,0.9380000233650208
646,2.1121364625287242e-05,1.0,0.4670298993587494,0.9380000233650208
647,4.5911321649327874e-05,1.0,0.4665440022945404,0.9377777576446533
648,1.9304970919620246e-05,1.0,0.4669663608074188,0.9382222294807434
649,1.832985071814619e-05,1.0,0.46717751026153564,0.9386666417121887
650,1.4306338016467635e-05,1.0,0.4670642912387848,0.9386666417121887
651,2.513705112505704e-05,1.0,0.46683788299560547,0.9386666417121887
652,2.3714634153293446e-05,1.0,0.46673721075057983,0.9386666417121887
653,3.02192747767549e-05,1.0,0.46666526794433594,0.9382222294807434
654,2.360683720326051e-05,1.0,0.46583789587020874,0.9375555515289307
655,2.7820002287626266e-05,1.0,0.46562889218330383,0.9377777576446533
656,2.9247052225400694e-05,1.0,0.46585285663604736,0.9377777576446533
657,1.7311858755419962e-05,1.0,0.46633002161979675,0.9382222294807434
658,1.551104651298374e-05,1.0,0.4666939079761505,0.9382222294807434
659,3.83300575776957e-05,1.0,0.4672864079475403,0.9382222294807434
660,6.342362030409276e-05,1.0,0.4659835696220398,0.9368888735771179
661,3.0218076062737964e-05,1.0,0.46614348888397217,0.9364444613456726
662,1.798067387426272e-05,1.0,0.4661124646663666,0.9375555515289307
663,3.58641154889483e-05,1.0,0.4663573205471039,0.9380000233650208
664,1.8407119569019414e-05,1.0,0.46603092551231384,0.9377777576446533
665,2.1136305804247968e-05,1.0,0.4662153720855713,0.9375555515289307
666,2.5064478904823773e-05,1.0,0.46716177463531494,0.9377777576446533
667,1.9014869394595735e-05,1.0,0.4679451584815979,0.9377777576446533
668,1.8314340195502155e-05,1.0,0.4685571789741516,0.9377777576446533
669,0.00010863705392694101,1.0,0.4663878083229065,0.9366666674613953
670,3.3581691241124645e-05,1.0,0.4660932123661041,0.933555543422699
671,4.6481520257657394e-05,1.0,0.4669027328491211,0.9359999895095825
672,2.8219472369528376e-05,1.0,0.4680236577987671,0.9375555515289307
673,7.549715519417077e-05,1.0,0.4686409533023834,0.9377777576446533
674,4.437012830749154e-05,1.0,0.46819809079170227,0.9380000233650208
675,2.2576226911041886e-05,1.0,0.4675388038158417,0.9386666417121887
676,3.1456271244678646e-05,1.0,0.46763449907302856,0.9384444355964661
677,2.034376302617602e-05,1.0,0.46776247024536133,0.9386666417121887
678,2.1837347958353348e-05,1.0,0.46810638904571533,0.9384444355964661
679,3.50163973052986e-05,1.0,0.468569815158844,0.9384444355964661
680,3.974877836299129e-05,1.0,0.46991145610809326,0.9377777576446533
681,2.3550974219688214e-05,1.0,0.47077640891075134,0.9377777576446533
682,1.9184088159818202e-05,1.0,0.4710749685764313,0.9377777576446533
683,2.040224353550002e-05,1.0,0.47113287448883057,0.9377777576446533
684,2.2397951397579163e-05,1.0,0.4713563919067383,0.9380000233650208
685,1.9859060557791963e-05,1.0,0.47159862518310547,0.9377777576446533
686,2.3237049390445463e-05,1.0,0.471556693315506,0.9380000233650208
687,2.8164999093860388e-05,1.0,0.46976181864738464,0.9386666417121887
688,1.790432543202769e-05,1.0,0.4688025712966919,0.9388889074325562
689,3.707593714352697e-05,1.0,0.46864762902259827,0.9395555257797241
690,2.2458221792476252e-05,1.0,0.4686768054962158,0.9393333196640015
691,3.3662912755971774e-05,1.0,0.4684705436229706,0.9393333196640015
692,1.9495679225656204e-05,1.0,0.4676647186279297,0.9393333196640015
693,2.440929711156059e-05,1.0,0.46797603368759155,0.9393333196640015
694,3.326851947349496e-05,1.0,0.46916845440864563,0.9393333196640015
695,3.140262924716808e-05,1.0,0.46938255429267883,0.9380000233650208
696,1.3437146662909072e-05,1.0,0.4697405993938446,0.9375555515289307
697,3.1938547181198373e-05,1.0,0.47018423676490784,0.9375555515289307
698,1.6251535271294415e-05,1.0,0.47047868371009827,0.9371111392974854
699,1.755424091243185e-05,1.0,0.47088760137557983,0.9375555515289307
700,1.764582884788979e-05,1.0,0.47158050537109375,0.9380000233650208
701,1.936806620506104e-05,1.0,0.472006618976593,0.9377777576446533
702,1.8292224922333844e-05,1.0,0.47223562002182007,0.9377777576446533
703,1.9409641026868485e-05,1.0,0.4721710681915283,0.9377777576446533
704,1.163995693787001e-05,1.0,0.4722568392753601,0.9380000233650208
705,2.989252607221715e-05,1.0,0.472393274307251,0.9382222294807434
706,1.8498882127460092e-05,1.0,0.4721747636795044,0.9384444355964661
707,2.2620162781095132e-05,1.0,0.4725551903247833,0.9384444355964661
708,2.9128808819223195e-05,1.0,0.47361132502555847,0.9391111135482788
709,2.0905396013404243e-05,1.0,0.4739281237125397,0.9386666417121887
710,1.699515269137919e-05,1.0,0.4743606150150299,0.9386666417121887
711,1.719531064736657e-05,1.0,0.4748869240283966,0.9384444355964661
712,2.8512331482488662e-05,1.0,0.4755266308784485,0.9384444355964661
713,1.687657459115144e-05,1.0,0.4763720631599426,0.9382222294807434
714,1.6257245079032145e-05,1.0,0.47722890973091125,0.9380000233650208
715,6.713462789775804e-05,1.0,0.47560009360313416,0.9380000233650208
716,1.6482979845022783e-05,1.0,0.473306268453598,0.9382222294807434
717,1.746624730003532e-05,1.0,0.47267693281173706,0.9382222294807434
718,2.19092962652212e-05,1.0,0.47349897027015686,0.9380000233650208
719,2.468589082127437e-05,1.0,0.4738340377807617,0.9384444355964661
720,1.9651850379887037e-05,1.0,0.4737277626991272,0.9384444355964661
721,1.2502551726356614e-05,1.0,0.4737195074558258,0.9382222294807434
722,3.43797255482059e-05,1.0,0.4735085070133209,0.9380000233650208
723,2.232963015558198e-05,1.0,0.47332504391670227,0.9382222294807434
724,1.245261501026107e-05,1.0,0.4737679660320282,0.9384444355964661
725,2.1790012397104874e-05,1.0,0.4744885563850403,0.9384444355964661
726,2.0870364096481353e-05,1.0,0.4742102324962616,0.9386666417121887
727,1.4331929378386121e-05,1.0,0.4744243025779724,0.9386666417121887
728,4.352026735432446e-05,1.0,0.4724670648574829,0.9375555515289307
729,1.251997582585318e-05,1.0,0.4721352458000183,0.9375555515289307
730,2.0799476260435767e-05,1.0,0.4724130928516388,0.9375555515289307
731,6.827702600276098e-05,1.0,0.4711848497390747,0.9377777576446533
732,1.2097762919438537e-05,1.0,0.47005560994148254,0.9377777576446533
733,1.5851639545871876e-05,1.0,0.47023099660873413,0.9380000233650208
734,1.542744939797558e-05,1.0,0.47077125310897827,0.9384444355964661
735,1.300795247516362e-05,1.0,0.4717390537261963,0.9384444355964661
736,1.9305427485960536e-05,1.0,0.47233468294143677,0.9386666417121887
737,3.663703319034539e-05,1.0,0.4734390676021576,0.9386666417121887
738,1.5054635696287733e-05,1.0,0.4746796190738678,0.9386666417121887
739,1.6143716493388638e-05,1.0,0.47515669465065,0.9386666417121887
740,1.9917615645681508e-05,1.0,0.47541242837905884,0.9386666417121887
741,2.2378952053259127e-05,1.0,0.4755057096481323,0.9388889074325562
742,1.0736953299783636e-05,1.0,0.4753705561161041,0.9391111135482788
743,1.5763793271617033e-05,1.0,0.47564181685447693,0.9391111135482788
744,2.311603384441696e-05,1.0,0.4753713011741638,0.9375555515289307
745,1.105013598134974e-05,1.0,0.4753625690937042,0.9368888735771179
746,4.552467362373136e-05,1.0,0.4758415222167969,0.9371111392974854
747,1.621621777303517e-05,1.0,0.4761154055595398,0.937333345413208
748,2.025706271524541e-05,1.0,0.47712767124176025,0.9377777576446533
749,1.0093856872117613e-05,1.0,0.47792020440101624,0.9375555515289307
750,1.4302839190349914e-05,1.0,0.4787864089012146,0.9377777576446533
751,2.137126102752518e-05,1.0,0.47893691062927246,0.937333345413208
752,3.781381019507535e-05,1.0,0.4791772961616516,0.937333345413208
753,1.318374870606931e-05,1.0,0.47943657636642456,0.9366666674613953
754,1.4047227523406036e-05,1.0,0.479840487241745,0.9366666674613953
755,1.7963013306143694e-05,1.0,0.4802936315536499,0.9366666674613953
756,1.668339427851606e-05,1.0,0.4808241128921509,0.9366666674613953
757,1.6240983313764445e-05,1.0,0.4817166328430176,0.9366666674613953
758,1.3819520063407253e-05,1.0,0.48208701610565186,0.9371111392974854
759,1.2558482012536842e-05,1.0,0.4818900227546692,0.9368888735771179
760,2.335338831471745e-05,1.0,0.4815477430820465,0.9364444613456726
761,1.3439736903819721e-05,1.0,0.4814929962158203,0.9362221956253052
762,1.8499909856473096e-05,1.0,0.4812679588794708,0.9364444613456726
763,1.9731374777620658e-05,1.0,0.48132649064064026,0.9364444613456726
764,2.4987428332678974e-05,1.0,0.48197081685066223,0.9366666674613953
765,2.6281841201125644e-05,1.0,0.482523113489151,0.9371111392974854
766,2.0813233277294785e-05,1.0,0.4824369549751282,0.9371111392974854
767,1.4515375369228423e-05,1.0,0.4825069010257721,0.9371111392974854
768,1.3084888450975996e-05,1.0,0.4824770390987396,0.9371111392974854
769,1.4076323168410454e-05,1.0,0.48234498500823975,0.9371111392974854
770,1.5930063455016352e-05,1.0,0.4818010926246643,0.937333345413208
771,1.4958145584387239e-05,1.0,0.4814728796482086,0.9375555515289307
772,2.6655339752323925e-05,1.0,0.48275622725486755,0.9375555515289307
773,1.5354156857938506e-05,1.0,0.48319682478904724,0.9375555515289307
774,8.959356819104869e-06,1.0,0.48324349522590637,0.937333345413208
775,9.238992788596079e-06,1.0,0.4833303391933441,0.937333345413208
776,1.1850504961330444e-05,1.0,0.48327142000198364,0.937333345413208
777,3.864783138851635e-05,1.0,0.48003455996513367,0.9357777833938599
778,3.399659908609465e-05,1.0,0.4797903597354889,0.9375555515289307
779,3.6082616134081036e-05,1.0,0.480119913816452,0.937333345413208
780,1.195406002807431e-05,1.0,0.4806424081325531,0.937333345413208
781,1.74390988831874e-05,1.0,0.4816349148750305,0.9371111392974854
782,4.452689609024674e-05,1.0,0.48439821600914,0.9366666674613953
783,1.7985286831390113e-05,1.0,0.4853411912918091,0.9364444613456726
784,1.6932262951740995e-05,1.0,0.4855816960334778,0.9368888735771179
785,1.0523811397433747e-05,1.0,0.48596328496932983,0.9371111392974854
786,3.4889257221948355e-05,1.0,0.483845978975296,0.937333345413208
787,1.604310455149971e-05,1.0,0.4832959473133087,0.9366666674613953
788,1.0563731848378666e-05,1.0,0.4834359884262085,0.9368888735771179
789,1.3173398656363133e-05,1.0,0.4836204946041107,0.9371111392974854
790,1.3810029486194253e-05,1.0,0.4839076101779938,0.9371111392974854
791,3.7271849578246474e-05,1.0,0.4842618703842163,0.9371111392974854
792,1.47819137055194e-05,1.0,0.48463529348373413,0.9384444355964661
793,2.891923941206187e-05,1.0,0.4815903902053833,0.937333345413208
794,1.943988900166005e-05,1.0,0.48129528760910034,0.9371111392974854
795,1.7635773474466987e-05,1.0,0.4820646643638611,0.9368888735771179
796,1.626179255254101e-05,1.0,0.4831816554069519,0.937333345413208
797,1.2730957678286359e-05,1.0,0.48399263620376587,0.9377777576446533
798,2.384374602115713e-05,1.0,0.4845406413078308,0.9384444355964661
799,1.256595533050131e-05,1.0,0.48512211441993713,0.9388889074325562
