,loss,recall,val_loss,val_recall
0,1.46914803981781,0.5953024839743588,1.515851616859436,0.421557348286072
1,1.495522379875183,0.51015625,1.2728103399276733,0.6582317372343972
2,1.4492398500442505,0.5430803571428571,1.3751665353775024,0.7100634942611902
3,1.426564335823059,0.5732886904761904,1.273305058479309,0.5914661348304968
4,1.397294044494629,0.5299479166666666,1.3111881017684937,0.732815851078263
5,1.3684223890304565,0.6064453125,1.2597514390945435,0.6992385003688196
6,1.3514560461044312,0.62109375,1.233524203300476,0.6901341512112792
7,1.3489923477172852,0.5877130681818181,1.1688944101333618,0.6769176725559708
8,1.3247474431991577,0.5749797077922078,1.189247965812683,0.7229734066170241
9,1.3043699264526367,0.6684337797619048,1.145507574081421,0.682216537402708
10,1.2945032119750977,0.6505742521367521,1.1894930601119995,0.7248919411951331
11,1.2785416841506958,0.68359375,1.219284176826477,0.7150677213842112
12,1.2588167190551758,0.71484375,1.2335009574890137,0.723789771595623
13,1.2385733127593994,0.7632068452380952,1.2327241897583008,0.7250642309817845
14,1.2269947528839111,0.7788318452380952,1.2227253913879395,0.7246178516125328
15,1.2112059593200684,0.8100818452380952,1.2298754453659058,0.7244984831952923
16,1.1999226808547974,0.8413318452380952,1.2296674251556396,0.7268779035844645
17,1.187413215637207,0.7944568452380952,1.2214421033859253,0.7268355792158987
18,1.1760625839233398,0.8100818452380952,1.2043070793151855,0.7273249932691426
19,1.1674925088882446,0.8309151785714286,1.1985691785812378,0.7265125536402136
20,1.16047203540802,0.8309151785714286,1.1907315254211426,0.7276076622353226
21,1.152475357055664,0.8621651785714286,1.2061818838119507,0.7289485544006831
22,1.1421244144439697,0.7944568452380952,1.1786048412322998,0.7258457642633183
23,1.1341428756713867,0.7996651785714286,1.204935073852539,0.6923181920522358
24,1.1266731023788452,0.8257068452380952,1.1665992736816406,0.7328071086714709
25,1.1194308996200562,0.8465401785714286,1.1817830801010132,0.7194237237676969
26,1.1082932949066162,0.8152901785714286,1.1755465269088745,0.7434856121026338
27,1.101985216140747,0.8121651785714286,1.16338312625885,0.7280504777268975
28,1.0953878164291382,0.8309151785714286,1.1217641830444336,0.7267733884843824
29,1.0852898359298706,0.8309151785714286,1.1355210542678833,0.7170231315178138
30,1.0772840976715088,0.7840401785714286,1.1277645826339722,0.7301320921001782
31,1.0761727094650269,0.8311298076923077,1.0839506387710571,0.7271108029086764
32,1.0744154453277588,0.8215401785714286,1.096619963645935,0.7346289199702333
33,1.0774116516113281,0.775359623015873,1.1549737453460693,0.7362203210829109
34,1.0588383674621582,0.7996651785714286,1.0932371616363525,0.7136661604746724
35,1.0391671657562256,0.8465401785714286,1.0466206073760986,0.7230220462489979
36,1.0290359258651733,0.8152901785714286,1.0641852617263794,0.7228080405607012
37,1.0195361375808716,0.8152901785714286,1.0503655672073364,0.729907954043593
38,1.0084972381591797,0.7840401785714286,1.011121392250061,0.73797495025332
39,0.996661901473999,0.7766927083333334,1.0014930963516235,0.7350961981281142
40,0.9889467358589172,0.8160511363636364,0.9584572315216064,0.7381711152322862
41,0.9840263724327087,0.7923177083333334,0.9287974834442139,0.7389410210553836
42,0.9807989597320557,0.8004261363636364,0.9146999716758728,0.747968597104236
43,0.9713386297225952,0.8004261363636364,0.9011358618736267,0.7388429356957735
44,0.9596567153930664,0.8033854166666666,0.8909968733787537,0.7404228626967994
45,0.9566042423248291,0.7691761363636364,0.8600056767463684,0.742812058902485
46,0.9473301768302917,0.7691761363636364,0.899255096912384,0.7509591472357438
47,0.9423351883888245,0.779592803030303,0.8599121570587158,0.734735049229731
48,0.9345868825912476,0.7960069444444444,0.8195109963417053,0.7437425434100974
49,0.9326589107513428,0.77734375,0.8206759095191956,0.7334608604555423
50,0.9278689622879028,0.7946428571428571,0.7814632058143616,0.7516704237448925
51,0.9325127601623535,0.78515625,0.8457960486412048,0.730207232024609
52,0.9427889585494995,0.80546875,0.9024729132652283,0.7264356850793032
53,0.9532765746116638,0.7279829545454546,0.89018714427948,0.7424142945641176
54,0.93417888879776,0.7848011363636364,0.8793318867683411,0.7476477718499001
55,0.9139308929443359,0.7848011363636364,0.7354776859283447,0.742503967171521
56,0.8987274765968323,0.7691761363636364,0.8205735087394714,0.7351289593975772
57,0.8855672478675842,0.83203125,0.7268278002738953,0.7455491440198891
58,0.8773357272148132,0.8168402777777778,0.739812433719635,0.7481954289800041
59,0.8715180158615112,0.8246527777777778,0.7294127941131592,0.7494780583876337
60,0.8622974157333374,0.7960069444444444,0.7150337100028992,0.7532834974324344
61,0.8562865257263184,0.8408203125,0.7037563323974609,0.7511384744097517
62,0.8507585525512695,0.8173828125,0.6721306443214417,0.7502729662969029
63,0.8471555709838867,0.8337053571428571,0.6755334138870239,0.749220647358946
64,0.8410295248031616,0.8012152777777778,0.6854799389839172,0.7596664540148589
65,0.8330533504486084,0.8330078125,0.6757358908653259,0.7498952821869497
66,0.8286920785903931,0.8486328125,0.6634848117828369,0.7562272144718958
67,0.8237895965576172,0.8736979166666666,0.6757484078407288,0.7502401927268957
68,0.8172844648361206,0.8502604166666666,0.681609034538269,0.7575433136603356
69,0.8148598074913025,0.8441220238095237,0.639646053314209,0.7494806538024631
70,0.8188713788986206,0.8408203125,0.6249594688415527,0.7573333138492716
71,0.8123595118522644,0.87109375,0.7624652981758118,0.7546294697225554
72,0.8044831156730652,0.8168402777777778,0.6665923595428467,0.7537435992888125
73,0.7960456013679504,0.8450520833333333,0.6544548273086548,0.7506412421306042
74,0.7898462414741516,0.8763020833333333,0.6490954160690308,0.7544228820824571
75,0.7855872511863708,0.875,0.6102932095527649,0.7534814746915819
76,0.778933048248291,0.8606770833333333,0.6305559873580933,0.7446227687140812
77,0.7715142965316772,0.8997395833333333,0.6503233909606934,0.7540218375989658
78,0.7662805914878845,0.8815104166666666,0.662336528301239,0.7521503548985826
79,0.7633593678474426,0.8815104166666666,0.6473293900489807,0.7589395877959714
80,0.7575221657752991,0.8502604166666666,0.6473121047019958,0.7524185830258534
81,0.7537874579429626,0.8841145833333333,0.6362466812133789,0.7510631311163233
82,0.7566741704940796,0.8815104166666666,0.706230640411377,0.7474650103639476
83,0.7594008445739746,0.8424479166666666,0.6331941485404968,0.7556421513868331
84,0.7715612649917603,0.8324652777777778,0.7114798426628113,0.7524255275851026
85,0.7687736749649048,0.8324652777777778,0.6592752933502197,0.7466660875570461
86,0.7569813132286072,0.8623798076923077,0.6509893536567688,0.7627533649696775
87,0.7371703386306763,0.8684895833333333,0.641190230846405,0.7524798610569896
88,0.7243138551712036,0.8962053571428571,0.6105464696884155,0.7539344397722065
89,0.717758297920227,0.8893229166666666,0.6153345704078674,0.7542819383466557
90,0.7116079330444336,0.8971354166666666,0.5982752442359924,0.7583974486900025
91,0.7070972919464111,0.8893229166666666,0.6501442193984985,0.7520827256864498
92,0.7006459832191467,0.8919270833333333,0.6263315677642822,0.7621924134113859
93,0.6962830424308777,0.9010416666666666,0.6178550124168396,0.7541830657522153
94,0.6951169967651367,0.9049479166666666,0.5920484662055969,0.7541803440517989
95,0.6928569078445435,0.8997395833333333,0.6023569703102112,0.7580690290796679
96,0.6852855682373047,0.8841145833333333,0.6598076224327087,0.7575273245929284
97,0.6781721115112305,0.9166666666666666,0.6327550411224365,0.7558612027583667
98,0.6737121939659119,0.921875,0.587699294090271,0.7563161597071181
99,0.6690082550048828,0.9322916666666666,0.6406545042991638,0.7584857149351839
100,0.6647777557373047,0.9309895833333333,0.6137589812278748,0.7568958335137421
101,0.6670991778373718,0.8997395833333333,0.6227552890777588,0.7607477062929199
102,0.662642240524292,0.9075520833333333,0.5967419743537903,0.7584764829667321
103,0.6596161127090454,0.8841145833333333,0.6986101865768433,0.7618146300770422
104,0.6504738926887512,0.9114583333333333,0.694485604763031,0.7507213432745357
105,0.6489000916481018,0.9257812499999999,0.5676401257514954,0.7601195888429935
106,0.6469563245773315,0.9427083333333333,0.6437437534332275,0.7561566542860877
107,0.6368226408958435,0.9414062499999999,0.6389315724372864,0.7572599739044783
108,0.6380020976066589,0.8936011904761904,0.6657665967941284,0.7610617867488441
109,0.6535155773162842,0.9053819444444444,0.6272689700126648,0.7541597029185689
110,0.6485580205917358,0.8675595238095237,0.6093311309814453,0.7498276718356514
111,0.6355794668197632,0.8876953125,0.6183319687843323,0.7569717664132568
112,0.6228305101394653,0.9466145833333333,0.6667938828468323,0.7544965705426706
113,0.6132571697235107,0.9036458333333334,0.6476801037788391,0.7607891353458734
114,0.6093778610229492,0.9427083333333333,0.5981907844543457,0.764471762477082
115,0.6104722619056702,0.9427083333333334,0.6124820113182068,0.7606256906345567
116,0.6026027202606201,0.9270833333333333,0.6364799737930298,0.7590915930011684
117,0.6007016897201538,0.9166666666666666,0.6252086162567139,0.7601905342818469
118,0.606372058391571,0.9322916666666666,0.5568782091140747,0.7666620273934107
119,0.5929052233695984,0.9557291666666666,0.7127512097358704,0.750925404382852
120,0.5865621566772461,0.9244791666666666,0.6963741183280945,0.75480959151172
121,0.5787111520767212,0.9505208333333334,0.6832765936851501,0.7632949226699233
122,0.5735822319984436,0.9401041666666666,0.5946754813194275,0.7559671391453313
123,0.5686041712760925,0.9505208333333334,0.6612273454666138,0.7518979100096126
124,0.5641284584999084,0.9348958333333333,0.6422392129898071,0.7635070258740477
125,0.5614487528800964,0.9309895833333334,0.6685222387313843,0.730093092814725
126,0.5630524754524231,0.9322916666666666,0.6404388546943665,0.7705116681978387
127,0.5727723836898804,0.9222470238095237,0.6653351783752441,0.7302046882720648
128,0.5735921859741211,0.8981119791666666,0.6408950686454773,0.7419284796501114
129,0.5577391982078552,0.9661458333333334,0.7141140103340149,0.761974255059362
130,0.5489891171455383,0.9401041666666666,0.6174081563949585,0.7640121411619645
131,0.5408689975738525,0.9505208333333334,0.6745021939277649,0.7588844788977775
132,0.5361782908439636,0.9661458333333334,0.5878302454948425,0.7667893793558688
133,0.5315526723861694,0.9505208333333334,0.7037020325660706,0.7533948723000149
134,0.5275205373764038,0.9505208333333334,0.6205318570137024,0.7663536399573634
135,0.5218241214752197,0.9791666666666666,0.6288197636604309,0.7643146156444032
136,0.5181281566619873,0.953125,0.6283993721008301,0.7630456259002363
137,0.5150482058525085,0.9505208333333334,0.6212326884269714,0.7707960749849049
138,0.5113073587417603,0.953125,0.6101752519607544,0.7654206535190579
139,0.5084858536720276,0.9713541666666666,0.6453946232795715,0.764665171314108
140,0.505228579044342,0.953125,0.639971911907196,0.7647902071660939
141,0.5019325613975525,0.9791666666666666,0.6204382181167603,0.7659599413588778
142,0.49887916445732117,0.96875,0.6309639811515808,0.7646132261158857
143,0.4947693347930908,0.96875,0.642370879650116,0.7680516538229308
144,0.4914202392101288,0.953125,0.608301043510437,0.764598000502256
145,0.48809877038002014,0.96875,0.6395847797393799,0.7666672398720275
146,0.48425841331481934,0.96875,0.613728940486908,0.768710901490157
147,0.48147380352020264,0.9583333333333334,0.6295254826545715,0.7625551015178679
148,0.47787603735923767,0.96875,0.6218641996383667,0.770940517815518
149,0.47688257694244385,0.9583333333333334,0.6172458529472351,0.7563022281107392
150,0.47610726952552795,0.96875,0.6067564487457275,0.7672354069295559
151,0.475658118724823,0.9505208333333334,0.6500043869018555,0.7645427956598171
152,0.4750393033027649,0.97265625,0.591212272644043,0.7611885331965124
153,0.47784096002578735,0.9765625,0.6077020168304443,0.7653742140444273
154,0.48015332221984863,0.9505208333333333,0.6280971169471741,0.7631992908588661
155,0.5322620868682861,0.8981026785714286,0.7648988366127014,0.7101586414308053
156,0.7588551640510559,0.7727864583333334,1.0188032388687134,0.4670804530379
157,0.6496683359146118,0.8361879006410257,0.8695114850997925,0.6011125473226538
158,0.5742847919464111,0.8856026785714286,0.8599704504013062,0.7478280535461388
159,0.5110287070274353,0.9215494791666666,0.8833907246589661,0.7448124791874797
160,0.4843648076057434,0.9397786458333334,0.7083716988563538,0.7619741925725975
161,0.46839115023612976,0.96484375,0.6464568376541138,0.7608573110301837
162,0.46211695671081543,0.9492187499999999,0.5586114525794983,0.7658508921141903
163,0.456679105758667,0.9622395833333334,0.6189554929733276,0.7600946654803042
164,0.46723437309265137,0.9388020833333333,0.5247547626495361,0.7609294955438574
165,0.5530476570129395,0.8621651785714286,0.655869722366333,0.7272396470091516
166,0.5187799334526062,0.937686011904762,0.7361739277839661,0.7170570133668537
167,0.4650629460811615,0.9345703125,0.7371312379837036,0.765150850922128
168,0.4473492503166199,0.9505208333333334,0.6550350785255432,0.7672531197132266
169,0.43795347213745117,0.9713541666666666,0.5869746208190918,0.7667074306701972
170,0.4306456446647644,0.9661458333333334,0.5847204327583313,0.7662724799825867
171,0.42654067277908325,0.9713541666666666,0.571365475654602,0.7676059165420872
172,0.4222770035266876,0.9609375,0.5662285685539246,0.7679157170646536
173,0.42085543274879456,0.9713541666666666,0.5512319803237915,0.7676987905711312
174,0.418501615524292,0.953125,0.5526371002197266,0.7660498583370928
175,0.41537198424339294,0.9713541666666666,0.554009735584259,0.7682034548390935
176,0.41045916080474854,0.96875,0.5472014546394348,0.7663367734511355
177,0.40729835629463196,0.984375,0.5390514731407166,0.7688363891821342
178,0.4038909375667572,0.96875,0.5321255326271057,0.7661026670335184
179,0.4021248519420624,0.9765625,0.5405570268630981,0.768420215029258
180,0.4000885486602783,0.96875,0.522532045841217,0.7661530953286275
181,0.39868947863578796,0.9713541666666666,0.5339959859848022,0.7654545242976097
182,0.39607807993888855,0.984375,0.5308743119239807,0.7677110532296705
183,0.3955022096633911,0.9826388888888888,0.5572319626808167,0.7683362480702907
184,0.3939022123813629,0.96875,0.5365570187568665,0.7678746731007371
185,0.39466559886932373,0.9736328125,0.5492076277732849,0.7677940769829068
186,0.38957679271698,0.9791666666666666,0.5311374068260193,0.7682846782846787
187,0.38561272621154785,0.9609375,0.5456665754318237,0.7667024391093539
188,0.38051658868789673,0.984375,0.5600096583366394,0.766750001869683
189,0.37734338641166687,0.96875,0.5404294729232788,0.7671920844128292
190,0.3744235634803772,0.984375,0.5290084481239319,0.7660879226171781
191,0.3711237907409668,0.96875,0.5277060270309448,0.7726757004815515
192,0.36828339099884033,0.984375,0.5237826108932495,0.7712058986128136
193,0.3660546839237213,0.96875,0.5228184461593628,0.7718494138839883
194,0.36367735266685486,0.984375,0.5240117907524109,0.7695542996207889
195,0.3615061938762665,0.96875,0.5299186706542969,0.7726757004815515
196,0.35932067036628723,0.984375,0.5178569555282593,0.7678605501078906
197,0.35729190707206726,0.96875,0.5504967570304871,0.7699835822176246
198,0.3547554612159729,0.9791666666666666,0.5311722159385681,0.7711055123954059
199,0.35253581404685974,0.96875,0.531856119632721,0.7727111777111776
200,0.350443959236145,0.9791666666666666,0.547501266002655,0.7707853243092603
201,0.3482586741447449,0.984375,0.5521727204322815,0.7730502382763019
202,0.34671327471733093,0.9791666666666666,0.5223331451416016,0.7716447608734841
203,0.3450608551502228,0.96875,0.545473039150238,0.7725381617003957
204,0.3442831337451935,0.96875,0.5380791425704956,0.7721330531170959
205,0.3407137393951416,0.984375,0.525317370891571,0.767327419920505
206,0.33997076749801636,0.96875,0.5716806054115295,0.7725731493683621
207,0.3386417329311371,0.9791666666666666,0.5514232516288757,0.77154603080135
208,0.33653947710990906,0.9791666666666666,0.560326874256134,0.7686810751305432
209,0.33255434036254883,0.984375,0.5586157441139221,0.7741371266637223
210,0.3298151195049286,0.984375,0.5384801030158997,0.7718282382511106
211,0.32788342237472534,0.9791666666666666,0.5422921776771545,0.771300755981607
212,0.32562828063964844,0.96875,0.5613827109336853,0.7716868164341568
213,0.3232743740081787,0.9791666666666666,0.5274940729141235,0.7722874913699382
214,0.3215133249759674,0.984375,0.5526933073997498,0.771705705149854
215,0.3198687732219696,0.9791666666666666,0.5354182124137878,0.773266378519038
216,0.3187411427497864,0.984375,0.5630505681037903,0.7733037229712761
217,0.3169924020767212,0.9791666666666666,0.5412381291389465,0.7683241054650629
218,0.31984516978263855,0.984375,0.6020992994308472,0.773732099264014
219,0.32499757409095764,0.9791666666666666,0.5595992207527161,0.7712819917474175
220,0.31832024455070496,0.9791666666666666,0.6117932200431824,0.7706735044899938
221,0.31716784834861755,0.9791666666666666,0.6573305726051331,0.7666826814832135
222,0.35590118169784546,0.9505208333333333,0.4073683023452759,0.7653807972956912
223,0.44709160923957825,0.8938802083333334,1.0635066032409668,0.23446734633569738
224,0.40953874588012695,0.9251302083333334,0.5408503413200378,0.7577427148304812
225,0.3731178641319275,0.959280303030303,0.6544083952903748,0.7328294246468011
226,0.3845385015010834,0.9388020833333334,0.5570367574691772,0.6980041038551676
227,0.38695260882377625,0.9381594967532468,0.7781606912612915,0.7406314479452781
228,0.3501296639442444,0.9508928571428571,0.7580412030220032,0.752744129885088
229,0.31486356258392334,0.9774305555555555,0.6870400905609131,0.7597728242010161
230,0.3051755130290985,0.984375,0.6944680213928223,0.7649159941713137
231,0.30033764243125916,0.9791666666666666,0.7047269940376282,0.7602768119390464
232,0.29664379358291626,0.9791666666666666,0.6744371652603149,0.762556447197405
233,0.29270458221435547,0.9791666666666666,0.6878169178962708,0.7673954222491459
234,0.29008105397224426,0.984375,0.6836183667182922,0.7672521873319749
235,0.28828802704811096,0.9791666666666666,0.6831589341163635,0.7673893876021539
236,0.28623315691947937,0.984375,0.6748223900794983,0.7672773542454395
237,0.28423166275024414,0.9791666666666666,0.6810437440872192,0.7728328286174033
238,0.2822801470756531,0.984375,0.6654096245765686,0.7659146335343148
239,0.28073784708976746,0.9791666666666666,0.6966318488121033,0.7676976146391044
240,0.27885109186172485,0.984375,0.6616833806037903,0.7650324114419862
241,0.27686524391174316,0.9791666666666666,0.6992306113243103,0.7600164778090309
242,0.27543026208877563,0.9791666666666666,0.6669560670852661,0.7701493861733225
243,0.27346014976501465,0.9791666666666666,0.6883183717727661,0.7646612671213736
244,0.27298712730407715,0.9791666666666666,0.6933327913284302,0.766770249057483
245,0.27342844009399414,0.984375,0.6530398726463318,0.7685814874644663
246,0.2717830538749695,0.984375,0.7280701994895935,0.7667122893851618
247,0.26923155784606934,0.984375,0.6716824769973755,0.7654265848414786
248,0.2671473026275635,0.984375,0.6987584233283997,0.7694585679293126
249,0.26401156187057495,0.984375,0.6652390956878662,0.764574213709852
250,0.2613723874092102,0.9791666666666666,0.6573173403739929,0.7712211990137524
251,0.25946876406669617,0.984375,0.6852608919143677,0.770712854422961
252,0.2574034035205841,0.984375,0.6557031273841858,0.7694988079296591
253,0.2557605504989624,0.984375,0.6719022393226624,0.7711396365651685
254,0.2543438971042633,0.9791666666666666,0.6596787571907043,0.7687691839287585
255,0.2534918785095215,0.984375,0.6767115592956543,0.7678773821725948
256,0.2516583204269409,0.984375,0.666439950466156,0.7673475239299707
257,0.2500149607658386,0.9791666666666666,0.6749257445335388,0.7667423002529383
258,0.24810516834259033,0.984375,0.6575356125831604,0.766882206642845
259,0.2467200756072998,0.9791666666666666,0.6672657132148743,0.7615126992786566
260,0.24546891450881958,0.984375,0.6558473110198975,0.7601859699599061
261,0.24410055577754974,0.984375,0.6749109625816345,0.7583759547190396
262,0.2422596961259842,0.984375,0.6484822034835815,0.7678341654405482
263,0.2410093992948532,0.9791666666666666,0.6870907545089722,0.7521785292131036
264,0.23970042169094086,0.984375,0.64992356300354,0.7633322376008544
265,0.23884953558444977,0.9791666666666666,0.6982081532478333,0.7580091347777517
266,0.23743577301502228,0.984375,0.6693572402000427,0.7610674318786019
267,0.23687946796417236,0.9791666666666666,0.6998616456985474,0.747114318404212
268,0.23504817485809326,0.984375,0.6752163767814636,0.7603979649192413
269,0.2337179183959961,0.9791666666666666,0.7119468450546265,0.752211083833424
270,0.23265105485916138,0.984375,0.6684079170227051,0.7574040788801427
271,0.23153942823410034,0.9791666666666666,0.7182828783988953,0.7298413726738193
272,0.2300964593887329,0.984375,0.670483410358429,0.7517349961897835
273,0.22847194969654083,0.9791666666666666,0.7035799026489258,0.7214871972983674
274,0.22777767479419708,0.984375,0.687385618686676,0.7422511181686713
275,0.22609074413776398,0.9791666666666666,0.7144652605056763,0.7501424176690134
276,0.22468777000904083,0.9791666666666666,0.6827551126480103,0.74216387286866
277,0.2233218550682068,0.984375,0.6931604146957397,0.7264546854839408
278,0.22521643340587616,0.9791666666666666,0.7337188124656677,0.7497578293455953
279,0.23021778464317322,0.9774305555555555,0.6498897075653076,0.7258592363113641
280,0.24105806648731232,0.9722222222222222,0.8436421751976013,0.6493297428536788
281,0.23758606612682343,0.9700520833333333,0.9522840976715088,0.6628386064290318
282,0.23297813534736633,0.9791666666666666,0.7753120064735413,0.7332882114929986
283,0.22775033116340637,0.9752604166666666,0.6586685180664062,0.7091245855208619
284,0.22615066170692444,0.9791666666666666,0.8543283343315125,0.7647176897176896
285,0.2175937294960022,0.9791666666666666,0.6337246894836426,0.7012734625500582
286,0.21381773054599762,0.984375,0.7630590200424194,0.7210492113284667
287,0.21129366755485535,0.984375,0.7210794687271118,0.722058579718154
288,0.20913159847259521,0.9791666666666666,0.6977735757827759,0.7305842025389897
289,0.2071388065814972,0.984375,0.6911608576774597,0.7217264989738393
290,0.20563502609729767,0.9791666666666666,0.7159171104431152,0.7153856545345906
291,0.20452630519866943,0.984375,0.6945719122886658,0.7171550907721118
292,0.2034107893705368,0.9791666666666666,0.7233027815818787,0.7067445000822659
293,0.2025705873966217,1.0,0.6791603565216064,0.7047516997384016
294,0.20240245759487152,0.9791666666666666,0.7445424199104309,0.698375843030098
295,0.20094676315784454,0.984375,0.6800299882888794,0.7140500944091367
296,0.19987568259239197,1.0,0.7101445198059082,0.7065075114011282
297,0.1981177031993866,0.984375,0.6943327784538269,0.7065640742236484
298,0.19661137461662292,0.984375,0.7350311875343323,0.704949155946496
299,0.19526170194149017,0.984375,0.7234931588172913,0.7000434425700379
300,0.19429108500480652,1.0,0.7090615034103394,0.7099318353041755
301,0.19322359561920166,0.984375,0.727575957775116,0.6953470997088015
302,0.19232995808124542,0.984375,0.7235483527183533,0.7031242196534746
303,0.190983384847641,0.984375,0.7496213316917419,0.6982989695489692
304,0.1898883581161499,0.984375,0.7168634533882141,0.7181676671437308
305,0.18887493014335632,0.984375,0.74101322889328,0.6899730706645597
306,0.1884646713733673,0.9791666666666666,0.7400431036949158,0.7089036451137513
307,0.18748590350151062,1.0,0.784680187702179,0.6919825269293352
308,0.18654079735279083,0.984375,0.7158470153808594,0.7182411796241581
309,0.18595775961875916,0.984375,0.7805233001708984,0.6837540286742412
310,0.18628278374671936,0.984375,0.769781231880188,0.7257620502035396
311,0.18434792757034302,0.984375,0.786348283290863,0.6875734731186857
312,0.18329496681690216,0.984375,0.7750200629234314,0.6851615701083783
313,0.18171103298664093,1.0,0.8148663640022278,0.6792992414401987
314,0.18002130091190338,0.984375,0.7734425067901611,0.6774941783984336
315,0.17871901392936707,0.984375,0.7900416254997253,0.6891692177995367
316,0.17780347168445587,0.984375,0.7977072596549988,0.6857548253558889
317,0.17647448182106018,0.984375,0.7808292508125305,0.7023784376576927
318,0.17546233534812927,0.984375,0.7533391118049622,0.6792672280438237
319,0.17438627779483795,0.984375,0.794743537902832,0.6837540286742412
320,0.17295925319194794,0.984375,0.7903888821601868,0.6818874014086779
321,0.17201930284500122,0.984375,0.7812921404838562,0.6953034770587959
322,0.17115595936775208,0.984375,0.7831380367279053,0.6823651397853524
323,0.1708114743232727,0.984375,0.7662593126296997,0.6905605692573775
324,0.16989076137542725,0.984375,0.8324798345565796,0.6799074959713256
325,0.16898120939731598,0.984375,0.7807019352912903,0.6937736534545043
326,0.16852697730064392,0.984375,0.7986441254615784,0.6818874014086779
327,0.16742366552352905,1.0,0.8245245218276978,0.6920006038091142
328,0.16686978936195374,0.9791666666666666,0.7907602787017822,0.6952088514322553
329,0.1656438708305359,1.0,0.8052366375923157,0.6833058411249898
330,0.16478082537651062,0.984375,0.8322567343711853,0.6812747629635927
331,0.16438297927379608,1.0,0.8225275874137878,0.6811131921171812
332,0.16346080601215363,0.9791666666666666,0.7855080366134644,0.6921397869270206
333,0.16274641454219818,1.0,0.8287996053695679,0.6813205891330889
334,0.16213643550872803,0.984375,0.8670700788497925,0.6936117905931731
335,0.16133293509483337,1.0,0.8128772377967834,0.6813073399709035
336,0.1608349233865738,0.984375,0.8658515810966492,0.6790412473657151
337,0.16025668382644653,0.984375,0.8939430117607117,0.6593909634002717
338,0.15921376645565033,0.984375,0.8829091787338257,0.6963164047339577
339,0.15903891623020172,0.984375,0.8817723393440247,0.6833129968435818
340,0.15861621499061584,0.984375,0.8897308111190796,0.6793060608619117
341,0.15808884799480438,0.984375,1.0483354330062866,0.5678057238762023
342,0.15884031355381012,0.984375,0.7394223213195801,0.7063226617747891
343,0.1585194170475006,1.0,1.0509802103042603,0.5274787650784991
344,0.1579979658126831,1.0,0.9900988340377808,0.527563006585613
345,0.15881110727787018,0.9791666666666666,0.9250032305717468,0.5626966672511883
346,0.15598419308662415,1.0,0.881869375705719,0.6619357334450419
347,0.1544174700975418,0.984375,1.079059362411499,0.550508833742433
348,0.15252923965454102,1.0,0.8931743502616882,0.6452065662371512
349,0.15347431600093842,0.984375,0.9362845420837402,0.6792057400833995
350,0.1528310775756836,1.0,0.8861873745918274,0.6442533626243732
351,0.15013785660266876,0.984375,0.8996520638465881,0.6774947582460877
352,0.14698271453380585,1.0,0.9594787955284119,0.6311808992327608
353,0.14701403677463531,0.984375,0.9373658895492554,0.6531702672327669
354,0.14623770117759705,1.0,0.9005554914474487,0.6133321994691673
355,0.14453503489494324,0.9791666666666666,1.001796007156372,0.6587844725211742
356,0.14307917654514313,1.0,0.9638366103172302,0.6501393786965594
357,0.1422853320837021,0.984375,0.9403421878814697,0.6602870570623228
358,0.14141541719436646,1.0,0.9733895063400269,0.6701058877588131
359,0.14098981022834778,0.984375,0.9841012954711914,0.6360753605633923
360,0.14089132845401764,1.0,1.0202592611312866,0.6418241566845289
361,0.13940638303756714,0.984375,0.9904339909553528,0.6300628929285843
362,0.13833750784397125,1.0,0.9762240648269653,0.6379037124715315
363,0.13797518610954285,1.0,0.9899966716766357,0.6160596001220999
364,0.13740304112434387,1.0,1.0033172369003296,0.6172033578616023
365,0.13680577278137207,0.984375,1.0172380208969116,0.5855297960018704
366,0.1363811194896698,1.0,1.02341890335083,0.551249710445189
367,0.13533754646778107,1.0,0.9954700469970703,0.5737723660795467
368,0.1342787891626358,1.0,0.9832630157470703,0.5580759515799408
369,0.13376672565937042,0.984375,0.9909153580665588,0.607234878744187
370,0.1333536058664322,1.0,1.0684443712234497,0.5292468192268723
371,0.13278509676456451,0.984375,1.024374008178711,0.5995489975942102
372,0.13232436776161194,1.0,1.0456416606903076,0.5336333581213901
373,0.13147667050361633,0.984375,1.0697245597839355,0.5423822864979779
374,0.13067783415317535,1.0,0.9854861497879028,0.5951661368084238
375,0.12958799302577972,0.984375,1.0927084684371948,0.5302188736696716
376,0.12876012921333313,1.0,1.0028419494628906,0.5809904425263466
377,0.12832823395729065,1.0,1.0480049848556519,0.5440223574199637
378,0.1283012479543686,1.0,1.0165337324142456,0.6292186531947168
379,0.12783701717853546,0.984375,1.0573835372924805,0.5508174240554558
380,0.12773548066616058,0.984375,1.0055238008499146,0.6313359753918263
381,0.12715522944927216,0.984375,1.0813359022140503,0.593234020461414
382,0.12684093415737152,1.0,1.0874207019805908,0.5350116931433421
383,0.12579132616519928,0.984375,1.1346276998519897,0.5700191886029652
384,0.12474014610052109,1.0,1.0830858945846558,0.5404045567808865
385,0.1245003417134285,0.984375,1.0498683452606201,0.6071080355322375
386,0.12367076426744461,1.0,1.0626327991485596,0.552742027230059
387,0.12286883592605591,0.9791666666666666,1.1438617706298828,0.5253262470882151
388,0.12163251638412476,1.0,1.0232293605804443,0.6061403723837232
389,0.12129168212413788,0.984375,1.1142264604568481,0.5326097304488263
390,0.12040973454713821,1.0,1.065492033958435,0.5390304433057092
391,0.12050111591815948,0.984375,1.1461775302886963,0.5288723463789953
392,0.11938754469156265,1.0,1.0690970420837402,0.5408034929510993
393,0.11881353706121445,0.984375,1.125509262084961,0.5310626647616897
394,0.11799449473619461,1.0,1.062196969985962,0.531938244724149
395,0.11706319451332092,1.0,1.0698531866073608,0.554297737575663
396,0.11641333997249603,1.0,1.0881505012512207,0.5301651950787588
397,0.11626630276441574,0.984375,1.1212882995605469,0.563525989869075
398,0.11539562791585922,1.0,1.0780593156814575,0.5425765425964894
399,0.11536046117544174,1.0,1.142230749130249,0.5350195374463992
400,0.11470648646354675,1.0,1.1292214393615723,0.5286802660007446
401,0.11433941125869751,0.984375,1.1027681827545166,0.5373856307699393
402,0.11322073638439178,1.0,1.1275943517684937,0.5251341667099645
403,0.11292064189910889,1.0,1.0773504972457886,0.5406192224343821
404,0.1126442700624466,1.0,1.1963385343551636,0.5063407064271426
405,0.11453285068273544,0.984375,1.0424153804779053,0.5821794721728232
406,0.1178354024887085,1.0,1.2990531921386719,0.46952993076663285
407,0.12168264389038086,0.984375,1.3154981136322021,0.4911583456929203
408,0.12726174294948578,0.984375,0.9898971319198608,0.5064435010911074
409,0.14309558272361755,0.9700520833333334,1.1633996963500977,0.5363949013949014
410,0.275040864944458,0.9147135416666667,1.1838126182556152,0.4910276300236407
411,0.29815903306007385,0.888671875,0.7897035479545593,0.5352773475047411
412,0.2730049788951874,0.9239282852564102,1.2414960861206055,0.17395775988196208
413,0.1652660071849823,0.9710992132867132,0.8872899413108826,0.5043942454314797
414,0.13231195509433746,0.984375,1.0825761556625366,0.504887757780045
415,0.12082039564847946,0.984375,1.068383812904358,0.5018289147810424
416,0.1148672103881836,1.0,1.0850027799606323,0.5031097456030967
417,0.11217457056045532,1.0,1.0719417333602905,0.5024866398869058
418,0.11070796847343445,1.0,1.091414451599121,0.5026467068687812
419,0.10939449816942215,1.0,1.0676881074905396,0.509214919487526
420,0.10851970314979553,1.0,1.0874907970428467,0.5086471485075209
421,0.10760314017534256,1.0,1.062129020690918,0.5162807415201033
422,0.10685708373785019,1.0,1.0918059349060059,0.511791821997939
423,0.10606972128152847,1.0,1.0708591938018799,0.5162693758172483
424,0.10522428154945374,1.0,1.097468376159668,0.5145343931580635
425,0.10432851314544678,1.0,1.07521390914917,0.5198154751080285
426,0.1036250963807106,1.0,1.095794439315796,0.5180070385190066
427,0.1029239147901535,1.0,1.0852411985397339,0.5233687185548889
428,0.1023474857211113,1.0,1.1013829708099365,0.5172829898627773
429,0.10195519775152206,1.0,1.0894861221313477,0.5319860419328505
430,0.10142379254102707,1.0,1.106869101524353,0.5222723464478785
431,0.1007545068860054,1.0,1.1012742519378662,0.5313754970403908
432,0.10024288296699524,1.0,1.1080526113510132,0.5294486512305662
433,0.099649578332901,1.0,1.1043074131011963,0.5311856258398813
434,0.09901741147041321,1.0,1.1207318305969238,0.5263488829268971
435,0.09834197163581848,1.0,1.114032506942749,0.5312217008759563
436,0.09785298258066177,1.0,1.123616099357605,0.5279679363190003
437,0.0973832756280899,1.0,1.1091374158859253,0.5365352210830935
438,0.09701705724000931,1.0,1.1250460147857666,0.5263488829268971
439,0.09666230529546738,1.0,1.123541235923767,0.5296247310609014
440,0.09627233445644379,1.0,1.1207984685897827,0.5298798279472038
441,0.09582532942295074,1.0,1.1421905755996704,0.5225008708785305
442,0.0953088030219078,1.0,1.129694938659668,0.5281219325722871
443,0.09502669423818588,1.0,1.131883144378662,0.5206644980315194
444,0.09455063939094543,1.0,1.1340636014938354,0.5317998854966941
445,0.0938851535320282,1.0,1.1477035284042358,0.5157235744292481
446,0.09328044950962067,1.0,1.1342500448226929,0.5263618723015886
447,0.09284530580043793,1.0,1.1317697763442993,0.5281349219469786
448,0.09254863858222961,1.0,1.140620470046997,0.5263911885986354
449,0.09206575155258179,1.0,1.1384432315826416,0.5245888226561984
450,0.09183955937623978,1.0,1.1460307836532593,0.5348411040299339
451,0.09114255011081696,1.0,1.1479727029800415,0.5209582924299235
452,0.090628981590271,1.0,1.133615255355835,0.5404573824520633
453,0.09017220139503479,1.0,1.13606595993042,0.5281349219469786
454,0.09008371829986572,1.0,1.1603611707687378,0.5286654632798249
455,0.08983083069324493,1.0,1.1741909980773926,0.5139561535128911
456,0.08934126794338226,1.0,1.1366595029830933,0.5334259272379839
457,0.08867443352937698,1.0,1.1281927824020386,0.537000170173929
458,0.08880073577165604,1.0,1.1579066514968872,0.5254493482286035
459,0.08793426305055618,1.0,1.1629084348678589,0.5155817737555328
460,0.08733604103326797,1.0,1.1431868076324463,0.5342747131709898
461,0.08700290322303772,1.0,1.1655755043029785,0.5174966240746381
462,0.08713341504335403,0.984375,1.1701974868774414,0.5270407089954963
463,0.08648854494094849,1.0,1.2132971286773682,0.4997717563497705
464,0.0860002189874649,1.0,1.1711554527282715,0.5175816323156749
465,0.08517055213451385,1.0,1.1636346578598022,0.5228942865644993
466,0.08494657278060913,1.0,1.1716617345809937,0.516544216717089
467,0.08438528329133987,1.0,1.1798120737075806,0.5174502953049053
468,0.08400285243988037,1.0,1.1649242639541626,0.5303901865471013
469,0.08369709551334381,1.0,1.180095911026001,0.515699555566577
470,0.08335503935813904,1.0,1.1721097230911255,0.5201367530223913
471,0.08297926932573318,1.0,1.1971137523651123,0.5051702847979443
472,0.0828724056482315,1.0,1.1940146684646606,0.5128398832255215
473,0.08246252685785294,1.0,1.2167822122573853,0.49969717569008354
474,0.08189636468887329,1.0,1.1938843727111816,0.5074527319607107
475,0.08153185248374939,1.0,1.1954935789108276,0.5068117629021885
476,0.08138331770896912,1.0,1.1842235326766968,0.5165990968251607
477,0.08097972720861435,1.0,1.1866649389266968,0.5077338485982104
478,0.08060339093208313,1.0,1.1942757368087769,0.5053203415969374
479,0.0801563560962677,1.0,1.201231598854065,0.5034028638815873
480,0.08029808104038239,1.0,1.1818983554840088,0.5110129030740733
481,0.08044920116662979,1.0,1.2144821882247925,0.4943738782723712
482,0.0806429386138916,0.984375,1.1924400329589844,0.5004012875422451
483,0.08037411421537399,1.0,1.2128647565841675,0.4935906460396709
484,0.0791599452495575,1.0,1.209080457687378,0.49772222581398123
485,0.07851198315620422,1.0,1.2170143127441406,0.49242069125712745
486,0.07801677286624908,1.0,1.1941643953323364,0.5001311626710563
487,0.07750627398490906,1.0,1.2256909608840942,0.4925764850299426
488,0.07726412266492844,1.0,1.2081958055496216,0.4940546844802166
489,0.07721460610628128,1.0,1.2191591262817383,0.49268313074829034
490,0.07674171775579453,1.0,1.194528341293335,0.4924020190310085
491,0.07620310038328171,1.0,1.2091164588928223,0.49249205409444785
492,0.07578911632299423,1.0,1.1950534582138062,0.4974108867393442
493,0.0754779577255249,1.0,1.2093249559402466,0.4950569500436523
494,0.07524840533733368,1.0,1.2220031023025513,0.4926078218963858
495,0.07496418058872223,1.0,1.2245726585388184,0.49220799024655415
496,0.0749894306063652,1.0,1.239567756652832,0.4902896847045785
497,0.0746174156665802,1.0,1.262349247932434,0.4924015048682604
498,0.07401714473962784,1.0,1.226362943649292,0.49283967977452026
499,0.07345829159021378,1.0,1.234913945198059,0.4917181221392214
500,0.07312333583831787,1.0,1.2388393878936768,0.49141201735616635
501,0.0729895532131195,1.0,1.2694205045700073,0.4920321195254707
502,0.07261224091053009,1.0,1.2456642389297485,0.4915056441785166
503,0.07207924127578735,1.0,1.2638508081436157,0.4920747460774058
504,0.07158640772104263,1.0,1.2355659008026123,0.4920598082965105
505,0.07130404561758041,1.0,1.2552434206008911,0.4920598082965105
506,0.07110399007797241,1.0,1.2502812147140503,0.491652699644721
507,0.07091272622346878,1.0,1.272551417350769,0.492158555097385
508,0.07055188715457916,1.0,1.2703403234481812,0.4902294381150766
509,0.07034525275230408,1.0,1.280846118927002,0.4917256295713744
510,0.07014549523591995,1.0,1.2430362701416016,0.4901758298832769
511,0.06976473331451416,1.0,1.2822155952453613,0.4909585772285242
512,0.06975939124822617,1.0,1.2446516752243042,0.49064115209062037
513,0.06927952915430069,1.0,1.2733460664749146,0.49047218197484166
514,0.06890551000833511,1.0,1.2311955690383911,0.49017332155630045
515,0.0686042308807373,1.0,1.2874619960784912,0.49170706288392474
516,0.06960487365722656,1.0,1.2519840002059937,0.489695274681977
517,0.07277795672416687,1.0,1.3416730165481567,0.4375353008398223
518,0.07965978980064392,0.984375,1.24226975440979,0.4918095057523251
519,0.07975732535123825,1.0,1.1789848804473877,0.49198159627016025
520,0.12591205537319183,0.972470238095238,1.3422664403915405,0.4258647100535401
521,0.3147869110107422,0.8782552083333334,1.4994852542877197,0.21141770094562645
522,0.2577504813671112,0.9157552083333333,0.8351798057556152,0.500856080975762
523,0.1168617457151413,0.9657738095238095,1.1591273546218872,0.48373375245715655
524,0.08465003222227097,0.984375,0.9335553050041199,0.6352310480103037
525,0.07669956982135773,0.984375,1.0721510648727417,0.48958983294089675
526,0.07211373001337051,1.0,1.0860016345977783,0.48852438194193515
527,0.07046843320131302,1.0,1.0803135633468628,0.48967720616656796
528,0.06912679225206375,1.0,1.0879528522491455,0.49310830520936916
529,0.06829363852739334,1.0,1.081223726272583,0.4960331655145484
530,0.06744378060102463,1.0,1.0778839588165283,0.4979290902163243
531,0.06688152253627777,1.0,1.0766029357910156,0.497379828603233
532,0.06625506281852722,1.0,1.0806071758270264,0.4979264451072962
533,0.06579042226076126,1.0,1.076796293258667,0.5003384755512416
534,0.06532539427280426,1.0,1.0836211442947388,0.49967612814687296
535,0.0649804100394249,1.0,1.0775212049484253,0.5033972518812944
536,0.06456537544727325,1.0,1.091286301612854,0.49883966653913453
537,0.06408213078975677,1.0,1.0794990062713623,0.5072338585370502
538,0.06372421979904175,1.0,1.0903831720352173,0.5023234143712868
539,0.06348326802253723,1.0,1.0839463472366333,0.5071625186607457
540,0.06327277421951294,1.0,1.0898491144180298,0.5049153540509925
541,0.06271468102931976,1.0,1.0916297435760498,0.5072293663783028
542,0.062357936054468155,1.0,1.0970573425292969,0.5021759977611041
543,0.06200920045375824,1.0,1.094079613685608,0.5110578943646321
544,0.06169132515788078,1.0,1.0978343486785889,0.5054729933187381
545,0.061454854905605316,1.0,1.0975136756896973,0.5086902910262843
546,0.06117679923772812,1.0,1.1017000675201416,0.504984181992161
547,0.06104926019906998,1.0,1.1021116971969604,0.51112865004709
548,0.06069773808121681,1.0,1.1050677299499512,0.5033916682542572
549,0.06051737070083618,1.0,1.09963059425354,0.511412186611655
550,0.06014774739742279,1.0,1.1017385721206665,0.5061702919814626
551,0.05986877903342247,1.0,1.1012827157974243,0.5100115392225325
552,0.05962047725915909,1.0,1.1111327409744263,0.5067088688498267
553,0.05929331108927727,1.0,1.1040682792663574,0.5219810675927702
554,0.059118807315826416,1.0,1.136570692062378,0.4965485893145468
555,0.058678172528743744,1.0,1.0964854955673218,0.5485116193892796
556,0.05853898450732231,1.0,1.1342614889144897,0.500642115305236
557,0.058345552533864975,1.0,1.1172586679458618,0.5180843093077139
558,0.05793728306889534,1.0,1.1368255615234375,0.5051681059615459
559,0.05761132761836052,1.0,1.1050277948379517,0.5444528580166883
560,0.05736442655324936,1.0,1.140945315361023,0.5000959175116979
561,0.056988172233104706,1.0,1.1168779134750366,0.5236445981126836
562,0.05688469111919403,1.0,1.133432149887085,0.5050752319325016
563,0.056786082684993744,1.0,1.1119965314865112,0.5425753398492766
564,0.05642024427652359,1.0,1.1510642766952515,0.4960770049821469
565,0.05606619268655777,1.0,1.1272292137145996,0.5143163869227702
566,0.05585205554962158,1.0,1.1384907960891724,0.5024924448417358
567,0.05565865710377693,1.0,1.1172270774841309,0.5242404586154589
568,0.05544246360659599,1.0,1.1465764045715332,0.5034343458944526
569,0.05500255525112152,1.0,1.135603904724121,0.5053374127842216
570,0.054810378700494766,1.0,1.1409462690353394,0.5058677797773545
571,0.054835982620716095,1.0,1.1397000551223755,0.5065306393763844
572,0.05458759143948555,1.0,1.1395529508590698,0.5142250622702753
573,0.05420740693807602,1.0,1.1438071727752686,0.509393711587861
574,0.05387217178940773,1.0,1.1500964164733887,0.5033958082894255
575,0.053659629076719284,1.0,1.139797568321228,0.5059000568973977
576,0.05349545553326607,1.0,1.1583189964294434,0.49603089926228244
577,0.053328461945056915,1.0,1.1413905620574951,0.5057392887845019
578,0.0531674399971962,1.0,1.1659070253372192,0.48825256943608025
579,0.0528847835958004,1.0,1.1445810794830322,0.5005663244360056
580,0.05293023958802223,1.0,1.172698974609375,0.47662013616800863
581,0.05286790430545807,1.0,1.1359686851501465,0.5164454453151265
582,0.0522618442773819,1.0,1.1927874088287354,0.47832518102464927
583,0.051759425550699234,1.0,1.150532603263855,0.5009948114336417
584,0.051540013402700424,1.0,1.1803383827209473,0.4778243323855027
585,0.05130680650472641,1.0,1.1498116254806519,0.49454718350994975
586,0.05110463500022888,1.0,1.1830270290374756,0.47725642609951124
587,0.05089186131954193,1.0,1.1456618309020996,0.49445876129386795
588,0.05089038610458374,1.0,1.1805766820907593,0.4786881799248822
589,0.05080472305417061,1.0,1.1375443935394287,0.5040907747689666
590,0.05064476281404495,1.0,1.168167233467102,0.4845127508425383
591,0.05064880847930908,1.0,1.1679645776748657,0.48708845724803196
592,0.05023188516497612,1.0,1.1620272397994995,0.4904177205772953
593,0.05002310499548912,1.0,1.1506834030151367,0.49524906879960107
594,0.04992089420557022,1.0,1.1701375246047974,0.48149722814616436
595,0.0498218834400177,1.0,1.1732008457183838,0.4806682900432902
596,0.049861449748277664,1.0,1.1879774332046509,0.4784008480684012
597,0.049559153616428375,1.0,1.1556493043899536,0.4797839620977919
598,0.048763878643512726,1.0,1.162911295890808,0.4936631158439672
599,0.048447903245687485,1.0,1.1578537225723267,0.4884207990590971
600,0.04822327569127083,1.0,1.1709517240524292,0.4801873308921184
601,0.047978997230529785,1.0,1.1437894105911255,0.49819668363551384
602,0.047895174473524094,1.0,1.1828786134719849,0.4789658966919606
603,0.04794991761445999,1.0,1.1512051820755005,0.49120784898710446
604,0.04780244082212448,1.0,1.1927398443222046,0.47524741757454525
605,0.04712451249361038,1.0,1.1524690389633179,0.4892675808234321
606,0.04698459059000015,1.0,1.1837713718414307,0.47348669307445906
607,0.04679600149393082,1.0,1.1657376289367676,0.4848706420647912
608,0.046422988176345825,1.0,1.1861761808395386,0.475535240960773
609,0.04619746282696724,1.0,1.173215627670288,0.4770386616929171
610,0.045994825661182404,1.0,1.189630150794983,0.47341004395525677
611,0.04589686170220375,1.0,1.1959288120269775,0.4685776905324778
612,0.04593253880739212,1.0,1.225136399269104,0.47142867672122996
613,0.04553867131471634,1.0,1.174111247062683,0.4794993717866061
614,0.04531672224402428,1.0,1.219189167022705,0.4689101457053586
615,0.045180417597293854,1.0,1.1903650760650635,0.47709736038193507
616,0.04490214213728905,1.0,1.2066162824630737,0.47590246091575883
617,0.0446663573384285,1.0,1.1633678674697876,0.48286617440872776
618,0.044481195509433746,1.0,1.203160047531128,0.47232255464524975
619,0.0442359633743763,1.0,1.1633673906326294,0.4887851380626204
620,0.04409484192728996,1.0,1.208627462387085,0.47435300318279044
621,0.044048767536878586,1.0,1.191677212715149,0.4724397917881961
622,0.04390295594930649,1.0,1.2008371353149414,0.4760396518375244
623,0.04354691877961159,1.0,1.210187315940857,0.4686989896431386
624,0.04340188577771187,1.0,1.2367908954620361,0.46870461837217153
625,0.043290913105010986,1.0,1.1968917846679688,0.47527871803137783
626,0.04328378289937973,1.0,1.2166345119476318,0.4725926073532457
627,0.04295312613248825,1.0,1.180109977722168,0.476177105498914
628,0.042534422129392624,1.0,1.2110459804534912,0.4686457602681007
629,0.04249389097094536,1.0,1.1791536808013916,0.4783949871050937
630,0.042535923421382904,1.0,1.2537016868591309,0.4645459790406599
631,0.0429919958114624,1.0,1.2017370462417603,0.47661043595884023
632,0.04261954128742218,1.0,1.1952112913131714,0.48542085869213547
633,0.04209064319729805,1.0,1.180058479309082,0.4876061581247753
634,0.04177619889378548,1.0,1.2268742322921753,0.4750264273092288
635,0.041789885610342026,1.0,1.1713372468948364,0.48044807094009234
636,0.04130537807941437,1.0,1.2370160818099976,0.472832720372614
637,0.04128904268145561,1.0,1.1617165803909302,0.4822981638141214
638,0.04110642895102501,1.0,1.1933343410491943,0.48160855430358984
639,0.04127541184425354,1.0,1.1655385494232178,0.4920389716666314
640,0.040808431804180145,1.0,1.2203781604766846,0.4782763665609412
641,0.04146350175142288,1.0,1.1909358501434326,0.4756528710651051
642,0.04242497682571411,1.0,1.2276087999343872,0.4833947401101658
643,0.042288538068532944,1.0,1.2323766946792603,0.48743730609422115
644,0.043292053043842316,1.0,1.1766014099121094,0.4752000880325348
645,0.04919035732746124,0.9930555555555556,1.2239521741867065,0.4810709704991619
646,0.07462475448846817,0.9657738095238095,1.1048507690429688,0.7325545784987275
647,0.25409430265426636,0.857421875,1.219528317451477,0.44979891365529695
648,0.17448143661022186,0.9265873015873015,1.0111266374588013,0.49090511242107
649,0.10329838842153549,0.9514715608465608,0.8384562134742737,0.5889510568233974
650,0.07393351942300797,0.984375,1.0888686180114746,0.46885835697005934
651,0.05717264488339424,0.984375,1.0902451276779175,0.46484507661369384
652,0.05135310813784599,1.0,1.1433926820755005,0.4906628274536076
653,0.048800867050886154,1.0,1.1333050727844238,0.4642805652779058
654,0.04654913395643234,1.0,1.1657510995864868,0.457140390473724
655,0.04497582092881203,1.0,1.172940969467163,0.4559684979454485
656,0.0438990481197834,1.0,1.1888439655303955,0.4482446319769016
657,0.043123722076416016,1.0,1.1903433799743652,0.4570926471414062
658,0.0425284281373024,1.0,1.1936423778533936,0.4462235664584956
659,0.04201200231909752,1.0,1.2017650604248047,0.44974993813646313
660,0.041660141199827194,1.0,1.2044538259506226,0.455086065923832
661,0.041380081325769424,1.0,1.2107751369476318,0.4536210719278097
662,0.04074649512767792,1.0,1.2109582424163818,0.45837105172211573
663,0.040440432727336884,1.0,1.2130361795425415,0.4591151805247552
664,0.04000069200992584,1.0,1.2156785726547241,0.46072667482241964
665,0.03979330137372017,1.0,1.2182766199111938,0.4596755367367072
666,0.039390262216329575,1.0,1.2155168056488037,0.46355124141028403
667,0.03913500905036926,1.0,1.2192645072937012,0.4587720986657158
668,0.03888527303934097,1.0,1.221132516860962,0.46727919194674516
669,0.038800470530986786,1.0,1.2234138250350952,0.4601219111857411
670,0.03852546960115433,1.0,1.2262736558914185,0.46919283189230016
671,0.0384649857878685,1.0,1.2272045612335205,0.4699667821343354
672,0.03800792619585991,1.0,1.2296953201293945,0.47039047191972727
673,0.037743378430604935,1.0,1.231613039970398,0.4711550319263086
674,0.03741995617747307,1.0,1.2339133024215698,0.469696020586978
675,0.03718644008040428,1.0,1.2347570657730103,0.4691180372031435
676,0.03693775087594986,1.0,1.2401947975158691,0.46431883473106883
677,0.03677166625857353,1.0,1.2384655475616455,0.4673787599319513
678,0.03665795922279358,1.0,1.2457929849624634,0.4652429273838848
679,0.03683098033070564,1.0,1.2479883432388306,0.46078834975111593
680,0.03643322363495827,1.0,1.2526048421859741,0.4590879791012771
681,0.03651435673236847,1.0,1.253116250038147,0.45744597650182767
682,0.03595368564128876,1.0,1.2592962980270386,0.4566083492945195
683,0.03573717549443245,1.0,1.257757544517517,0.4459345613999869
684,0.035513631999492645,1.0,1.264493703842163,0.4521192066404832
685,0.035430848598480225,1.0,1.2598363161087036,0.44741240536453303
686,0.03519405052065849,1.0,1.2692625522613525,0.44775781743866844
687,0.03539701923727989,1.0,1.2669715881347656,0.4464459368448731
688,0.03499704599380493,1.0,1.2750661373138428,0.4454714188490783
689,0.03501606732606888,1.0,1.259296178817749,0.45802530064498165
690,0.03477872535586357,1.0,1.2775863409042358,0.4487647025944898
691,0.03466615825891495,1.0,1.2651317119598389,0.46964673919461153
692,0.034259043633937836,1.0,1.286534309387207,0.4417227458317883
693,0.034090474247932434,1.0,1.2672390937805176,0.4563172662640748
694,0.03393538296222687,1.0,1.2871546745300293,0.44376894972639636
695,0.03379270061850548,1.0,1.2727625370025635,0.45344861698585104
696,0.03368711471557617,1.0,1.2918797731399536,0.449455887394717
697,0.03379540517926216,1.0,1.2737845182418823,0.4554559752698052
698,0.03335074707865715,1.0,1.297568917274475,0.43695551296615104
699,0.033265408128499985,1.0,1.2676973342895508,0.4780579521935905
700,0.033109165728092194,1.0,1.299299716949463,0.438365553378851
701,0.03298083692789078,1.0,1.2715786695480347,0.4791345942276793
702,0.03303547948598862,1.0,1.302929162979126,0.4365024219279537
703,0.03256010264158249,1.0,1.2752083539962769,0.46958676420112583
704,0.03240207955241203,1.0,1.3005101680755615,0.4470930733962647
705,0.03216610848903656,1.0,1.2693413496017456,0.4786775453663751
706,0.03209194540977478,1.0,1.3033366203308105,0.4495197336154781
707,0.03201066702604294,1.0,1.274949312210083,0.4774786260823494
708,0.03213370218873024,1.0,1.3029106855392456,0.4420924190073125
709,0.03160123899579048,1.0,1.280450701713562,0.47109842974204674
710,0.03145171329379082,1.0,1.3073793649673462,0.4441833737578416
711,0.03135927766561508,1.0,1.2767151594161987,0.4764622886963313
712,0.03126039355993271,1.0,1.3153247833251953,0.43642585153223434
713,0.03121223673224449,1.0,1.2857304811477661,0.4798489704739704
714,0.03130806237459183,1.0,1.3267940282821655,0.42599387610025896
715,0.031154125928878784,1.0,1.2896556854248047,0.47868115680615675
716,0.03105517476797104,1.0,1.327539324760437,0.43935598089853417
717,0.031311459839344025,1.0,1.3107799291610718,0.468926633354825
718,0.030409440398216248,1.0,1.3064018487930298,0.4544004567142864
719,0.030216021463274956,1.0,1.3021100759506226,0.4578808209127359
720,0.030014129355549812,1.0,1.3184925317764282,0.44586907773077983
721,0.029964225366711617,1.0,1.3030742406845093,0.46217459402299843
722,0.029894107952713966,1.0,1.325283169746399,0.43303455409838415
723,0.0296776220202446,1.0,1.3211209774017334,0.43659066406406843
724,0.029535332694649696,1.0,1.319507122039795,0.45104716648599635
725,0.02943538874387741,1.0,1.3214335441589355,0.45340801190535207
726,0.029780857264995575,1.0,1.312721848487854,0.45004362904628875
727,0.029266906902194023,1.0,1.3257468938827515,0.437038330070245
728,0.02913021668791771,1.0,1.3136266469955444,0.4628737682727045
729,0.028996460139751434,1.0,1.3288811445236206,0.4223001845475252
730,0.028902992606163025,1.0,1.3075957298278809,0.46911196959069296
731,0.028811974450945854,1.0,1.333206295967102,0.4188118687852734
732,0.02877798303961754,1.0,1.298876166343689,0.4682811573769023
733,0.028921712189912796,1.0,1.3577741384506226,0.38692299180331147
734,0.028792984783649445,1.0,1.2883023023605347,0.4697881856126539
735,0.0288112573325634,1.0,1.3533369302749634,0.37344157664636446
736,0.028276637196540833,1.0,1.2857434749603271,0.46273486413114107
737,0.028031423687934875,1.0,1.3518747091293335,0.37596731971732045
738,0.02791336551308632,1.0,1.2900012731552124,0.4555242457503099
739,0.0276553425937891,1.0,1.3327641487121582,0.41134239972005976
740,0.027479585260152817,1.0,1.3040913343429565,0.43872389578506615
741,0.027284281328320503,1.0,1.3266475200653076,0.4433976966689734
742,0.02726682275533676,1.0,1.3041930198669434,0.441501673562844
743,0.02706669270992279,1.0,1.3225842714309692,0.44134084394722695
744,0.027029888704419136,1.0,1.3034870624542236,0.4442087404321448
745,0.026767991483211517,1.0,1.31631600856781,0.425812095705713
746,0.026699982583522797,1.0,1.2886875867843628,0.4679308501781908
747,0.026628568768501282,1.0,1.3280833959579468,0.39039695086237697
748,0.02660527266561985,1.0,1.2964541912078857,0.4375685927547633
749,0.026583846658468246,1.0,1.3389458656311035,0.3801243835951288
750,0.026531103998422623,1.0,1.2939969301223755,0.4278879591645554
751,0.02663585916161537,1.0,1.3274924755096436,0.441806675397101
752,0.026660919189453125,1.0,1.302354097366333,0.398904518944413
753,0.026424936950206757,1.0,1.3564491271972656,0.32959543132858754
754,0.026575464755296707,1.0,1.292626142501831,0.47549778088341926
755,0.026409849524497986,1.0,1.3620548248291016,0.30497210269373415
756,0.025988169014453888,1.0,1.3191282749176025,0.38523524987620794
757,0.025694498792290688,1.0,1.3590290546417236,0.34374179209285605
758,0.02555031329393387,1.0,1.3056052923202515,0.3892863357092086
759,0.025367431342601776,1.0,1.3506075143814087,0.35909126236253924
760,0.02569316327571869,1.0,1.2974878549575806,0.41959414600372086
761,0.025449469685554504,1.0,1.3665733337402344,0.2325084417814916
762,0.025462087243795395,1.0,1.2983406782150269,0.4035591757533254
763,0.025394873693585396,1.0,1.3754104375839233,0.24252869011734257
764,0.025242004543542862,1.0,1.3104718923568726,0.4135142964797226
765,0.02493678592145443,1.0,1.3760361671447754,0.3117287283244735
766,0.024878554046154022,1.0,1.297891616821289,0.40996151405725917
767,0.024575570598244667,1.0,1.3564443588256836,0.3614929770780837
768,0.024493059143424034,1.0,1.2942817211151123,0.4123307863334464
769,0.024301985278725624,1.0,1.3264755010604858,0.3987870782684618
770,0.024122552946209908,1.0,1.3041499853134155,0.40971989053106117
771,0.023906324058771133,1.0,1.3472161293029785,0.3625384400207097
772,0.02400224842131138,1.0,1.3184919357299805,0.4008791686052328
773,0.02391127124428749,1.0,1.3766298294067383,0.27680506582988823
774,0.023626359179615974,1.0,1.323048710823059,0.3706999801813634
775,0.023434126749634743,1.0,1.3549970388412476,0.3762248927851769
776,0.023336749523878098,1.0,1.3551065921783447,0.2791043803189191
777,0.023124581202864647,1.0,1.353898048400879,0.3610960839462613
778,0.02302674949169159,1.0,1.3416707515716553,0.35223406010196817
779,0.022902563214302063,1.0,1.3561290502548218,0.32642447928352225
780,0.02278616651892662,1.0,1.3281002044677734,0.4023292351528174
781,0.02274392358958721,1.0,1.339762568473816,0.37227302757001335
782,0.02268717996776104,1.0,1.3521556854248047,0.34964481030527145
783,0.022556740790605545,1.0,1.3730114698410034,0.2701445325425826
784,0.0224170982837677,1.0,1.3519443273544312,0.36152058261544084
785,0.022284137085080147,1.0,1.36702561378479,0.3039482045732047
786,0.022354502230882645,1.0,1.3697909116744995,0.2920767540182437
787,0.022195909172296524,1.0,1.3756763935089111,0.27407777128965105
788,0.022545140236616135,1.0,1.398072600364685,0.12396870269210693
789,0.02203727699816227,1.0,1.3625547885894775,0.2687225960275609
790,0.021914849057793617,1.0,1.4138869047164917,0.17736511223213366
791,0.021661654114723206,1.0,1.3770462274551392,0.26279261682630517
792,0.021690519526600838,1.0,1.4111865758895874,0.2036500320010961
793,0.02162153832614422,1.0,1.3812196254730225,0.2606332231598192
794,0.021699419245123863,1.0,1.419660210609436,0.07011591983666451
795,0.021625179797410965,1.0,1.3862029314041138,0.2571334969207311
796,0.021427731961011887,1.0,1.4173047542572021,0.16479491548640496
797,0.021288886666297913,1.0,1.3864545822143555,0.266502088337195
798,0.021190669387578964,1.0,1.3923383951187134,0.13581874734800262
799,0.02111755684018135,1.0,1.379111409187317,0.2504376956770577
800,0.0210830420255661,1.0,1.394708514213562,0.1691281585829459
801,0.021028218790888786,1.0,1.3468241691589355,0.3401675586693322
802,0.020951323211193085,1.0,1.4008961915969849,0.16217288473937425
803,0.02088809199631214,1.0,1.3315232992172241,0.36699681409344564
804,0.02087516151368618,1.0,1.3985793590545654,0.2350609477205225
805,0.02100277878344059,1.0,1.3370846509933472,0.36441102337378967
806,0.021087031811475754,1.0,1.3985261917114258,0.08816528083815317
807,0.02084342949092388,1.0,1.3231364488601685,0.4071798871931856
808,0.02059992402791977,1.0,1.3972660303115845,0.08118838755806843
809,0.020596954971551895,1.0,1.303465723991394,0.43359490588214034
810,0.02045593038201332,1.0,1.4214297533035278,0.16538705138439191
811,0.020164981484413147,1.0,1.2965086698532104,0.388999824053016
812,0.020063113421201706,1.0,1.3413317203521729,0.30255068267036367
813,0.019854716956615448,1.0,1.31754469871521,0.35534672413218527
814,0.019980888813734055,1.0,1.3271780014038086,0.4296120270588357
815,0.02005375362932682,1.0,1.3753061294555664,0.23496489080265712
816,0.01985100470483303,1.0,1.328717589378357,0.36092474687776105
817,0.019783666357398033,1.0,1.3388060331344604,0.33151947589447606
818,0.019813809543848038,1.0,1.3781323432922363,0.23559816086855137
819,0.021182969212532043,1.0,1.367990493774414,0.24555780639113964
820,0.024544958025217056,1.0,1.4242818355560303,0.4275033042541902
821,0.031158898025751114,0.984375,1.3755489587783813,0.2845958439708439
822,0.056288942694664,0.9722222222222222,1.3409900665283203,0.45925139183117936
823,0.5114572644233704,0.7526041666666666,0.6532197594642639,0.6412105988967696
824,0.5814366936683655,0.6628472222222221,1.1361085176467896,0.48354678935131085
825,0.14665305614471436,0.9419070512820512,1.0121526718139648,0.3531899739346548
826,0.08944189548492432,0.953125,0.9001017808914185,0.580895390070922
827,0.05992535501718521,0.9826388888888888,0.8726483583450317,0.5340080772261623
828,0.04286109656095505,1.0,0.8293140530586243,0.5329125858381176
829,0.037037257105112076,1.0,0.8608439564704895,0.5289844365642238
830,0.032858166843652725,1.0,0.8798153400421143,0.5296936564223798
831,0.03023694083094597,1.0,0.8956820964813232,0.534618794326241
832,0.028646526858210564,1.0,0.9054896235466003,0.5417109929078013
833,0.027549542486667633,1.0,0.9173677563667297,0.5470301418439716
834,0.02662336826324463,1.0,0.9277844429016113,0.5470301418439716
835,0.025847898796200752,1.0,0.9409748911857605,0.5523492907801418
836,0.02520342543721199,1.0,0.9460352659225464,0.5505762411347518
837,0.02463146485388279,1.0,0.9544405937194824,0.5523492907801418
838,0.02413901686668396,1.0,0.9581681489944458,0.5505762411347518
839,0.023702727630734444,1.0,0.9647823572158813,0.5558953900709219
840,0.023311402648687363,1.0,0.9673758149147034,0.5594414893617021
841,0.022982874885201454,1.0,0.9714694023132324,0.5587322695035462
842,0.022693084552884102,1.0,0.9750630855560303,0.5587322695035462
843,0.02247975952923298,1.0,0.9775127172470093,0.5605053191489362
844,0.022173283621668816,1.0,0.9806119799613953,0.5605053191489362
845,0.02190259099006653,1.0,0.9811019897460938,0.5640514184397163
846,0.021706614643335342,1.0,0.9859481453895569,0.5640514184397163
847,0.02152979001402855,1.0,0.9833686351776123,0.5640514184397163
848,0.02130969427525997,1.0,0.9855202436447144,0.5658244680851063
849,0.02111942507326603,1.0,0.9899579286575317,0.5693705673758865
850,0.02094101533293724,1.0,0.9910099506378174,0.5729166666666666
851,0.020770352333784103,1.0,0.991572916507721,0.5729166666666666
852,0.02067037858068943,1.0,0.9940566420555115,0.5729166666666666
853,0.02058478258550167,1.0,0.9928997755050659,0.5729166666666666
854,0.020396195352077484,1.0,0.9931521415710449,0.5729166666666666
855,0.02025497332215309,1.0,0.9980207681655884,0.5729166666666666
856,0.020110860466957092,1.0,0.9986361861228943,0.5746897163120568
857,0.019994109869003296,1.0,0.9990679621696472,0.5746897163120568
858,0.0198513250797987,1.0,1.00145423412323,0.5764627659574468
859,0.019674915820360184,1.0,1.0046095848083496,0.5746897163120568
860,0.019575446844100952,1.0,1.0061817169189453,0.5764627659574468
861,0.019445693120360374,1.0,1.009175419807434,0.5800088652482269
862,0.019387127831578255,1.0,1.010899305343628,0.5800088652482269
863,0.019325044006109238,1.0,1.0099985599517822,0.5800088652482269
864,0.019221335649490356,1.0,1.0110158920288086,0.5800088652482269
865,0.019267570227384567,1.0,1.009399175643921,0.5800088652482269
866,0.019337385892868042,1.0,1.0163425207138062,0.5800088652482269
867,0.019060885533690453,1.0,1.0145525932312012,0.5800088652482269
868,0.01883496530354023,1.0,1.0181264877319336,0.5800088652482269
869,0.018683895468711853,1.0,1.0179520845413208,0.5800088652482269
870,0.0186136644333601,1.0,1.0155620574951172,0.5800088652482269
871,0.018470603972673416,1.0,1.0181299448013306,0.5800088652482269
872,0.018433697521686554,1.0,1.016300082206726,0.5800088652482269
873,0.018338117748498917,1.0,1.0155699253082275,0.5800088652482269
874,0.01841657981276512,1.0,1.0203160047531128,0.5800088652482269
875,0.018215781077742577,1.0,1.0182403326034546,0.5800088652482269
876,0.018222417682409286,1.0,1.0189425945281982,0.5800088652482269
877,0.018027445301413536,1.0,1.0156373977661133,0.5800088652482269
878,0.01805315725505352,1.0,1.0189025402069092,0.5800088652482269
879,0.017865944653749466,1.0,1.016437292098999,0.5800088652482269
880,0.01793024316430092,1.0,1.0159497261047363,0.5800088652482269
881,0.017768150195479393,1.0,1.0035480260849,0.581781914893617
882,0.01799268089234829,1.0,1.0220850706100464,0.581781914893617
883,0.01781165972352028,1.0,1.0014997720718384,0.5800088652482269
884,0.01796318218111992,1.0,1.030066967010498,0.5800088652482269
885,0.017587995156645775,1.0,1.0058104991912842,0.581781914893617
886,0.017525263130664825,1.0,1.0241596698760986,0.5782358156028369
887,0.01763109862804413,1.0,1.0088820457458496,0.5800088652482269
888,0.018031064420938492,1.0,1.0193777084350586,0.5800088652482269
889,0.017497116699814796,1.0,1.0090386867523193,0.5800088652482269
890,0.01726914756000042,1.0,1.011902093887329,0.5800088652482269
891,0.0169596616178751,1.0,1.0201624631881714,0.581781914893617
892,0.016913270577788353,1.0,1.019258737564087,0.581781914893617
893,0.016720734536647797,1.0,1.0153475999832153,0.581781914893617
894,0.01668790727853775,1.0,1.021293044090271,0.581781914893617
895,0.016628028824925423,1.0,1.015745759010315,0.581781914893617
896,0.016651663929224014,1.0,1.0247950553894043,0.581781914893617
897,0.016505716368556023,1.0,1.0218802690505981,0.5800088652482269
898,0.016480855643749237,1.0,1.0267324447631836,0.5800088652482269
899,0.01633617654442787,1.0,1.0230430364608765,0.581781914893617
900,0.016337616369128227,1.0,1.0304629802703857,0.5800088652482269
901,0.0162358395755291,1.0,1.018520712852478,0.581781914893617
902,0.016316086053848267,1.0,1.0357892513275146,0.5800088652482269
903,0.01622973382472992,1.0,1.0169082880020142,0.5800088652482269
904,0.016115620732307434,1.0,1.025043249130249,0.5800088652482269
905,0.015974313020706177,1.0,1.0224394798278809,0.5782358156028369
906,0.015971558168530464,1.0,1.027113914489746,0.5800088652482269
907,0.0158538818359375,1.0,1.027302861213684,0.5800088652482269
908,0.015887953341007233,1.0,1.0279415845870972,0.5782358156028369
909,0.015894047915935516,1.0,1.0284090042114258,0.5800088652482269
910,0.01623818464577198,1.0,1.0318050384521484,0.5782358156028369
911,0.01633811555802822,1.0,1.0176726579666138,0.5800088652482269
912,0.01620720699429512,1.0,1.0309576988220215,0.5782358156028369
913,0.01586964912712574,1.0,1.017646312713623,0.5800088652482269
914,0.016084764152765274,1.0,1.0180962085723877,0.5782358156028369
915,0.016139084473252296,1.0,1.0208308696746826,0.5800088652482269
916,0.01588284783065319,1.0,0.9994298815727234,0.5764627659574468
917,0.015605817548930645,1.0,0.9952842593193054,0.5800088652482269
918,0.015733221545815468,1.0,0.9927125573158264,0.5782358156028369
919,0.015385444276034832,1.0,0.9982895851135254,0.5764627659574468
920,0.0154156144708395,1.0,1.0007866621017456,0.5764627659574468
921,0.015208223834633827,1.0,0.9984172582626343,0.5800088652482269
922,0.015169166959822178,1.0,0.9979974031448364,0.5746897163120568
923,0.01497994177043438,1.0,0.9972473382949829,0.5782358156028369
924,0.014985070563852787,1.0,0.9953982830047607,0.5764627659574468
925,0.014863267540931702,1.0,1.008309245109558,0.5764627659574468
926,0.014956510625779629,1.0,0.9942629933357239,0.5746897163120568
927,0.014900241047143936,1.0,1.0129454135894775,0.5782358156028369
928,0.014786810614168644,1.0,1.0057951211929321,0.5729166666666666
929,0.014679805375635624,1.0,1.0022611618041992,0.5782358156028369
930,0.014649877324700356,1.0,1.0065234899520874,0.5746897163120568
931,0.014611026272177696,1.0,1.0009926557540894,0.5800088652482269
932,0.01454946305602789,1.0,1.0123603343963623,0.5729166666666666
933,0.014492619782686234,1.0,1.0044642686843872,0.5764627659574468
934,0.01442970335483551,1.0,0.9961743354797363,0.5746897163120568
935,0.014231143519282341,1.0,0.9997789859771729,0.5746897163120568
936,0.014426255598664284,1.0,0.9972289204597473,0.5746897163120568
937,0.014840771444141865,1.0,1.0119760036468506,0.5746897163120568
938,0.014974826946854591,1.0,1.0297572612762451,0.5711436170212766
939,0.014622632414102554,1.0,1.025277853012085,0.5729166666666666
940,0.014669534750282764,1.0,0.9948445558547974,0.5746897163120568
941,0.0147126829251647,1.0,1.0035207271575928,0.5746897163120568
942,0.014533909037709236,1.0,1.0201441049575806,0.5729166666666666
943,0.014251322485506535,1.0,1.0104937553405762,0.5693705673758865
944,0.014028034172952175,1.0,1.015616774559021,0.5693705673758865
945,0.013765797019004822,1.0,1.0102708339691162,0.5746897163120568
946,0.013744082301855087,1.0,1.0093715190887451,0.5746897163120568
947,0.0136383892968297,1.0,1.0061733722686768,0.5729166666666666
948,0.013628070242702961,1.0,1.0213359594345093,0.5711436170212766
949,0.013498383574187756,1.0,1.023716926574707,0.5693705673758865
950,0.0134299136698246,1.0,1.0244204998016357,0.5693705673758865
951,0.013371968641877174,1.0,1.0139431953430176,0.5729166666666666
952,0.013383407145738602,1.0,1.0278871059417725,0.5640514184397163
953,0.013458267785608768,1.0,1.0348089933395386,0.5658244680851063
954,0.013452565297484398,1.0,1.0262064933776855,0.556959219858156
955,0.0137154720723629,1.0,1.0525107383728027,0.5658244680851063
956,0.013606132939457893,1.0,0.9989777207374573,0.5622783687943262
957,0.013696014881134033,1.0,1.0527429580688477,0.5622783687943262
958,0.013404212892055511,1.0,1.008868932723999,0.5640514184397163
959,0.013150479644536972,1.0,1.0499721765518188,0.5640514184397163
960,0.013081157580018044,1.0,1.021586298942566,0.5640514184397163
961,0.012994436547160149,1.0,1.0260294675827026,0.5658244680851063
962,0.012917735613882542,1.0,1.0291063785552979,0.5622783687943262
963,0.012786606326699257,1.0,1.0170902013778687,0.5675975177304965
964,0.012782755307853222,1.0,1.0323340892791748,0.5640514184397163
965,0.012674443423748016,1.0,1.0105900764465332,0.5658244680851063
966,0.01269333716481924,1.0,1.0300081968307495,0.5587322695035462
967,0.012571662664413452,1.0,0.9984917044639587,0.5675975177304965
968,0.012490947730839252,1.0,1.0172297954559326,0.5586879432624113
969,0.01234033890068531,1.0,1.0189791917800903,0.556959219858156
970,0.012295013293623924,1.0,1.0124280452728271,0.5622783687943262
971,0.012266581878066063,1.0,1.0240846872329712,0.555186170212766
972,0.012277321889996529,1.0,1.0203630924224854,0.5640514184397163
973,0.01211012527346611,1.0,1.0272537469863892,0.555186170212766
974,0.012095213867723942,1.0,1.0206753015518188,0.5622783687943262
975,0.012071793898940086,1.0,1.0060877799987793,0.556959219858156
976,0.012196658179163933,1.0,1.0289169549942017,0.5622783687943262
977,0.012126628309488297,1.0,1.017581582069397,0.5534131205673759
978,0.012066190131008625,1.0,1.0290075540542603,0.5658244680851063
979,0.011847242712974548,1.0,1.0091277360916138,0.556959219858156
980,0.011918016709387302,1.0,1.0469717979431152,0.5658244680851063
981,0.011781083419919014,1.0,1.015479564666748,0.555186170212766
982,0.011744738556444645,1.0,1.0375216007232666,0.5658244680851063
983,0.011630631051957607,1.0,1.0162765979766846,0.5640514184397163
984,0.011659410782158375,1.0,1.0344606637954712,0.5605053191489362
985,0.011614863760769367,1.0,1.0008797645568848,0.5675975177304965
986,0.012017286382615566,1.0,1.0228875875473022,0.5675975177304965
987,0.011999010108411312,1.0,1.0032401084899902,0.5622783687943262
988,0.011959807015955448,1.0,1.048441767692566,0.5664154846335697
989,0.011597470380365849,1.0,1.0113126039505005,0.5658244680851063
990,0.011606670916080475,1.0,1.0413898229599,0.5622783687943262
991,0.011371654458343983,1.0,0.9884324073791504,0.5658244680851063
992,0.011689391918480396,1.0,1.0423381328582764,0.5605053191489362
993,0.01192962471395731,1.0,1.0178475379943848,0.5516400709219859
994,0.012495866976678371,1.0,1.0257676839828491,0.5480939716312057
995,0.012337063439190388,1.0,1.0820517539978027,0.5693705673758865
996,0.012024187482893467,1.0,1.0111311674118042,0.556959219858156
997,0.012549381703138351,1.0,1.1062790155410767,0.5746897163120568
998,0.01297436747699976,1.0,1.0849812030792236,0.5835549645390071
999,0.02434910647571087,0.9970238095238095,1.0661345720291138,0.5148231496635752
