,loss,recall,val_loss,val_recall
0,0.7085909843444824,0.6388528138528138,0.7432883381843567,0.3125
1,0.19637107849121094,0.9344655344655345,0.5703659653663635,0.3125
2,0.1112809032201767,0.9316017316017317,0.3263792097568512,0.8966545359402502
3,0.054248273372650146,1.0,0.2634868621826172,0.9061791383219955
4,0.026117343455553055,1.0,0.25188571214675903,0.8899350649350649
5,0.012851676903665066,1.0,0.24851664900779724,0.8899350649350649
6,0.007437724154442549,1.0,0.27205032110214233,0.8871315192743764
7,0.004926773253828287,1.0,0.2904585897922516,0.8871315192743764
8,0.003633123356848955,1.0,0.2974792420864105,0.8871315192743764
9,0.002836760366335511,1.0,0.3031781315803528,0.8964285714285715
10,0.0023320114705711603,1.0,0.31016039848327637,0.8964285714285715
11,0.001980637898668647,1.0,0.31674924492836,0.9066017316017315
12,0.0017224327893927693,1.0,0.32162556052207947,0.9066017316017315
13,0.0015231686411425471,1.0,0.32534074783325195,0.9066017316017315
14,0.0013637329684570432,1.0,0.328988254070282,0.9066017316017315
15,0.0012322289403527975,1.0,0.3327351212501526,0.8973046794475366
16,0.0011214336846023798,1.0,0.33632034063339233,0.8973046794475366
17,0.0010263497242704034,1.0,0.3396749794483185,0.8973046794475366
18,0.0009440304129384458,1.0,0.3426697850227356,0.8973046794475366
19,0.0008720559417270124,1.0,0.34548407793045044,0.8973046794475366
20,0.000808531476650387,1.0,0.3482981026172638,0.8973046794475366
21,0.0007521191728301346,1.0,0.3509409427642822,0.8973046794475366
22,0.0007017944008111954,1.0,0.35347145795822144,0.8973046794475366
23,0.0006566172814927995,1.0,0.35596415400505066,0.8973046794475366
24,0.0006159075419418514,1.0,0.3582838475704193,0.8973046794475366
25,0.0005791056319139898,1.0,0.36045536398887634,0.8973046794475366
26,0.000545673246961087,1.0,0.36256495118141174,0.8973046794475366
27,0.00051521958084777,1.0,0.36464953422546387,0.8973046794475366
28,0.0004873572906944901,1.0,0.3667125403881073,0.8973046794475366
29,0.00046182298683561385,1.0,0.36865153908729553,0.8973046794475366
30,0.00043835988617502153,1.0,0.37052515149116516,0.8973046794475366
31,0.00041672351653687656,1.0,0.3724038302898407,0.8973046794475366
32,0.000396741961594671,1.0,0.37423545122146606,0.8973046794475366
33,0.0003782388230320066,1.0,0.37602001428604126,0.8973046794475366
34,0.0003610389248933643,1.0,0.37770506739616394,0.8973046794475366
35,0.0003450168005656451,1.0,0.37938567996025085,0.8973046794475366
36,0.0003301002725493163,1.0,0.38106533885002136,0.8973046794475366
37,0.00031619580113328993,1.0,0.3826906383037567,0.8973046794475366
38,0.00030318438075482845,1.0,0.3841714859008789,0.8973046794475366
39,0.00029100655228830874,1.0,0.3856913149356842,0.8973046794475366
40,0.0002795910113491118,1.0,0.3871631622314453,0.8973046794475366
41,0.0002688677341211587,1.0,0.38858097791671753,0.8973046794475366
42,0.0002587952185422182,1.0,0.38999244570732117,0.8973046794475366
43,0.0002493149950169027,1.0,0.39140015840530396,0.8973046794475366
44,0.00024035476963035762,1.0,0.39274826645851135,0.8973046794475366
45,0.00023191353830043226,1.0,0.3941030502319336,0.8973046794475366
46,0.0002239168097730726,1.0,0.3954448103904724,0.8973046794475366
47,0.0002163497410947457,1.0,0.3967078626155853,0.8973046794475366
48,0.0002091793721774593,1.0,0.3979699909687042,0.8973046794475366
49,0.00020238551951479167,1.0,0.3992331624031067,0.8973046794475366
50,0.00019592030730564147,1.0,0.4004864990711212,0.8973046794475366
51,0.00018977842410095036,1.0,0.40168094635009766,0.8973046794475366
52,0.0001839332835515961,1.0,0.40285390615463257,0.8973046794475366
53,0.00017836151528172195,1.0,0.40402284264564514,0.8973046794475366
54,0.00017303014465142041,1.0,0.40516015887260437,0.8973046794475366
55,0.0001679635897744447,1.0,0.40627408027648926,0.8973046794475366
56,0.0001631278864806518,1.0,0.4073641896247864,0.8973046794475366
57,0.00015850919589865953,1.0,0.40844056010246277,0.8973046794475366
58,0.00015407238970510662,1.0,0.40954917669296265,0.8973046794475366
59,0.00014984511653892696,1.0,0.4105598032474518,0.8973046794475366
60,0.0001458072365494445,1.0,0.4115515649318695,0.8973046794475366
61,0.00014192357775755227,1.0,0.4125411808490753,0.8973046794475366
62,0.0001382122718496248,1.0,0.4135707914829254,0.8973046794475366
63,0.00013464564108289778,1.0,0.4145796298980713,0.8973046794475366
64,0.00013122582458890975,1.0,0.41554805636405945,0.8973046794475366
65,0.0001279315329156816,1.0,0.4164735674858093,0.8973046794475366
66,0.00012477343261707574,1.0,0.41736456751823425,0.8973046794475366
67,0.00012173871073173359,1.0,0.4183163046836853,0.8973046794475366
68,0.00011881889804499224,1.0,0.419200599193573,0.8973046794475366
69,0.00011601504957070574,1.0,0.42007702589035034,0.8973046794475366
70,0.00011331123096169904,1.0,0.42103686928749084,0.8973046794475366
71,0.0001107254865928553,1.0,0.42185112833976746,0.8973046794475366
72,0.00010821210889844224,1.0,0.4226318895816803,0.8973046794475366
73,0.00010579127410892397,1.0,0.4235943853855133,0.8973046794475366
74,0.00010346194176236168,1.0,0.42443183064460754,0.8973046794475366
75,0.00010121559898834676,1.0,0.42521053552627563,0.8973046794475366
76,9.904267062665895e-05,1.0,0.4259406626224518,0.8973046794475366
77,9.693888569017872e-05,1.0,0.4267738163471222,0.8973046794475366
78,9.49234381550923e-05,1.0,0.42753419280052185,0.8973046794475366
79,9.29590460145846e-05,1.0,0.428267240524292,0.8973046794475366
80,9.10489252419211e-05,1.0,0.4290752708911896,0.8973046794475366
81,8.920156687963754e-05,1.0,0.4297514259815216,0.8973046794475366
82,8.741061174077913e-05,1.0,0.43044260144233704,0.8973046794475366
83,8.568031626055017e-05,1.0,0.43113404512405396,0.8973046794475366
84,8.400744991376996e-05,1.0,0.4318862557411194,0.8973046794475366
85,8.237608562922105e-05,1.0,0.43257108330726624,0.8973046794475366
86,8.080433326540515e-05,1.0,0.43324369192123413,0.8973046794475366
87,7.926340913400054e-05,1.0,0.4339166581630707,0.8973046794475366
88,7.77788955019787e-05,1.0,0.4345424473285675,0.8973046794475366
89,7.63380085118115e-05,1.0,0.43520405888557434,0.8973046794475366
90,7.49460668885149e-05,1.0,0.4358035922050476,0.8973046794475366
91,7.358285074587911e-05,1.0,0.43643641471862793,0.8973046794475366
92,7.225048466352746e-05,1.0,0.4370902478694916,0.8973046794475366
93,7.09692103555426e-05,1.0,0.4377601146697998,0.8973046794475366
94,6.97177165420726e-05,1.0,0.4383177161216736,0.8973046794475366
95,6.850240606581792e-05,1.0,0.43890446424484253,0.8973046794475366
96,6.732221663696691e-05,1.0,0.43950822949409485,0.8973046794475366
97,6.617607141379267e-05,1.0,0.4401237964630127,0.8973046794475366
98,6.505440251203254e-05,1.0,0.44068288803100586,0.8973046794475366
99,6.396252865670249e-05,1.0,0.44130828976631165,0.8973046794475366
100,6.28929992672056e-05,1.0,0.4418546259403229,0.8973046794475366
101,6.185220263432711e-05,1.0,0.4423331916332245,0.8973046794475366
102,6.083907646825537e-05,1.0,0.442958265542984,0.8973046794475366
103,5.98514816374518e-05,1.0,0.44353151321411133,0.8973046794475366
104,5.889687963644974e-05,1.0,0.4441305994987488,0.8973046794475366
105,5.796036566607654e-05,1.0,0.4446319043636322,0.8973046794475366
106,5.704832074115984e-05,1.0,0.44524696469306946,0.8973046794475366
107,5.6150118325604126e-05,1.0,0.4457895755767822,0.8973046794475366
108,5.52689416508656e-05,1.0,0.446292906999588,0.8973046794475366
109,5.4421812819782645e-05,1.0,0.44699642062187195,0.8973046794475366
110,5.360129944165237e-05,1.0,0.4475431442260742,0.8973046794475366
111,5.279035394778475e-05,1.0,0.4480421841144562,0.8973046794475366
112,5.198685175855644e-05,1.0,0.44870254397392273,0.8973046794475366
113,5.122059883433394e-05,1.0,0.4491886496543884,0.8973046794475366
114,5.046818478149362e-05,1.0,0.44970211386680603,0.8973046794475366
115,4.973279283149168e-05,1.0,0.45030030608177185,0.8973046794475366
116,4.900911153526977e-05,1.0,0.45079684257507324,0.8973046794475366
117,4.830777834285982e-05,1.0,0.45137208700180054,0.8973046794475366
118,4.7614947106922045e-05,1.0,0.4519058167934418,0.8973046794475366
119,4.69423430331517e-05,1.0,0.4525012969970703,0.8973046794475366
120,4.628995884559117e-05,1.0,0.4530280530452728,0.8973046794475366
121,4.56311900052242e-05,1.0,0.45357105135917664,0.8973046794475366
122,4.50064726464916e-05,1.0,0.45404052734375,0.8973046794475366
123,4.439346230356023e-05,1.0,0.4546222686767578,0.8973046794475366
124,4.3778320105047897e-05,1.0,0.4551975131034851,0.8973046794475366
125,4.3184467358514667e-05,1.0,0.45564812421798706,0.8973046794475366
126,4.260338391759433e-05,1.0,0.45619896054267883,0.8973046794475366
127,4.203293792670593e-05,1.0,0.4566512703895569,0.8973046794475366
128,4.148164953221567e-05,1.0,0.4571358859539032,0.8973046794475366
129,4.093568350072019e-05,1.0,0.45762139558792114,0.8973046794475366
130,4.040142084704712e-05,1.0,0.4581959545612335,0.8973046794475366
131,3.9870355976745486e-05,1.0,0.4586327373981476,0.8973046794475366
132,3.935205677407794e-05,1.0,0.45904332399368286,0.8973046794475366
133,3.885717524099164e-05,1.0,0.4595487117767334,0.8973046794475366
134,3.835803363472223e-05,1.0,0.4599834978580475,0.8973046794475366
135,3.787059540627524e-05,1.0,0.4604471027851105,0.8973046794475366
136,3.739912426681258e-05,1.0,0.4609382152557373,0.8973046794475366
137,3.693297185236588e-05,1.0,0.46137309074401855,0.8973046794475366
138,3.648065830930136e-05,1.0,0.4618116021156311,0.8973046794475366
139,3.602195283747278e-05,1.0,0.4623124301433563,0.8973046794475366
140,3.55887932528276e-05,1.0,0.46274334192276,0.8973046794475366
141,3.51524431607686e-05,1.0,0.46322932839393616,0.8973046794475366
142,3.4727792808553204e-05,1.0,0.46361568570137024,0.8973046794475366
143,3.431485311011784e-05,1.0,0.46410316228866577,0.8973046794475366
144,3.390191341168247e-05,1.0,0.46448206901550293,0.8973046794475366
145,3.3507061743875965e-05,1.0,0.4649052619934082,0.8973046794475366
146,3.310582906124182e-05,1.0,0.4654010832309723,0.8973046794475366
147,3.270885281381197e-05,1.0,0.4657953083515167,0.8973046794475366
148,3.233315874240361e-05,1.0,0.466308057308197,0.8973046794475366
149,3.196704346919432e-05,1.0,0.4666949212551117,0.8973046794475366
150,3.159667176078074e-05,1.0,0.4670696556568146,0.8973046794475366
151,3.1231622415361926e-05,1.0,0.4674522578716278,0.8973046794475366
152,3.087189543293789e-05,1.0,0.4679454267024994,0.8973046794475366
153,3.053345062653534e-05,1.0,0.46840396523475647,0.8973046794475366
154,3.0181170586729422e-05,1.0,0.46880969405174255,0.8973046794475366
155,2.9838469345122576e-05,1.0,0.4692120850086212,0.8973046794475366
156,2.9510669264709577e-05,1.0,0.4696436822414398,0.8973046794475366
157,2.9189250199124217e-05,1.0,0.4700011909008026,0.8973046794475366
158,2.8868900699308142e-05,1.0,0.4703490138053894,0.8973046794475366
159,2.8544291126308963e-05,1.0,0.4707881510257721,0.8973046794475366
160,2.8232450858922675e-05,1.0,0.471280038356781,0.8973046794475366
161,2.7923804736929014e-05,1.0,0.4716242253780365,0.8973046794475366
162,2.7627931558527052e-05,1.0,0.4720333516597748,0.8973046794475366
163,2.7334184778737836e-05,1.0,0.47244223952293396,0.8973046794475366
164,2.704575854295399e-05,1.0,0.47278428077697754,0.8973046794475366
165,2.6761596018332057e-05,1.0,0.47318074107170105,0.8973046794475366
166,2.6468913347343914e-05,1.0,0.4735606014728546,0.8973046794475366
167,2.6193258236162364e-05,1.0,0.473909467458725,0.8973046794475366
168,2.592079727037344e-05,1.0,0.47430410981178284,0.8973046794475366
169,2.564939859439619e-05,1.0,0.47463008761405945,0.8973046794475366
170,2.539077468100004e-05,1.0,0.47499582171440125,0.8973046794475366
171,2.512576429580804e-05,1.0,0.4754152297973633,0.8973046794475366
172,2.4875653252820484e-05,1.0,0.47574105858802795,0.8973046794475366
173,2.4620219846838154e-05,1.0,0.4761181175708771,0.8973046794475366
174,2.437010516587179e-05,1.0,0.4764426350593567,0.8973046794475366
175,2.4124252377077937e-05,1.0,0.4768233299255371,0.8973046794475366
176,2.388265602348838e-05,1.0,0.47716423869132996,0.8973046794475366
177,2.3639993742108345e-05,1.0,0.47751694917678833,0.8973046794475366
178,2.341116669413168e-05,1.0,0.47796300053596497,0.8973046794475366
179,2.3186597900348715e-05,1.0,0.4781371057033539,0.8973046794475366
180,2.2952453946345486e-05,1.0,0.4785323739051819,0.8973046794475366
181,2.2725751477992162e-05,1.0,0.47901639342308044,0.8973046794475366
182,2.2508631445816718e-05,1.0,0.47929883003234863,0.8973046794475366
183,2.2281934434431605e-05,1.0,0.47968602180480957,0.8973046794475366
184,2.2072268620831892e-05,1.0,0.479990690946579,0.8973046794475366
185,2.186046913266182e-05,1.0,0.4803175628185272,0.8973046794475366
186,2.1652927898685448e-05,1.0,0.4806229770183563,0.8973046794475366
187,2.1449643099913374e-05,1.0,0.48097991943359375,0.8973046794475366
188,2.1245297830319032e-05,1.0,0.48120489716529846,0.8973046794475366
189,2.1038820705143735e-05,1.0,0.48155727982521057,0.8973046794475366
190,2.0845114704570733e-05,1.0,0.4819364845752716,0.8973046794475366
191,2.0650344595196657e-05,1.0,0.48220983147621155,0.8973046794475366
192,2.045451219601091e-05,1.0,0.48256155848503113,0.8973046794475366
193,2.0272515030228533e-05,1.0,0.482841819524765,0.8973046794475366
194,2.0076680812053382e-05,1.0,0.4831075072288513,0.8973046794475366
195,1.9888295355485752e-05,1.0,0.48348167538642883,0.8973046794475366
196,1.9715876987902448e-05,1.0,0.4837917983531952,0.8973046794475366
197,1.9533878003130667e-05,1.0,0.4841543138027191,0.8973046794475366
198,1.935507134476211e-05,1.0,0.484463632106781,0.8973046794475366
199,1.9186909412383102e-05,1.0,0.48472580313682556,0.8973046794475366
200,1.9015556972590275e-05,1.0,0.48513612151145935,0.8973046794475366
201,1.8841006749426015e-05,1.0,0.48542097210884094,0.8973046794475366
202,1.8673910744837485e-05,1.0,0.48569026589393616,0.8973046794475366
203,1.8505746993469074e-05,1.0,0.48604878783226013,0.8973046794475366
204,1.8353548512095585e-05,1.0,0.48634982109069824,0.8973046794475366
205,1.818325836211443e-05,1.0,0.48671263456344604,0.8973046794475366
206,1.8025737517746165e-05,1.0,0.48694920539855957,0.8973046794475366
207,1.7871410818770528e-05,1.0,0.48720672726631165,0.8973046794475366
208,1.770963535818737e-05,1.0,0.487647145986557,0.8973046794475366
209,1.755637458700221e-05,1.0,0.48790696263313293,0.8973046794475366
210,1.7404174286639318e-05,1.0,0.48827269673347473,0.8973046794475366
211,1.7256232240470126e-05,1.0,0.4884932339191437,0.8973046794475366
212,1.7113614376285113e-05,1.0,0.4888114333152771,0.8973046794475366
213,1.6970994693110697e-05,1.0,0.48912695050239563,0.8973046794475366
214,1.683263326412998e-05,1.0,0.4893797039985657,0.8973046794475366
215,1.6679370673955418e-05,1.0,0.4897114634513855,0.8973046794475366
216,1.6544199752388522e-05,1.0,0.48993682861328125,0.8973046794475366
217,1.6404776033596136e-05,1.0,0.4903115928173065,0.8973046794475366
218,1.626960511202924e-05,1.0,0.49052518606185913,0.8973046794475366
219,1.613124186405912e-05,1.0,0.4908476173877716,0.8973046794475366
220,1.6007781596272253e-05,1.0,0.49119967222213745,0.8973046794475366
221,1.587048427609261e-05,1.0,0.49143972992897034,0.8973046794475366
222,1.5743828043923713e-05,1.0,0.49177080392837524,0.8973046794475366
223,1.560440068715252e-05,1.0,0.4920251965522766,0.8973046794475366
224,1.5476680346182548e-05,1.0,0.49227839708328247,0.8973046794475366
225,1.535747833258938e-05,1.0,0.4925592541694641,0.8973046794475366
226,1.5232950318022631e-05,1.0,0.4928126931190491,0.8973046794475366
227,1.5106294995348435e-05,1.0,0.49316102266311646,0.8973046794475366
228,1.4996670870459639e-05,1.0,0.4934615194797516,0.8973046794475366
229,1.4868950529489666e-05,1.0,0.49374255537986755,0.8973046794475366
230,1.4751874005014542e-05,1.0,0.49399176239967346,0.8973046794475366
231,1.4627345990447793e-05,1.0,0.4943060874938965,0.8973046794475366
232,1.4514529539155774e-05,1.0,0.4945298135280609,0.8973046794475366
233,1.4400646250578575e-05,1.0,0.49486082792282104,0.8973046794475366
234,1.4296340850705747e-05,1.0,0.4951433539390564,0.8973046794475366
235,1.4175006981531624e-05,1.0,0.49535122513771057,0.8973046794475366
236,1.4069638382352423e-05,1.0,0.49570903182029724,0.8973046794475366
237,1.3961076547275297e-05,1.0,0.49590808153152466,0.8973046794475366
238,1.3852514712198172e-05,1.0,0.4962685704231262,0.8973046794475366
239,1.3748211131314747e-05,1.0,0.4964291453361511,0.8973046794475366
240,1.3635391951538622e-05,1.0,0.49674728512763977,0.8973046794475366
241,1.353215156996157e-05,1.0,0.49701347947120667,0.8973046794475366
242,1.3428910278889816e-05,1.0,0.49721139669418335,0.8973046794475366
243,1.3326733096619137e-05,1.0,0.49755340814590454,0.8973046794475366
244,1.3225622751633637e-05,1.0,0.4977516233921051,0.8973046794475366
245,1.312983386014821e-05,1.0,0.4980717599391937,0.8973046794475366
246,1.3026593478571158e-05,1.0,0.4982507526874542,0.8973046794475366
247,1.2929738659295253e-05,1.0,0.49854764342308044,0.8973046794475366
248,1.28350129671162e-05,1.0,0.49870309233665466,0.8973046794475366
249,1.2738158147840295e-05,1.0,0.4989500045776367,0.8973046794475366
250,1.2641304238059092e-05,1.0,0.4993636906147003,0.8973046794475366
251,1.2556156434584409e-05,1.0,0.49955013394355774,0.8973046794475366
252,1.245823750650743e-05,1.0,0.4998624324798584,0.8973046794475366
253,1.23667041407316e-05,1.0,0.5000341534614563,0.8973046794475366
254,1.2276236702746246e-05,1.0,0.5003671050071716,0.8973046794475366
255,1.2188960681669414e-05,1.0,0.5006057024002075,0.8973046794475366
256,1.210275058838306e-05,1.0,0.500738263130188,0.8973046794475366
257,1.2010153113806155e-05,1.0,0.5010706186294556,0.8973046794475366
258,1.1926071238121949e-05,1.0,0.5013303756713867,0.8973046794475366
259,1.1835601981147192e-05,1.0,0.5016214847564697,0.8973046794475366
260,1.1751518286473583e-05,1.0,0.501765787601471,0.8973046794475366
261,1.1671692845993675e-05,1.0,0.5021182894706726,0.8973046794475366
262,1.1580160389712546e-05,1.0,0.502360463142395,0.8973046794475366
263,1.1500334949232638e-05,1.0,0.5025065541267395,0.8973046794475366
264,1.1413058928155806e-05,1.0,0.5028097033500671,0.8973046794475366
265,1.134387912316015e-05,1.0,0.503054141998291,0.8973046794475366
266,1.1254473065491766e-05,1.0,0.5033910870552063,0.8973046794475366
267,1.117464853450656e-05,1.0,0.503545880317688,0.8973046794475366
268,1.1096950402134098e-05,1.0,0.5038455724716187,0.8973046794475366
269,1.1019254998245742e-05,1.0,0.5041795969009399,0.8973046794475366
270,1.0945815120066982e-05,1.0,0.504314124584198,0.8973046794475366
271,1.0870247024286073e-05,1.0,0.5046027302742004,0.8973046794475366
272,1.0793613910209388e-05,1.0,0.5048617124557495,0.8973046794475366
273,1.0720174941525329e-05,1.0,0.5050990581512451,0.8973046794475366
274,1.064460684574442e-05,1.0,0.5052359104156494,0.8973046794475366
275,1.0576489330560435e-05,1.0,0.5056119561195374,0.8973046794475366
276,1.0504112651688047e-05,1.0,0.5058074593544006,0.8973046794475366
277,1.0424287211208139e-05,1.0,0.5059382915496826,0.8973046794475366
278,1.0356169696024153e-05,1.0,0.5063339471817017,0.8973046794475366
279,1.0283794836141169e-05,1.0,0.5065367817878723,0.8973046794475366
280,1.0211419976258185e-05,1.0,0.506824791431427,0.8973046794475366
281,1.0142238352273125e-05,1.0,0.5070611238479614,0.8973046794475366
282,1.0075184036395513e-05,1.0,0.5073843598365784,0.8973046794475366
283,1.0009194738813676e-05,1.0,0.5074706673622131,0.8973046794475366
284,9.943206350726541e-06,1.0,0.5077134370803833,0.8973046794475366
285,9.869765563053079e-06,1.0,0.5080729722976685,0.8973046794475366
286,9.804841283767018e-06,1.0,0.5082205533981323,0.8973046794475366
287,9.74098020378733e-06,1.0,0.508543848991394,0.8973046794475366
288,9.672862688603345e-06,1.0,0.5087795257568359,0.8973046794475366
289,9.62070953391958e-06,1.0,0.5090923309326172,0.8973046794475366
290,9.548334674036596e-06,1.0,0.5091450810432434,0.8973046794475366
291,9.496181519352831e-06,1.0,0.5093694925308228,0.8973046794475366
292,9.42274164117407e-06,1.0,0.5097748637199402,0.8973046794475366
293,9.364202924189158e-06,1.0,0.5099596977233887,0.8973046794475366
294,9.295021300204098e-06,1.0,0.5102370381355286,0.8973046794475366
295,9.243934073310811e-06,1.0,0.5103583931922913,0.8973046794475366
296,9.182201210933272e-06,1.0,0.51064133644104,0.8973046794475366
297,9.116211913351435e-06,1.0,0.5108301639556885,0.8973046794475366
298,9.06192963157082e-06,1.0,0.5110554695129395,0.8973046794475366
299,9.001261787489057e-06,1.0,0.5113751292228699,0.8973046794475366
300,8.942722161009442e-06,1.0,0.5114884972572327,0.8973046794475366
301,8.889504897524603e-06,1.0,0.5118086338043213,0.8973046794475366
302,8.824580618238542e-06,1.0,0.5120242238044739,0.8973046794475366
303,8.774556590651628e-06,1.0,0.5123348832130432,0.8973046794475366
304,8.722403435967863e-06,1.0,0.5124328136444092,0.8973046794475366
305,8.660672392579727e-06,1.0,0.5125990509986877,0.8973046794475366
306,8.605326001998037e-06,1.0,0.5129315257072449,0.8973046794475366
307,8.556366083212197e-06,1.0,0.5130979418754578,0.8973046794475366
308,8.497826456732582e-06,1.0,0.5133748054504395,0.8973046794475366
309,8.454188900941517e-06,1.0,0.5135384798049927,0.8973046794475366
310,8.392456038563978e-06,1.0,0.5138103365898132,0.8973046794475366
311,8.340303793374915e-06,1.0,0.5139226317405701,0.8973046794475366
312,8.28815063869115e-06,1.0,0.5141740441322327,0.8973046794475366
313,8.23493337520631e-06,1.0,0.5144168138504028,0.8973046794475366
314,8.182780220522545e-06,1.0,0.5145645141601562,0.8973046794475366
315,8.131691174639855e-06,1.0,0.5149304866790771,0.8973046794475366
316,8.082731255854014e-06,1.0,0.5151049494743347,0.8973046794475366
317,8.026321665965952e-06,1.0,0.5153682827949524,0.8973046794475366
318,7.977361747180112e-06,1.0,0.5154798030853271,0.8973046794475366
319,7.93478739069542e-06,1.0,0.5157331824302673,0.8973046794475366
320,7.886891580710653e-06,1.0,0.5159652829170227,0.8973046794475366
321,7.829416972526815e-06,1.0,0.5161122679710388,0.8973046794475366
322,7.788971743138973e-06,1.0,0.5164207816123962,0.8973046794475366
323,7.734690370853059e-06,1.0,0.5165871977806091,0.8973046794475366
324,7.691052815061994e-06,1.0,0.5168426632881165,0.8973046794475366
325,7.643156095582526e-06,1.0,0.5169512033462524,0.8973046794475366
326,7.602710866194684e-06,1.0,0.5171934962272644,0.8973046794475366
327,7.561201528005768e-06,1.0,0.5173889994621277,0.8973046794475366
328,7.509047918574652e-06,1.0,0.5175542235374451,0.8973046794475366
329,7.466474471584661e-06,1.0,0.5178591012954712,0.8973046794475366
330,7.417514552798821e-06,1.0,0.517995297908783,0.8973046794475366
331,7.378133432212053e-06,1.0,0.518281877040863,0.8973046794475366
332,7.333430858125212e-06,1.0,0.5183953642845154,0.8973046794475366
333,7.283406830538297e-06,1.0,0.5185838341712952,0.8973046794475366
334,7.2397674557578284e-06,1.0,0.5187927484512329,0.8973046794475366
335,7.205708698165836e-06,1.0,0.5190122723579407,0.8973046794475366
336,7.158877906476846e-06,1.0,0.5192087888717651,0.8973046794475366
337,7.119496331142727e-06,1.0,0.5193706154823303,0.8973046794475366
338,7.073729648254812e-06,1.0,0.5195944309234619,0.8973046794475366
339,7.03541354596382e-06,1.0,0.5198768377304077,0.8973046794475366
340,6.994967861828627e-06,1.0,0.5200089812278748,0.8973046794475366
341,6.946007943042787e-06,1.0,0.5202060341835022,0.8973046794475366
342,6.914076948305592e-06,1.0,0.5204779505729675,0.8973046794475366
343,6.873632173665101e-06,1.0,0.5206302404403687,0.8973046794475366
344,6.829993708379334e-06,1.0,0.5208191275596619,0.8973046794475366
345,6.786355243093567e-06,1.0,0.5210554003715515,0.8973046794475366
346,6.7565533754532225e-06,1.0,0.5212000608444214,0.8973046794475366
347,6.712914910167456e-06,1.0,0.5214771032333374,0.8973046794475366
348,6.667147772532189e-06,1.0,0.521575927734375,0.8973046794475366
349,6.637346359639196e-06,1.0,0.5217359662055969,0.8973046794475366
350,6.594772003154503e-06,1.0,0.5220444798469543,0.8973046794475366
351,6.561777354363585e-06,1.0,0.5221496820449829,0.8973046794475366
352,6.513881544378819e-06,1.0,0.5224602818489075,0.8973046794475366
353,6.475564987340476e-06,1.0,0.5225443243980408,0.8973046794475366
354,6.447891337302281e-06,1.0,0.522821843624115,0.8973046794475366
355,6.402124654414365e-06,1.0,0.522996187210083,0.8973046794475366
356,6.377643785526743e-06,1.0,0.5231462121009827,0.8973046794475366
357,6.339328137983102e-06,1.0,0.523447573184967,0.8973046794475366
358,6.296754690993112e-06,1.0,0.523596465587616,0.8973046794475366
359,6.268016477406491e-06,1.0,0.5238592028617859,0.8973046794475366
360,6.225442575669149e-06,1.0,0.5240415930747986,0.8973046794475366
361,6.197769380378304e-06,1.0,0.5241512060165405,0.8973046794475366
362,6.16370971329161e-06,1.0,0.5245184302330017,0.8973046794475366
363,6.128585937403841e-06,1.0,0.5247116684913635,0.8973046794475366
364,6.094527179811848e-06,1.0,0.5248917937278748,0.8973046794475366
365,6.0540810409293044e-06,1.0,0.5250871777534485,0.8973046794475366
366,6.022150955686811e-06,1.0,0.5252207517623901,0.8973046794475366
367,5.990220415696967e-06,1.0,0.5255886912345886,0.8973046794475366
368,5.956160748610273e-06,1.0,0.5257300138473511,0.8973046794475366
369,5.924230208620429e-06,1.0,0.5260387659072876,0.8973046794475366
370,5.89123510508216e-06,1.0,0.526104748249054,0.8973046794475366
371,5.862497800990241e-06,1.0,0.5263112187385559,0.8973046794475366
372,5.827373570355121e-06,1.0,0.5267221927642822,0.8973046794475366
373,5.797572612209478e-06,1.0,0.5267685055732727,0.8973046794475366
374,5.772028089268133e-06,1.0,0.5270374417304993,0.8973046794475366
375,5.732646968681365e-06,1.0,0.5272340178489685,0.8973046794475366
376,5.702845101041021e-06,1.0,0.5274719595909119,0.8973046794475366
377,5.669849542755401e-06,1.0,0.5275742411613464,0.8973046794475366
378,5.645369583362481e-06,1.0,0.5278149843215942,0.8973046794475366
379,5.610246716969414e-06,1.0,0.5280556082725525,0.8973046794475366
380,5.578315722232219e-06,1.0,0.528117299079895,0.8973046794475366
381,5.55170754523715e-06,1.0,0.528473973274231,0.8973046794475366
382,5.524033895198954e-06,1.0,0.5286105275154114,0.8973046794475366
383,5.493167464010185e-06,1.0,0.5287603735923767,0.8973046794475366
384,5.455915470520267e-06,1.0,0.5289193391799927,0.8973046794475366
385,5.429306384030497e-06,1.0,0.5292171835899353,0.8973046794475366
386,5.397375389293302e-06,1.0,0.5292912721633911,0.8973046794475366
387,5.3675735216529574e-06,1.0,0.5294023156166077,0.8973046794475366
388,5.343093107512686e-06,1.0,0.5298181176185608,0.8973046794475366
389,5.3122275858186185e-06,1.0,0.5299489498138428,0.8973046794475366
390,5.282425718178274e-06,1.0,0.5301324725151062,0.8973046794475366
391,5.262202648737002e-06,1.0,0.5303694605827332,0.8973046794475366
392,5.236658580543008e-06,1.0,0.5304890871047974,0.8973046794475366
393,5.203663022257388e-06,1.0,0.5307043790817261,0.8973046794475366
394,5.178118499316042e-06,1.0,0.5308225154876709,0.8973046794475366
395,5.147252068127273e-06,1.0,0.5310967564582825,0.8973046794475366
396,5.120643891132204e-06,1.0,0.5313158631324768,0.8973046794475366
397,5.095098913443508e-06,1.0,0.5314010381698608,0.8973046794475366
398,5.067425718152663e-06,1.0,0.5317187309265137,0.8973046794475366
399,5.041881195211317e-06,1.0,0.5318775177001953,0.8973046794475366
400,5.0142079999204725e-06,1.0,0.5320221185684204,0.8973046794475366
401,4.9939849304792006e-06,1.0,0.5323089957237244,0.8973046794475366
402,4.963119408785133e-06,1.0,0.532403290271759,0.8973046794475366
403,4.942896339343861e-06,1.0,0.5326122045516968,0.8973046794475366
404,4.9141590352519415e-06,1.0,0.532757580280304,0.8973046794475366
405,4.888614057563245e-06,1.0,0.5329014658927917,0.8973046794475366
406,4.867326879320899e-06,1.0,0.5332316756248474,0.8973046794475366
407,4.8407177928311285e-06,1.0,0.5333136320114136,0.8973046794475366
408,4.80985181638971e-06,1.0,0.5334897637367249,0.8973046794475366
409,4.787500529346289e-06,1.0,0.533663809299469,0.8973046794475366
410,4.765148787555518e-06,1.0,0.5338802933692932,0.8973046794475366
411,4.734282811114099e-06,1.0,0.5339850187301636,0.8973046794475366
412,4.712995178124402e-06,1.0,0.5341901183128357,0.8973046794475366
413,4.689579782279907e-06,1.0,0.5343173742294312,0.8973046794475366
414,4.669356712838635e-06,1.0,0.5346264243125916,0.8973046794475366
415,4.639555299945641e-06,1.0,0.5348047614097595,0.8973046794475366
416,4.619332230504369e-06,1.0,0.5347901582717896,0.8973046794475366
417,4.6001741793588735e-06,1.0,0.5351271629333496,0.8973046794475366
418,4.576758328767028e-06,1.0,0.5353063344955444,0.8973046794475366
419,4.550148787529906e-06,1.0,0.5355888605117798,0.8973046794475366
420,4.529926627583336e-06,1.0,0.5357062220573425,0.8973046794475366
421,4.50438164989464e-06,1.0,0.5357637405395508,0.8973046794475366
422,4.482029908103868e-06,1.0,0.5359079241752625,0.8973046794475366
423,4.457549948710948e-06,1.0,0.5361402630805969,0.8973046794475366
424,4.439456006366527e-06,1.0,0.5362846255302429,0.8973046794475366
425,4.412847374624107e-06,1.0,0.5365612506866455,0.8973046794475366
426,4.390495178085985e-06,1.0,0.5367217659950256,0.8973046794475366
427,4.371337126940489e-06,1.0,0.5368280410766602,0.8973046794475366
428,4.343663476902293e-06,1.0,0.5370296239852905,0.8973046794475366
429,4.323441316955723e-06,1.0,0.5371513962745667,0.8973046794475366
430,4.305347374611301e-06,1.0,0.5374028086662292,0.8973046794475366
431,4.286188868718455e-06,1.0,0.5376262068748474,0.8973046794475366
432,4.25851567342761e-06,1.0,0.5376771688461304,0.8973046794475366
433,4.236163931636838e-06,1.0,0.5379688739776611,0.8973046794475366
434,4.22339144279249e-06,1.0,0.5381084680557251,0.8973046794475366
435,4.199976046947995e-06,1.0,0.538174569606781,0.8973046794475366
436,4.178688413958298e-06,1.0,0.5384701490402222,0.8973046794475366
437,4.153143891016953e-06,1.0,0.5386186838150024,0.8973046794475366
438,4.137178621022031e-06,1.0,0.5387917757034302,0.8973046794475366
439,4.119084223930258e-06,1.0,0.5390504598617554,0.8973046794475366
440,4.100990736333188e-06,1.0,0.5391739010810852,0.8973046794475366
441,4.0754457586444914e-06,1.0,0.5393543839454651,0.8973046794475366
442,4.052029908052646e-06,1.0,0.5394931435585022,0.8973046794475366
443,4.035000529256649e-06,1.0,0.5397037267684937,0.8973046794475366
444,4.017970695713302e-06,1.0,0.5398567914962769,0.8973046794475366
445,3.994554845121456e-06,1.0,0.5400069355964661,0.8973046794475366
446,3.974332230427535e-06,1.0,0.5402647256851196,0.8973046794475366
447,3.960495178034762e-06,1.0,0.540310800075531,0.8973046794475366
448,3.940272563340841e-06,1.0,0.5404620170593262,0.8973046794475366
449,3.920049493899569e-06,1.0,0.540812611579895,0.8973046794475366
450,3.898762315657223e-06,1.0,0.5409464836120605,0.8973046794475366
451,3.877475137414876e-06,1.0,0.5410314202308655,0.8973046794475366
452,3.86257443096838e-06,1.0,0.5412028431892395,0.8973046794475366
453,3.845544597425032e-06,1.0,0.541441023349762,0.8973046794475366
454,3.828514763881685e-06,1.0,0.5415301322937012,0.8973046794475366
455,3.80722804038669e-06,1.0,0.5417548418045044,0.8973046794475366
456,3.7891336432949174e-06,1.0,0.5419517159461975,0.8973046794475366
457,3.7678466924262466e-06,1.0,0.5420458912849426,0.8973046794475366
458,3.7561385397566482e-06,1.0,0.5422396063804626,0.8973046794475366
459,3.736980261237477e-06,1.0,0.5423551201820374,0.8973046794475366
460,3.7178215279709548e-06,1.0,0.5426017642021179,0.8973046794475366
461,3.701856257976033e-06,1.0,0.5427209138870239,0.8973046794475366
462,3.678440407384187e-06,1.0,0.5429443120956421,0.8973046794475366
463,3.6592821288650157e-06,1.0,0.5430657863616943,0.8973046794475366
464,3.644380967671168e-06,1.0,0.5433031916618347,0.8973046794475366
465,3.6316087062004954e-06,1.0,0.5434272885322571,0.8973046794475366
466,3.615643208831898e-06,1.0,0.5435666441917419,0.8973046794475366
467,3.5964844755653758e-06,1.0,0.5437418818473816,0.8973046794475366
468,3.5751977520703804e-06,1.0,0.5438700318336487,0.8973046794475366
469,3.5602965908765327e-06,1.0,0.5440784692764282,0.8973046794475366
470,3.541138084983686e-06,1.0,0.5442692041397095,0.8973046794475366
471,3.5294303870614385e-06,1.0,0.5443606972694397,0.8973046794475366
472,3.508142981445417e-06,1.0,0.544605553150177,0.8973046794475366
473,3.493241820251569e-06,1.0,0.5447241067886353,0.8973046794475366
474,3.4762122140818974e-06,1.0,0.5447690486907959,0.8973046794475366
475,3.4602469440869754e-06,1.0,0.5450578331947327,0.8973046794475366
476,3.446410346441553e-06,1.0,0.5452080368995667,0.8973046794475366
477,3.426187277000281e-06,1.0,0.5452669262886047,0.8973046794475366
478,3.4070287711074343e-06,1.0,0.5455052256584167,0.8973046794475366
479,3.3931919460883364e-06,1.0,0.5456832051277161,0.8973046794475366
480,3.3782912396418396e-06,1.0,0.5457776784896851,0.8973046794475366
481,3.3644544146227418e-06,1.0,0.5458860397338867,0.8973046794475366
482,3.352746489326819e-06,1.0,0.545988917350769,0.8973046794475366
483,3.3303947475360474e-06,1.0,0.5464268326759338,0.8973046794475366
484,3.316558149890625e-06,1.0,0.5464441180229187,0.8973046794475366
485,3.2973998713714536e-06,1.0,0.5465977787971497,0.8973046794475366
486,3.2856917187018553e-06,1.0,0.5468469262123108,0.8973046794475366
487,3.269726221333258e-06,1.0,0.5468136072158813,0.8973046794475366
488,3.253760951338336e-06,1.0,0.547001302242279,0.8973046794475366
489,3.2377959087170893e-06,1.0,0.5471614599227905,0.8973046794475366
490,3.228216655770666e-06,1.0,0.5474311113357544,0.8973046794475366
491,3.2101222586788936e-06,1.0,0.5475000739097595,0.8973046794475366
492,3.197349997208221e-06,1.0,0.5476503968238831,0.8973046794475366
493,3.187770516888122e-06,1.0,0.5477728247642517,0.8973046794475366
494,3.170740683344775e-06,1.0,0.5478916168212891,0.8973046794475366
495,3.1462607239518547e-06,1.0,0.5481008291244507,0.8973046794475366
496,3.136681698379107e-06,1.0,0.5482972860336304,0.8973046794475366
497,3.122844873360009e-06,1.0,0.5483903288841248,0.8973046794475366
498,3.1079437121661613e-06,1.0,0.5485392212867737,0.8973046794475366
499,3.095171678069164e-06,1.0,0.5487095713615417,0.8973046794475366
500,3.080270744248992e-06,1.0,0.5488337874412537,0.8973046794475366
501,3.065369583055144e-06,1.0,0.5490003824234009,0.8973046794475366
502,3.0483395221381215e-06,1.0,0.5491141080856323,0.8973046794475366
503,3.0366315968421986e-06,1.0,0.5492631196975708,0.8973046794475366
504,3.025988235094701e-06,1.0,0.5495085120201111,0.8973046794475366
505,3.013215746250353e-06,1.0,0.5495930910110474,0.8973046794475366
506,3.0015075935807545e-06,1.0,0.5497479438781738,0.8973046794475366
507,2.9887355594837572e-06,1.0,0.5499529838562012,0.8973046794475366
508,2.970641162391985e-06,1.0,0.5499574542045593,0.8973046794475366
509,2.9642549179698108e-06,1.0,0.5502529144287109,0.8973046794475366
510,2.9440323032758897e-06,1.0,0.550298810005188,0.8973046794475366
511,2.935517386504216e-06,1.0,0.5505320429801941,0.8973046794475366
512,2.925938360931468e-06,1.0,0.5507577061653137,0.8973046794475366
513,2.9121015359123703e-06,1.0,0.550736129283905,0.8973046794475366
514,2.894007138820598e-06,1.0,0.5508978962898254,0.8973046794475366
515,2.8801703138015e-06,1.0,0.5510348081588745,0.8973046794475366
516,2.870591288228752e-06,1.0,0.5513246655464172,0.8973046794475366
517,2.8610120352823287e-06,1.0,0.551331639289856,0.8973046794475366
518,2.846110874088481e-06,1.0,0.5515875816345215,0.8973046794475366
519,2.8322742764430586e-06,1.0,0.5517622828483582,0.8973046794475366
520,2.8163090064481366e-06,1.0,0.5517752766609192,0.8973046794475366
521,2.803536744977464e-06,1.0,0.5520129799842834,0.8973046794475366
522,2.7939574920310406e-06,1.0,0.5521401762962341,0.8973046794475366
523,2.774798986138194e-06,1.0,0.5523498058319092,0.8973046794475366
524,2.7662840693665203e-06,1.0,0.5525034666061401,0.8973046794475366
525,2.754575916696922e-06,1.0,0.5525224208831787,0.8973046794475366
526,2.7407393190514995e-06,1.0,0.5528433918952942,0.8973046794475366
527,2.727967057580827e-06,1.0,0.5530116558074951,0.8973046794475366
528,2.7151945687364787e-06,1.0,0.553006112575531,0.8973046794475366
529,2.707743988139555e-06,1.0,0.5531872510910034,0.8973046794475366
530,2.6960358354699565e-06,1.0,0.5533291101455688,0.8973046794475366
531,2.6832638013729593e-06,1.0,0.5535967350006104,0.8973046794475366
532,2.6704915399022866e-06,1.0,0.5536262392997742,0.8973046794475366
533,2.6598479507811135e-06,1.0,0.5539225935935974,0.8973046794475366
534,2.644946789587266e-06,1.0,0.5541085600852966,0.8973046794475366
535,2.6321743007429177e-06,1.0,0.554201602935791,0.8973046794475366
536,2.6247239475196693e-06,1.0,0.5543418526649475,0.8973046794475366
537,2.6119516860489966e-06,1.0,0.5544238090515137,0.8973046794475366
538,2.5991791972046485e-06,1.0,0.5546794533729553,0.8973046794475366
539,2.5832139272097265e-06,1.0,0.5547469258308411,0.8973046794475366
540,2.5768276827875525e-06,1.0,0.555003821849823,0.8973046794475366
541,2.5704414383653784e-06,1.0,0.5549987554550171,0.8973046794475366
542,2.560862185418955e-06,1.0,0.5552946329116821,0.8973046794475366
543,2.545961251598783e-06,1.0,0.5555199384689331,0.8973046794475366
544,2.538510671001859e-06,1.0,0.5554543137550354,0.8973046794475366
545,2.528931645429111e-06,1.0,0.5556762218475342,0.8973046794475366
546,2.5129661480605137e-06,1.0,0.5558171272277832,0.8973046794475366
547,2.5001936592161655e-06,1.0,0.5560861825942993,0.8973046794475366
548,2.488485506546567e-06,1.0,0.5561835169792175,0.8973046794475366
549,2.47464913627482e-06,1.0,0.5564123392105103,0.8973046794475366
550,2.4671985556778964e-06,1.0,0.556546151638031,0.8973046794475366
551,2.4608123112557223e-06,1.0,0.5565909147262573,0.8973046794475366
552,2.4437827050860506e-06,1.0,0.5567839741706848,0.8973046794475366
553,2.432074552416452e-06,1.0,0.5568675398826599,0.8973046794475366
554,2.4246239718195284e-06,1.0,0.5572260022163391,0.8973046794475366
555,2.4118514829751803e-06,1.0,0.557340681552887,0.8973046794475366
556,2.4044009023782564e-06,1.0,0.5573979020118713,0.8973046794475366
557,2.394821649431833e-06,1.0,0.5574809908866882,0.8973046794475366
558,2.3863067326601595e-06,1.0,0.5577117800712585,0.8973046794475366
559,2.3777922706358368e-06,1.0,0.5579459071159363,0.8973046794475366
560,2.366084345339914e-06,1.0,0.5579566359519958,0.8973046794475366
561,2.351183184146066e-06,1.0,0.5581323504447937,0.8973046794475366
562,2.345861275898642e-06,1.0,0.5583873391151428,0.8973046794475366
563,2.3352179141511442e-06,1.0,0.5584632158279419,0.8973046794475366
564,2.3235095341078704e-06,1.0,0.5586941242218018,0.8973046794475366
565,2.3075442641129484e-06,1.0,0.5587865114212036,0.8973046794475366
566,2.303286692040274e-06,1.0,0.5589436888694763,0.8973046794475366
567,2.2926431029191008e-06,1.0,0.5592974424362183,0.8973046794475366
568,2.286257085870602e-06,1.0,0.5592478513717651,0.8973046794475366
569,2.2788065052736783e-06,1.0,0.5593615770339966,0.8973046794475366
570,2.2745491605746793e-06,1.0,0.5595295429229736,0.8973046794475366
571,2.2575190996576566e-06,1.0,0.5597590804100037,0.8973046794475366
572,2.2479398467112333e-06,1.0,0.5598039031028748,0.8973046794475366
573,2.2436822746385587e-06,1.0,0.5601138472557068,0.8973046794475366
574,2.2277170046436368e-06,1.0,0.5602489113807678,0.8973046794475366
575,2.221330987595138e-06,1.0,0.5602197051048279,0.8973046794475366
576,2.20962283492554e-06,1.0,0.5604995489120483,0.8973046794475366
577,2.2000435819791164e-06,1.0,0.5606022477149963,0.8973046794475366
578,2.189399765484268e-06,1.0,0.5607362389564514,0.8973046794475366
579,2.1840783119841944e-06,1.0,0.5607591867446899,0.8973046794475366
580,2.1702414869650966e-06,1.0,0.5610278844833374,0.8973046794475366
581,2.160662234018673e-06,1.0,0.5610803961753845,0.8973046794475366
582,2.1446965092764003e-06,1.0,0.5612452626228333,0.8973046794475366
583,2.141503500752151e-06,1.0,0.5615349411964417,0.8973046794475366
584,2.125538230757229e-06,1.0,0.561515748500824,0.8973046794475366
585,2.1202163225098047e-06,1.0,0.5616088509559631,0.8973046794475366
586,2.112765741912881e-06,1.0,0.5618014335632324,0.8973046794475366
587,2.1042510525148828e-06,1.0,0.5619520545005798,0.8973046794475366
588,2.0925428998452844e-06,1.0,0.5621373653411865,0.8973046794475366
589,2.0861566554231104e-06,1.0,0.5622078776359558,0.8973046794475366
590,2.0797704110009363e-06,1.0,0.5625481009483337,0.8973046794475366
591,2.076577402476687e-06,1.0,0.5626939535140991,0.8973046794475366
592,2.066998376903939e-06,1.0,0.5627045035362244,0.8973046794475366
593,2.053161551884841e-06,1.0,0.5628765821456909,0.8973046794475366
594,2.045711198661593e-06,1.0,0.5629204511642456,0.8973046794475366
595,2.0340030459919944e-06,1.0,0.5631638169288635,0.8973046794475366
596,2.0276168015698204e-06,1.0,0.5632150769233704,0.8918101739530311
597,2.0191018847981468e-06,1.0,0.5634064078330994,0.8918101739530311
598,2.0116515315748984e-06,1.0,0.5634939074516296,0.8918101739530311
599,2.002072278628475e-06,1.0,0.5637938380241394,0.8918101739530311
600,1.9924930256820517e-06,1.0,0.5638712048530579,0.8918101739530311
601,1.9861067812598776e-06,1.0,0.5639940500259399,0.8918101739530311
602,1.9797205368377035e-06,1.0,0.5643208026885986,0.8918101739530311
603,1.9680126115417806e-06,1.0,0.5641764402389526,0.8918101739530311
604,1.959497694770107e-06,1.0,0.564367413520813,0.8918101739530311
605,1.9509827779984334e-06,1.0,0.5645590424537659,0.8918101739530311
606,1.9435321974015096e-06,1.0,0.5646635293960571,0.8918101739530311
607,1.9328886082803365e-06,1.0,0.564757764339447,0.8918101739530311
608,1.9254380276834127e-06,1.0,0.5648916959762573,0.8918101739530311
609,1.922244791785488e-06,1.0,0.5650411248207092,0.8918101739530311
610,1.9116012026643148e-06,1.0,0.565159797668457,0.8918101739530311
611,1.9073438579653157e-06,1.0,0.5652838349342346,0.8918101739530311
612,1.9020219497178914e-06,1.0,0.5654970407485962,0.8918101739530311
613,1.8935070329462178e-06,1.0,0.5655078887939453,0.8918101739530311
614,1.8860565660361317e-06,1.0,0.5658355355262756,0.8918101739530311
615,1.877541649264458e-06,1.0,0.5660381317138672,0.8918101739530311
616,1.8732841908786213e-06,1.0,0.5658932328224182,0.8918101739530311
617,1.8615761518958607e-06,1.0,0.5661977529525757,0.8918101739530311
618,1.8498679992262623e-06,1.0,0.5662724375724792,0.8918101739530311
619,1.8434819821777637e-06,1.0,0.5663772225379944,0.8918101739530311
620,1.8381600739303394e-06,1.0,0.5664175748825073,0.8918101739530311
621,1.8296452708455035e-06,1.0,0.5666469931602478,0.8918101739530311
622,1.8190015680374927e-06,1.0,0.5668066740036011,0.8918101739530311
623,1.810486651265819e-06,1.0,0.5668125748634338,0.8918101739530311
624,1.804100406843645e-06,1.0,0.5669688582420349,0.8918101739530311
625,1.7966498262467212e-06,1.0,0.5671870112419128,0.8918101739530311
626,1.7923923678608844e-06,1.0,0.567285418510437,0.8918101739530311
627,1.7881349094750476e-06,1.0,0.5675025582313538,0.8918101739530311
628,1.776426870492287e-06,1.0,0.5675494074821472,0.8918101739530311
629,1.7657831676842761e-06,1.0,0.5678130388259888,0.8918101739530311
630,1.7572682509126025e-06,1.0,0.5680153369903564,0.8918101739530311
631,1.7508824612377794e-06,1.0,0.5678539276123047,0.8918101739530311
632,1.7434318806408555e-06,1.0,0.568138062953949,0.8918101739530311
633,1.7370456362186815e-06,1.0,0.5683465003967285,0.8918101739530311
634,1.7349168501823442e-06,1.0,0.568445086479187,0.8918101739530311
635,1.7306593917965074e-06,1.0,0.5684948563575745,0.8918101739530311
636,1.7232088111995836e-06,1.0,0.5688868761062622,0.8918101739530311
637,1.7157582306026598e-06,1.0,0.568993866443634,0.8918101739530311
638,1.7104364360420732e-06,1.0,0.5690588355064392,0.8918101739530311
639,1.7072434275178239e-06,1.0,0.5692259073257446,0.8918101739530311
640,1.6987285107461503e-06,1.0,0.5692211389541626,0.8918101739530311
641,1.6859560219018022e-06,1.0,0.5695668458938599,0.8918101739530311
642,1.6827628996907151e-06,1.0,0.5695529580116272,0.8918101739530311
643,1.6710552017684677e-06,1.0,0.5698031187057495,0.8918101739530311
644,1.6582827129241196e-06,1.0,0.5699976086616516,0.8918101739530311
645,1.652960918363533e-06,1.0,0.5700129270553589,0.8918101739530311
646,1.6487034599776962e-06,1.0,0.5702418684959412,0.8918101739530311
647,1.6401884295191849e-06,1.0,0.5703287720680237,0.8918101739530311
648,1.6338022987838485e-06,1.0,0.5705059766769409,0.8918101739530311
649,1.629544726711174e-06,1.0,0.570557177066803,0.8918101739530311
650,1.6274160543616745e-06,1.0,0.5708080530166626,0.8918101739530311
651,1.6231588233495131e-06,1.0,0.5707911252975464,0.8918101739530311
652,1.6125151205415023e-06,1.0,0.5711392164230347,0.8918101739530311
653,1.6061288761193282e-06,1.0,0.5712953209877014,0.8918101739530311
654,1.6040002037698287e-06,1.0,0.5712035298347473,0.8918101739530311
655,1.595485286998155e-06,1.0,0.5715199708938599,0.8918101739530311
656,1.5912277149254805e-06,1.0,0.5715362429618835,0.8918101739530311
657,1.5805841258043074e-06,1.0,0.5716632604598999,0.8918101739530311
658,1.5752622175568831e-06,1.0,0.5717294812202454,0.8918101739530311
659,1.568875973134709e-06,1.0,0.5718584060668945,0.8918101739530311
660,1.56461862843571e-06,1.0,0.5721176266670227,0.8918101739530311
661,1.5603611700498732e-06,1.0,0.5721572041511536,0.8918101739530311
662,1.5497174672418623e-06,1.0,0.5724401473999023,0.8918101739530311
663,1.5454601225428632e-06,1.0,0.5725359320640564,0.8918101739530311
664,1.5412026641570264e-06,1.0,0.5727174878120422,0.8918101739530311
665,1.5326877473853528e-06,1.0,0.5728187561035156,0.8918101739530311
666,1.528430288999516e-06,1.0,0.5727930068969727,0.8918101739530311
667,1.5188510360530927e-06,1.0,0.5731204748153687,0.8918101739530311
668,1.510336119281419e-06,1.0,0.5731117129325867,0.8918101739530311
669,1.5050143247208325e-06,1.0,0.5732312798500061,0.8918101739530311
670,1.502885652371333e-06,1.0,0.5733737349510193,0.8918101739530311
671,1.4911776133885724e-06,1.0,0.5735397338867188,0.8918101739530311
672,1.4847913689663983e-06,1.0,0.5734993815422058,0.8918101739530311
673,1.478405238231062e-06,1.0,0.5738704800605774,0.8918101739530311
674,1.475212116019975e-06,1.0,0.5741563439369202,0.8918101739530311
675,1.472018993808888e-06,1.0,0.5740290880203247,0.8918101739530311
676,1.4656327493867138e-06,1.0,0.5742068290710449,0.8918101739530311
677,1.4581822824766277e-06,1.0,0.5743442177772522,0.8918101739530311
678,1.4549892739523784e-06,1.0,0.574548602104187,0.8918101739530311
679,1.4528604879160412e-06,1.0,0.5745352506637573,0.8918101739530311
680,1.4475386933554546e-06,1.0,0.5747730135917664,0.8918101739530311
681,1.44328112128278e-06,1.0,0.5748701691627502,0.8918101739530311
682,1.4358305406858562e-06,1.0,0.5752119421958923,0.8918101739530311
683,1.4315730823000195e-06,1.0,0.5755043029785156,0.8918101739530311
684,1.4241225017030956e-06,1.0,0.5754134058952332,0.8918101739530311
685,1.4134790262687602e-06,1.0,0.5755385756492615,0.8918101739530311
686,1.4049639958102489e-06,1.0,0.5756884217262268,0.8918101739530311
687,1.4017708735991619e-06,1.0,0.5758512616157532,0.8918101739530311
688,1.3964490790385753e-06,1.0,0.5760682821273804,0.8918101739530311
689,1.3900628346164012e-06,1.0,0.5761319994926453,0.8918101739530311
690,1.3826122540194774e-06,1.0,0.5764221549034119,0.8918101739530311
691,1.3751617871093913e-06,1.0,0.5765979886054993,0.8918101739530311
692,1.3740974509346415e-06,1.0,0.5764499306678772,0.8918101739530311
693,1.365582534162968e-06,1.0,0.5767327547073364,0.8918101739530311
694,1.3645181979882182e-06,1.0,0.5768090486526489,0.8918101739530311
695,1.3570676173912943e-06,1.0,0.5769983530044556,0.8918101739530311
696,1.3560031675297068e-06,1.0,0.5770981907844543,0.8918101739530311
697,1.3496170367943705e-06,1.0,0.5773645639419556,0.8918101739530311
698,1.3464239145832835e-06,1.0,0.577546238899231,0.8918101739530311
699,1.341102120022697e-06,1.0,0.5774062275886536,0.8918101739530311
700,1.3389734476731974e-06,1.0,0.5775777101516724,0.8918101739530311
701,1.3272654086904367e-06,1.0,0.577657163143158,0.8918101739530311
702,1.3251366226540995e-06,1.0,0.5779076218605042,0.8918101739530311
703,1.3208791642682627e-06,1.0,0.5779370069503784,0.8918101739530311
704,1.312364247496589e-06,1.0,0.578199565410614,0.8918101739530311
705,1.309171125285502e-06,1.0,0.5783953070640564,0.8918101739530311
706,1.2985274224774912e-06,1.0,0.5783535838127136,0.8918101739530311
707,1.2953343002664042e-06,1.0,0.5785695910453796,0.8918101739530311
708,1.2889482832179056e-06,1.0,0.5786447525024414,0.8918101739530311
709,1.284690711145231e-06,1.0,0.5789393186569214,0.8918101739530311
710,1.2804332527593942e-06,1.0,0.5788752436637878,0.8918101739530311
711,1.274047122024058e-06,1.0,0.579217255115509,0.8918101739530311
712,1.2708539998129709e-06,1.0,0.5794019103050232,0.8918101739530311
713,1.2687252137766336e-06,1.0,0.5792121291160583,0.8918101739530311
714,1.2655320915655466e-06,1.0,0.5795561075210571,0.8918101739530311
715,1.2612746331797098e-06,1.0,0.5795930027961731,0.8918101739530311
716,1.257017174793873e-06,1.0,0.5797590017318726,0.8918101739530311
717,1.250630930371699e-06,1.0,0.5798484683036804,0.8918101739530311
718,1.239987227563688e-06,1.0,0.5799113512039185,0.8918101739530311
719,1.2389228913889383e-06,1.0,0.5800685286521912,0.8918101739530311
720,1.235729882864689e-06,1.0,0.5801773071289062,0.8918101739530311
721,1.2314724244788522e-06,1.0,0.5801696181297302,0.8918101739530311
722,1.2282793022677652e-06,1.0,0.5805858373641968,0.8918101739530311
723,1.2240218438819284e-06,1.0,0.5807458162307739,0.8918101739530311
724,1.2197643854960916e-06,1.0,0.5805462598800659,0.8918101739530311
725,1.2123139185860055e-06,1.0,0.5807328224182129,0.8918101739530311
726,1.2037990018143319e-06,1.0,0.5807811617851257,0.8918101739530311
727,1.2027347793264198e-06,1.0,0.5811399817466736,0.8918101739530311
728,1.2006059932900826e-06,1.0,0.5811721682548523,0.8918101739530311
729,1.1963485349042458e-06,1.0,0.5812993049621582,0.8918101739530311
730,1.1899622904820717e-06,1.0,0.581572949886322,0.8918101739530311
731,1.185704832096235e-06,1.0,0.5817388296127319,0.8918101739530311
732,1.1771899153245613e-06,1.0,0.5818697810173035,0.8918101739530311
733,1.1708036709023872e-06,1.0,0.5819085240364075,0.8918101739530311
734,1.1665462125165504e-06,1.0,0.5820900797843933,0.8918101739530311
735,1.164417540167051e-06,1.0,0.5820654630661011,0.8918101739530311
736,1.1527093874974526e-06,1.0,0.5824109315872192,0.8918101739530311
737,1.150580715147953e-06,1.0,0.5823284387588501,0.8918101739530311
738,1.1527093874974526e-06,1.0,0.5826425552368164,0.8918101739530311
739,1.1463232567621162e-06,1.0,0.5828973650932312,0.8918101739530311
740,1.141001348514692e-06,1.0,0.5826020836830139,0.8918101739530311
741,1.1388726761651924e-06,1.0,0.5828606486320496,0.8918101739530311
742,1.135679667640943e-06,1.0,0.5829237103462219,0.8918101739530311
743,1.1303578730803565e-06,1.0,0.5830751061439514,0.8918101739530311
744,1.1271647508692695e-06,1.0,0.5831376910209656,0.8918101739530311
745,1.1207785064470954e-06,1.0,0.5831611752510071,0.8918101739530311
746,1.1143922620249214e-06,1.0,0.5834106802940369,0.8918101739530311
747,1.1058773452532478e-06,1.0,0.5835608839988708,0.8918101739530311
748,1.1005555506926612e-06,1.0,0.5835262537002563,0.8918101739530311
749,1.0941693062704871e-06,1.0,0.5840840935707092,0.8918101739530311
750,1.0941694199573249e-06,1.0,0.5843218564987183,0.8918101739530311
751,1.0888476253967383e-06,1.0,0.5841509699821472,0.8918101739530311
752,1.086718839360401e-06,1.0,0.5843597650527954,0.8918101739530311
753,1.0845900533240638e-06,1.0,0.5842891335487366,0.8918101739530311
754,1.0782039225887274e-06,1.0,0.5846607089042664,0.8918101739530311
755,1.0760751365523902e-06,1.0,0.5847640037536621,0.8918101739530311
756,1.0728820143413031e-06,1.0,0.5848460793495178,0.8918101739530311
757,1.068624669642304e-06,1.0,0.5850816965103149,0.8918101739530311
758,1.06223842522013e-06,1.0,0.5849966406822205,0.8918101739530311
759,1.0579809668342932e-06,1.0,0.5851864218711853,0.8918101739530311
760,1.055852180797956e-06,1.0,0.5854673385620117,0.8918101739530311
761,1.0515948360989569e-06,1.0,0.5853838324546814,0.8918101739530311
762,1.0462730415383703e-06,1.0,0.5857349634170532,0.8918101739530311
763,1.0452087053636205e-06,1.0,0.5858680009841919,0.8918101739530311
764,1.0420155831525335e-06,1.0,0.5856782793998718,0.8918101739530311
765,1.0366936749051092e-06,1.0,0.5860003232955933,0.8918101739530311
766,1.0324362165192724e-06,1.0,0.5860326886177063,0.8918101739530311
767,1.0260499720970984e-06,1.0,0.5863804221153259,0.8918101739530311
768,1.0249856359223486e-06,1.0,0.5865401029586792,0.8918101739530311
769,1.0260499720970984e-06,1.0,0.586553156375885,0.8918101739530311
770,1.0185993915001745e-06,1.0,0.5865949988365173,0.8918101739530311
771,1.0143419331143377e-06,1.0,0.5866020321846008,0.8918101739530311
772,1.0090201385537512e-06,1.0,0.5869595408439636,0.8918101739530311
773,1.0026340078184148e-06,1.0,0.586972177028656,0.8918101739530311
774,1.0015695579568273e-06,1.0,0.586968719959259,0.8918101739530311
775,9.98376549432578e-07,1.0,0.5874200463294983,0.8918101739530311
776,9.973120995709905e-07,1.0,0.5874122977256775,0.8918101739530311
777,9.91990305010404e-07,1.0,0.5876272320747375,0.8918101739530311
778,9.91990305010404e-07,1.0,0.5876455307006836,0.8918101739530311
779,9.834753882387304e-07,1.0,0.5878120064735413,0.8918101739530311
780,9.845397244134801e-07,1.0,0.5880308151245117,0.8918101739530311
781,9.78153479991306e-07,1.0,0.5878854393959045,0.8918101739530311
782,9.728316854307195e-07,1.0,0.5880197882652283,0.8918101739530311
783,9.685742270448827e-07,1.0,0.5880454778671265,0.8918101739530311
784,9.664455546953832e-07,1.0,0.588262677192688,0.8918101739530311
785,9.64316768659046e-07,1.0,0.5882247686386108,0.8918101739530311
786,9.621879826227087e-07,1.0,0.5886361002922058,0.8918101739530311
787,9.56866188062122e-07,1.0,0.5888813734054565,0.8918101739530311
788,9.547374020257848e-07,1.0,0.5886434316635132,0.8918101739530311
789,9.515443366581167e-07,1.0,0.5887876749038696,0.8918101739530311
790,9.451581490793615e-07,1.0,0.5887962579727173,0.8918101739530311
791,9.419650837116933e-07,1.0,0.5890945196151733,0.8918101739530311
792,9.398363545187749e-07,1.0,0.5891125798225403,0.8918101739530311
793,9.29192651710764e-07,1.0,0.5890923738479614,0.8918101739530311
794,9.334501669400197e-07,1.0,0.5893595814704895,0.8918101739530311
795,9.29192651710764e-07,1.0,0.5896520614624023,0.8918101739530311
796,9.259995863430959e-07,1.0,0.5896936655044556,0.8918101739530311
797,9.249351933249272e-07,1.0,0.5898603796958923,0.8918101739530311
798,9.18549005746172e-07,1.0,0.5898856520652771,0.8918101739530311
799,9.142914905169164e-07,1.0,0.589786946773529,0.8918101739530311
800,9.100340321310796e-07,1.0,0.5901671648025513,0.8918101739530311
801,9.068409667634114e-07,1.0,0.5901915431022644,0.8918101739530311
802,9.036479013957432e-07,1.0,0.5902409553527832,0.8918101739530311
803,8.961973207988194e-07,1.0,0.5906787514686584,0.8918101739530311
804,8.930041985877324e-07,1.0,0.5906127095222473,0.8918101739530311
805,8.898110763766454e-07,1.0,0.5907017588615417,0.8918101739530311
806,8.898110763766454e-07,1.0,0.5907403230667114,0.8918101739530311
807,8.866180110089772e-07,1.0,0.590652346611023,0.8918101739530311
808,8.823604957797215e-07,1.0,0.5908806920051575,0.8918101739530311
809,8.770386443757161e-07,1.0,0.5909147262573242,0.8918101739530311
810,8.738455790080479e-07,1.0,0.5912215113639832,0.8918101739530311
811,8.717168498151295e-07,1.0,0.5911656022071838,0.8918101739530311
812,8.695880637787923e-07,1.0,0.591489315032959,0.8918101739530311
813,8.66395055254543e-07,1.0,0.5916827917098999,0.8918101739530311
814,8.632019330434559e-07,1.0,0.5914996862411499,0.8918101739530311
815,8.610732038505375e-07,1.0,0.5917316675186157,0.8918101739530311
816,8.589444746576191e-07,1.0,0.5916386246681213,0.8918101739530311
817,8.557513524465321e-07,1.0,0.5919017195701599,0.8918101739530311
818,8.525582302354451e-07,1.0,0.5920954346656799,0.8918101739530311
819,8.525583439222828e-07,1.0,0.5921599268913269,0.8918101739530311
820,8.483008286930271e-07,1.0,0.5922580361366272,0.8918101739530311
821,8.408502480961033e-07,1.0,0.5925013422966003,0.8918101739530311
822,8.355283966920979e-07,1.0,0.592598557472229,0.8918101739530311
823,8.387215189031849e-07,1.0,0.5927503705024719,0.8918101739530311
824,8.323353313244297e-07,1.0,0.5928287506103516,0.8918101739530311
825,8.291422091133427e-07,1.0,0.5926820635795593,0.8918101739530311
826,8.270134799204243e-07,1.0,0.5930538177490234,0.8918101739530311
827,8.227560215345875e-07,1.0,0.5930389761924744,0.8918101739530311
828,8.216916285164189e-07,1.0,0.5933088660240173,0.8918101739530311
829,8.174341701305821e-07,1.0,0.5933047533035278,0.8918101739530311
830,8.163697771124134e-07,1.0,0.5934872627258301,0.8918101739530311
831,8.099835895336582e-07,1.0,0.5938915014266968,0.8918101739530311
832,8.046617381296528e-07,1.0,0.5936223268508911,0.8918101739530311
833,8.00404279743816e-07,1.0,0.593778133392334,0.8918101739530311
834,7.993398867256474e-07,1.0,0.5938206911087036,0.8918101739530311
835,7.961469350448169e-07,1.0,0.5939409136772156,0.8918101739530311
836,7.908250836408115e-07,1.0,0.593949019908905,0.8918101739530311
837,7.88696411291312e-07,1.0,0.5941771268844604,0.8918101739530311
838,7.865676820983936e-07,1.0,0.5942593812942505,0.8918101739530311
839,7.833745598873065e-07,1.0,0.5941655039787292,0.8918101739530311
840,7.801814376762195e-07,1.0,0.5943226218223572,0.8918101739530311
841,7.780527084833011e-07,1.0,0.5944008231163025,0.8918101739530311
842,7.748595862722141e-07,1.0,0.5945676565170288,0.8918101739530311
843,7.706021278863773e-07,1.0,0.5945485234260559,0.8918101739530311
844,7.674090056752902e-07,1.0,0.594600260257721,0.8918101739530311
845,7.663446695005405e-07,1.0,0.594674289226532,0.8918101739530311
846,7.61022818096535e-07,1.0,0.5947355031967163,0.8918101739530311
847,7.557009666925296e-07,1.0,0.5951279997825623,0.8918101739530311
848,7.557009666925296e-07,1.0,0.595085084438324,0.8918101739530311
849,7.525078444814426e-07,1.0,0.595110297203064,0.8918101739530311
850,7.503791152885242e-07,1.0,0.5952285528182983,0.8918101739530311
851,7.43992927709769e-07,1.0,0.5948939919471741,0.8918101739530311
852,7.461216569026874e-07,1.0,0.5955213904380798,0.8918101739530311
853,7.376066832875949e-07,1.0,0.5955740809440613,0.8918101739530311
854,7.354779540946765e-07,1.0,0.5956665873527527,0.8918101739530311
855,7.40799805498682e-07,1.0,0.5958878397941589,0.8918101739530311
856,7.312204957088397e-07,1.0,0.5956256985664368,0.8918101739530311
857,7.290917665159213e-07,1.0,0.5959033370018005,0.8918101739530311
858,7.280273734977527e-07,1.0,0.5960162878036499,0.8918101739530311
859,7.248342512866657e-07,1.0,0.5962234735488892,0.8918101739530311
860,7.237699151119159e-07,1.0,0.5961257219314575,0.8918101739530311
861,7.216411859189975e-07,1.0,0.5964396595954895,0.8918101739530311
862,7.163193345149921e-07,1.0,0.5966895222663879,0.8918101739530311
863,7.141906053220737e-07,1.0,0.5964760780334473,0.8918101739530311
864,7.109975399544055e-07,1.0,0.5966065526008606,0.8918101739530311
865,7.099332037796557e-07,1.0,0.5965996980667114,0.8918101739530311
866,7.088688107614871e-07,1.0,0.5966482758522034,0.8918101739530311
867,7.035469593574817e-07,1.0,0.5966917872428894,0.8918101739530311
868,7.003538371463947e-07,1.0,0.5969763398170471,0.8918101739530311
869,6.982251079534763e-07,1.0,0.5969377160072327,0.8918101739530311
870,6.960963787605579e-07,1.0,0.5973725318908691,0.8918101739530311
871,6.929032565494708e-07,1.0,0.5975262522697449,0.8918101739530311
872,6.929032565494708e-07,1.0,0.5972070693969727,0.8918101739530311
873,6.918389203747211e-07,1.0,0.5974926352500916,0.8918101739530311
874,6.865170689707156e-07,1.0,0.5974005460739136,0.8918101739530311
875,6.865170689707156e-07,1.0,0.5976455807685852,0.8918101739530311
876,6.833239467596286e-07,1.0,0.5978068709373474,0.8918101739530311
877,6.811952175667102e-07,1.0,0.5975614786148071,0.8918101739530311
878,6.801308813919604e-07,1.0,0.5978474020957947,0.8918101739530311
879,6.790664883737918e-07,1.0,0.5978211164474487,0.8918101739530311
880,6.769377591808734e-07,1.0,0.5981682538986206,0.8918101739530311
881,6.74809029987955e-07,1.0,0.5983237028121948,0.8918101739530311
882,6.71615907776868e-07,1.0,0.5982002019882202,0.8918101739530311
883,6.694872354273684e-07,1.0,0.5984010100364685,0.8918101739530311
884,6.662941132162814e-07,1.0,0.5983411073684692,0.8918101739530311
885,6.652298338849505e-07,1.0,0.5984436869621277,0.8918101739530311
886,6.599080393243639e-07,1.0,0.5984734892845154,0.8918101739530311
887,6.620367116738635e-07,1.0,0.5990098118782043,0.8918101739530311
888,6.545861879203585e-07,1.0,0.5989909768104553,0.8918101739530311
889,6.513931225526903e-07,1.0,0.5991754531860352,0.8918101739530311
890,6.513931225526903e-07,1.0,0.5994321703910828,0.8918101739530311
891,6.535217949021899e-07,1.0,0.5992525219917297,0.8918101739530311
892,6.439425419557665e-07,1.0,0.5993203520774841,0.8918101739530311
893,6.407494197446795e-07,1.0,0.5993183255195618,0.8918101739530311
894,6.375562975335924e-07,1.0,0.5997238755226135,0.8918101739530311
895,6.364919613588427e-07,1.0,0.5996891260147095,0.8918101739530311
896,6.35427568340674e-07,1.0,0.5996331572532654,0.8918101739530311
897,6.301057169366686e-07,1.0,0.5997763872146606,0.8918101739530311
898,6.258482585508318e-07,1.0,0.5999583601951599,0.8918101739530311
899,6.279769877437502e-07,1.0,0.6001225113868713,0.8918101739530311
900,6.237195293579134e-07,1.0,0.5998255610466003,0.8918101739530311
901,6.237195293579134e-07,1.0,0.599957287311554,0.8918101739530311
902,6.21590800164995e-07,1.0,0.6000901460647583,0.8918101739530311
903,6.194620141286578e-07,1.0,0.6005197167396545,0.8918101739530311
904,6.205264071468264e-07,1.0,0.6006196737289429,0.8918101739530311
905,6.194620141286578e-07,1.0,0.600551187992096,0.8918101739530311
906,6.173332849357394e-07,1.0,0.6007171273231506,0.8918101739530311
907,6.15204555742821e-07,1.0,0.6003760695457458,0.8918101739530311
908,6.109470973569842e-07,1.0,0.6009392142295837,0.8918101739530311
909,6.109470973569842e-07,1.0,0.6010615229606628,0.8918101739530311
910,6.077539751458971e-07,1.0,0.6011801958084106,0.8918101739530311
911,6.045608529348101e-07,1.0,0.601459801197052,0.8918101739530311
912,6.024321237418917e-07,1.0,0.6012204885482788,0.8918101739530311
913,6.003033945489733e-07,1.0,0.6014900803565979,0.8918101739530311
914,5.992390583742235e-07,1.0,0.6015952825546265,0.8918101739530311
915,5.981746653560549e-07,1.0,0.6018005609512329,0.8918101739530311
916,5.971102723378863e-07,1.0,0.6018447875976562,0.8918101739530311
917,5.928528139520495e-07,1.0,0.6023370027542114,0.8918101739530311
918,5.917884777772997e-07,1.0,0.6025530695915222,0.8918101739530311
919,5.896596917409624e-07,1.0,0.6021209359169006,0.8918101739530311
920,5.864666263732943e-07,1.0,0.602412760257721,0.8918101739530311
921,5.832735041622072e-07,1.0,0.602441132068634,0.8918101739530311
922,5.811447749692888e-07,1.0,0.6026254892349243,0.8918101739530311
923,5.790161026197893e-07,1.0,0.6026266813278198,0.8918101739530311
924,5.768873734268709e-07,1.0,0.6029759049415588,0.8918101739530311
925,5.779517096016207e-07,1.0,0.6030745506286621,0.8918101739530311
926,5.768873734268709e-07,1.0,0.6029195189476013,0.8918101739530311
927,5.715655220228655e-07,1.0,0.6032511591911316,0.8918101739530311
928,5.747586442339525e-07,1.0,0.6032322645187378,0.8918101739530311
929,5.683723998117785e-07,1.0,0.6033769845962524,0.8918101739530311
930,5.705011290046968e-07,1.0,0.6034103035926819,0.8918101739530311
931,5.619862122330233e-07,1.0,0.603630006313324,0.8918101739530311
932,5.651792776006914e-07,1.0,0.6037253737449646,0.8918101739530311
933,5.598575398835237e-07,1.0,0.6040714979171753,0.8918101739530311
934,5.577288106906053e-07,1.0,0.6044236421585083,0.8918101739530311
935,5.545356884795183e-07,1.0,0.6041897535324097,0.8918101739530311
936,5.524069592865999e-07,1.0,0.6043065786361694,0.8918101739530311
937,5.513425662684313e-07,1.0,0.6042906641960144,0.8918101739530311
938,5.449563786896761e-07,1.0,0.6048752665519714,0.8918101739530311
939,5.396345272856706e-07,1.0,0.6049292683601379,0.8918101739530311
940,5.38570134267502e-07,1.0,0.6048205494880676,0.8918101739530311
941,5.41763256478589e-07,1.0,0.6049152612686157,0.8918101739530311
942,5.353770688998338e-07,1.0,0.605099618434906,0.8918101739530311
943,5.353770688998338e-07,1.0,0.6053044199943542,0.8918101739530311
944,5.321839466887468e-07,1.0,0.6053047776222229,0.8918101739530311
945,5.289908244776598e-07,1.0,0.6053019165992737,0.8918101739530311
946,5.257977022665727e-07,1.0,0.6057939529418945,0.8918101739530311
947,5.268620952847414e-07,1.0,0.6057173609733582,0.8918101739530311
948,5.24733366091823e-07,1.0,0.6056080460548401,0.8918101739530311
949,5.236689730736543e-07,1.0,0.605932891368866,0.8918101739530311
950,5.204759077059862e-07,1.0,0.6056953072547913,0.8918101739530311
951,5.172827854948991e-07,1.0,0.6058746576309204,0.8918101739530311
952,5.162183924767305e-07,1.0,0.6059420704841614,0.8918101739530311
953,5.140896632838121e-07,1.0,0.6061511635780334,0.8918101739530311
954,5.119609340908937e-07,1.0,0.6060495972633362,0.8918101739530311
955,5.087678118798067e-07,1.0,0.606566846370697,0.8918101739530311
956,5.119609340908937e-07,1.0,0.6069108843803406,0.8918101739530311
957,5.098322048979753e-07,1.0,0.6064515113830566,0.8918101739530311
958,5.066390826868883e-07,1.0,0.6067495346069336,0.8918101739530311
959,5.055747465121385e-07,1.0,0.6067364811897278,0.8918101739530311
960,5.023816243010515e-07,1.0,0.6070375442504883,0.8918101739530311
961,5.013172312828829e-07,1.0,0.6071903109550476,0.8918101739530311
962,4.991885589333833e-07,1.0,0.6072587966918945,0.8918101739530311
963,4.981241659152147e-07,1.0,0.6074332594871521,0.8918101739530311
964,4.981241659152147e-07,1.0,0.607314944267273,0.8918101739530311
965,4.991885589333833e-07,1.0,0.6074947714805603,0.8918101739530311
966,4.970598297404649e-07,1.0,0.6076251864433289,0.8918101739530311
967,4.938667075293779e-07,1.0,0.6075512766838074,0.8918101739530311
968,4.906735853182909e-07,1.0,0.6080703139305115,0.8918101739530311
969,4.906736421617097e-07,1.0,0.6080659627914429,0.8918101739530311
970,4.864161269324541e-07,1.0,0.6081139445304871,0.8918101739530311
971,4.864161269324541e-07,1.0,0.6083482503890991,0.8918101739530311
972,4.853517907577043e-07,1.0,0.6079343557357788,0.8918101739530311
973,4.821586685466173e-07,1.0,0.6082334518432617,0.8918101739530311
974,4.7683684556432127e-07,1.0,0.608199417591095,0.8918101739530311
975,4.810943323718675e-07,1.0,0.6085902452468872,0.8918101739530311
976,4.7470811637140287e-07,1.0,0.608661949634552,0.8918101739530311
977,4.768368739860307e-07,1.0,0.6084650754928589,0.8918101739530311
978,4.7151502258202527e-07,1.0,0.6085330247879028,0.8918101739530311
979,4.6938629338910687e-07,1.0,0.608533501625061,0.8918101739530311
980,4.7470811637140287e-07,1.0,0.6088942289352417,0.8828274899703471
981,4.6725753577447904e-07,1.0,0.6087700128555298,0.8828274899703471
982,4.6406444198510144e-07,1.0,0.6091369986534119,0.8828274899703471
983,4.6725753577447904e-07,1.0,0.6092387437820435,0.8828274899703471
984,4.6087134819572384e-07,1.0,0.6091351509094238,0.8828274899703471
985,4.6406444198510144e-07,1.0,0.6094101071357727,0.8828274899703471
986,4.555494967917184e-07,1.0,0.6090030670166016,0.8828274899703471
987,4.5235643142405024e-07,1.0,0.6095137000083923,0.8828274899703471
988,4.544851321952592e-07,1.0,0.6096547245979309,0.8828274899703471
989,4.48098944616504e-07,1.0,0.6098969578742981,0.8828274899703471
990,4.459702154235856e-07,1.0,0.6099770665168762,0.8828274899703471
991,4.470345800200448e-07,1.0,0.6097527742385864,0.8828274899703471
992,4.449058508271264e-07,1.0,0.6100020408630371,0.8828274899703471
993,4.427770932124986e-07,1.0,0.6098586916923523,0.8828274899703471
994,4.427770932124986e-07,1.0,0.6101078391075134,0.8828274899703471
995,4.406483640195802e-07,1.0,0.6101941466331482,0.8828274899703471
996,4.39583999423121e-07,1.0,0.6102038621902466,0.8828274899703471
997,4.39583999423121e-07,1.0,0.6102201342582703,0.8828274899703471
998,4.385196348266618e-07,1.0,0.6104814410209656,0.8828274899703471
999,4.3639087721203396e-07,1.0,0.6106342077255249,0.8828274899703471
