,loss,recall,val_loss,val_recall
0,1.4653520584106445,0.6026041666666666,1.429731011390686,0.5424099860934969
1,1.486438274383545,0.51953125,1.4335060119628906,0.5800088652482269
2,1.455436110496521,0.51953125,1.42656409740448,0.5758717494089834
3,1.4256569147109985,0.53515625,1.3971344232559204,0.5711436170212766
4,1.4071546792984009,0.60546875,1.3861958980560303,0.5878419452887542
5,1.3835480213165283,0.58203125,1.3601949214935303,0.5711436170212766
6,1.3624427318572998,0.6497395833333334,1.3595300912857056,0.673965799763673
7,1.3447345495224,0.6966145833333334,1.3214054107666016,0.6486310035512168
8,1.3280911445617676,0.6791294642857143,1.30063796043396,0.6130136215242604
9,1.312690019607544,0.6948784722222222,1.2824413776397705,0.6758498954420951
10,1.2975852489471436,0.7257575757575757,1.2735563516616821,0.6737838156721135
11,1.277596354484558,0.7424606643356644,1.295835256576538,0.6072316045853281
12,1.2653270959854126,0.7424606643356644,1.27370285987854,0.6369824058919809
13,1.2621928453445435,0.7250600961538461,1.2014070749282837,0.7111521457266146
14,1.2431451082229614,0.7414434523809523,1.2413619756698608,0.639469548379123
15,1.2323975563049316,0.7411458333333333,1.2356770038604736,0.5898653897324112
16,1.221283197402954,0.7434151785714286,1.2344650030136108,0.524737109324875
17,1.1978440284729004,0.7475818452380952,1.2143664360046387,0.5720752528598273
18,1.1818616390228271,0.7527901785714286,1.193358063697815,0.6333765672861418
19,1.1661865711212158,0.7503720238095237,1.1890583038330078,0.6362802145647891
20,1.1521457433700562,0.7505580357142857,1.1138008832931519,0.6972062733365928
21,1.1435253620147705,0.7503720238095237,1.119568109512329,0.7363615998855364
22,1.134324073791504,0.7526041666666666,1.1308642625808716,0.6952794624603137
23,1.1229864358901978,0.7527901785714286,1.0930386781692505,0.7143003622657879
24,1.1171698570251465,0.7527901785714286,1.1448845863342285,0.6208683759437303
25,1.118564248085022,0.74609375,1.118539810180664,0.6804206018567719
26,1.112280011177063,0.7682291666666666,1.1382062435150146,0.6486383646888969
27,1.0937784910202026,0.7505580357142857,1.0517306327819824,0.7064527088684895
28,1.0802911520004272,0.7527901785714286,1.0556671619415283,0.7206182479852693
29,1.071372151374817,0.7527901785714286,1.0247637033462524,0.7358191818032241
30,1.064826250076294,0.7526041666666666,1.0228651762008667,0.7250296959738451
31,1.0614111423492432,0.7515882554945055,1.0292106866836548,0.7278384932640255
32,1.047765851020813,0.7527901785714286,1.0399116277694702,0.6985836297272469
33,1.037969708442688,0.7527901785714286,0.959315299987793,0.7421433855742369
34,1.0324420928955078,0.7527901785714286,0.9468895196914673,0.7320193454103029
35,1.0278542041778564,0.7496651785714286,1.0084389448165894,0.6685906316890359
36,1.0297164916992188,0.7215401785714286,1.0434908866882324,0.7135952030632884
37,1.0120891332626343,0.7527901785714286,0.9130315780639648,0.7324595100525956
38,1.010117769241333,0.7475818452380952,0.9881654381752014,0.7149828924031052
39,1.0047881603240967,0.7527901785714286,0.8527016043663025,0.7541150944209455
40,0.9974795579910278,0.7684151785714286,0.8545703887939453,0.7443714530150699
41,0.9865857362747192,0.7684151785714286,0.895355224609375,0.7369296306530346
42,0.9779844880104065,0.7530048076923077,0.794882595539093,0.7406040128114598
43,0.968656063079834,0.7527901785714286,0.8820050358772278,0.73790155864624
44,0.959540843963623,0.7686298076923077,0.8164662718772888,0.7525636548242934
45,0.9544806480407715,0.7688802083333334,0.8326190114021301,0.7403884039522343
46,0.9533606171607971,0.7840401785714286,0.9233013987541199,0.7181755591728998
47,0.9514842629432678,0.7532552083333334,0.7541558146476746,0.7267041729940665
48,0.9367668032646179,0.7686298076923077,0.8073105812072754,0.7376683452481331
49,0.9287229776382446,0.7996651785714286,0.7933456301689148,0.7471608966289821
50,0.9263235330581665,0.7686298076923077,0.7807547450065613,0.7374724305442397
51,0.9161415100097656,0.8116319444444444,0.7578936815261841,0.7465546618472158
52,0.9114784598350525,0.7998798076923077,0.7886792421340942,0.7494407291880703
53,0.9063088297843933,0.8465401785714286,0.74836266040802,0.7419499629606015
54,0.900275707244873,0.7848011363636364,0.780597984790802,0.7394900597826133
55,0.893735945224762,0.7842548076923077,0.7269186973571777,0.751068484313166
56,0.8885630369186401,0.7691761363636364,0.7566340565681458,0.7451959019113279
57,0.8904257416725159,0.7965401785714286,0.7283360958099365,0.726339573547021
58,0.8838698863983154,0.7824652777777777,0.7644172310829163,0.6994516756883775
59,0.8722680807113647,0.8001302083333334,0.7371736168861389,0.7510432854182859
60,0.8731017112731934,0.7699652777777778,0.6973025798797607,0.7432742543114891
61,0.8634437322616577,0.8424479166666666,0.7512993812561035,0.7441781081408747
62,0.8520486950874329,0.8486328125,0.7019869089126587,0.7447685199945844
63,0.8518072366714478,0.8272569444444444,0.6602478623390198,0.7413959612097915
64,0.8415447473526001,0.857717803030303,0.7637408971786499,0.7143383689793266
65,0.8331460952758789,0.8590494791666666,0.7437506914138794,0.75081019748573
66,0.8231200575828552,0.8597470238095237,0.6843135356903076,0.7490046325817608
67,0.8196429014205933,0.8434244791666666,0.7259058356285095,0.7468970040335293
68,0.8153082728385925,0.8528645833333334,0.6931663751602173,0.7460733021903241
69,0.8069689273834229,0.9059244791666666,0.6924542188644409,0.7462107396149952
70,0.8027496933937073,0.8902994791666666,0.7383348345756531,0.7425343500077548
71,0.7975468635559082,0.8434244791666666,0.6838590502738953,0.75047724733895
72,0.7932062149047852,0.9066220238095237,0.6872221827507019,0.7496073961499499
73,0.7900076508522034,0.8580729166666666,0.7032620310783386,0.7469270450786414
74,0.7842898368835449,0.8434244791666666,0.7404981851577759,0.7449015006860757
75,0.7763385772705078,0.8753720238095237,0.6792439222335815,0.7415357554187345
76,0.7719590663909912,0.8441220238095237,0.6831938624382019,0.7460019236083069
77,0.7670653462409973,0.9170386904761904,0.663604736328125,0.7520146766157411
78,0.7668540477752686,0.8538411458333334,0.77024245262146,0.6800567128891601
79,0.7717715501785278,0.8330078125,0.6817173361778259,0.7274508081555956
80,0.7665980458259583,0.795217803030303,0.6551552414894104,0.750323829047234
81,0.7667447924613953,0.8415464743589743,0.6308964490890503,0.735421300527683
82,0.76612389087677,0.8880208333333333,0.7532284259796143,0.7226333693886885
83,0.8035954833030701,0.7923177083333334,0.6731422543525696,0.729264848134529
84,0.7656340003013611,0.78515625,0.714607298374176,0.7028097513203901
85,0.7419630885124207,0.8746744791666666,0.6497651934623718,0.7337688021198667
86,0.7266371250152588,0.8857886904761905,0.658437192440033,0.7425725914156774
87,0.7171765565872192,0.9014136904761905,0.6629680395126343,0.7452360238264499
88,0.7097658514976501,0.9066220238095237,0.6766980886459351,0.7449900375432299
89,0.705203652381897,0.90234375,0.6883363723754883,0.7450244446255093
90,0.7009541988372803,0.8919270833333333,0.6702894568443298,0.7481325638506497
91,0.700638473033905,0.9066220238095237,0.6547332406044006,0.7401605668759929
92,0.7017546892166138,0.8649553571428571,0.6830013394355774,0.7495835321101286
93,0.6937754154205322,0.9059244791666666,0.6672618985176086,0.738583351734948
94,0.6888993382453918,0.8798828125,0.6555503010749817,0.7394536363951263
95,0.6876575350761414,0.8897569444444444,0.6526243090629578,0.7367710338322044
96,0.6778736114501953,0.8815104166666666,0.6925297975540161,0.7431345653952041
97,0.6737889051437378,0.8919270833333333,0.6174482703208923,0.7528543678543684
98,0.6654921770095825,0.9244791666666666,0.6434558033943176,0.7479227460876404
99,0.6596313118934631,0.8932291666666666,0.7038210034370422,0.7307354150971177
100,0.6548255085945129,0.9348958333333334,0.6488360166549683,0.7481301465477004
101,0.6523078083992004,0.9075520833333333,0.7316904067993164,0.7459716372083399
102,0.6481748223304749,0.9401041666666666,0.6564189791679382,0.7478680155541867
103,0.6451290845870972,0.9075520833333333,0.6778981685638428,0.7462388069967866
104,0.6386372447013855,0.9244791666666666,0.6799193024635315,0.7499060755044804
105,0.6350374221801758,0.9075520833333333,0.69417405128479,0.7427685459733337
106,0.630696713924408,0.9088541666666666,0.7279309034347534,0.7462846270160107
107,0.6286299824714661,0.9075520833333333,0.6703589558601379,0.7425920941745418
108,0.6233451962471008,0.9244791666666666,0.7155022025108337,0.7448357493570267
109,0.61899733543396,0.9335937499999999,0.6518005132675171,0.7265787659936603
110,0.6236380338668823,0.8753720238095237,0.7052162289619446,0.7280177663156394
111,0.6323172450065613,0.919921875,0.599916934967041,0.7398580905894744
112,0.635394275188446,0.8723958333333333,0.808320164680481,0.6917171835256947
113,0.6686660647392273,0.8463541666666666,0.6453542709350586,0.7468278903917208
114,0.6405640244483948,0.8585069444444444,0.7007313370704651,0.6310169834106003
115,0.6809452176094055,0.8031994047619047,0.6952853798866272,0.6885351685351683
116,0.6643727421760559,0.8694568452380952,0.5522124171257019,0.7206334558861158
117,0.6318463087081909,0.8585069444444444,0.5777512788772583,0.744847290711653
118,0.604529619216919,0.8902994791666666,0.590023398399353,0.7258676649722752
119,0.5945041179656982,0.9335937499999999,0.6343885064125061,0.7017491924938734
120,0.5829696655273438,0.9075520833333333,0.6175215244293213,0.7351187976719898
121,0.5767279267311096,0.9440104166666666,0.626696765422821,0.7226588999062405
122,0.5717678666114807,0.9088541666666666,0.6599166989326477,0.7440493175067648
123,0.5694299340248108,0.9414062499999999,0.6353566646575928,0.7220282583846415
124,0.5646956562995911,0.9088541666666666,0.6683012843132019,0.7439188554747072
125,0.5613476634025574,0.9583333333333334,0.652334451675415,0.7205804572692873
126,0.5581743121147156,0.9348958333333334,0.6666112542152405,0.7451852211027747
127,0.5564599633216858,0.9479166666666666,0.630450427532196,0.7404238723254682
128,0.5515931844711304,0.9427083333333334,0.6811676621437073,0.7447654453505521
129,0.5458791255950928,0.9479166666666666,0.6699672341346741,0.7355843191481493
130,0.541303277015686,0.9322916666666666,0.6556049585342407,0.7412784477146183
131,0.5387429594993591,0.9479166666666666,0.6835422515869141,0.7404654038829576
132,0.5364224314689636,0.9583333333333334,0.7036029696464539,0.7153468930596595
133,0.5330988168716431,0.953125,0.6458040475845337,0.7406259555062752
134,0.5291964411735535,0.9583333333333334,0.6902512311935425,0.7375142892962047
135,0.5254619121551514,0.9609375,0.6870948672294617,0.741886566939759
136,0.5207990407943726,0.9583333333333334,0.6878041625022888,0.7333381585908185
137,0.5167912840843201,0.9765625,0.6721686720848083,0.734511839618223
138,0.5138276219367981,0.967013888888889,0.690453052520752,0.7424169147440428
139,0.5153442621231079,0.9427083333333334,0.6844744682312012,0.7185379051602458
140,0.5189087390899658,0.9722222222222222,0.690431535243988,0.7292629120288697
141,0.5118175745010376,0.9322916666666666,0.7423921227455139,0.6994991410283968
142,0.5097792148590088,0.95703125,0.6122031807899475,0.7301757354150975
143,0.5038754343986511,0.9322916666666666,0.6177451610565186,0.7467056815328098
144,0.495758056640625,0.9713541666666666,0.6766844391822815,0.7433012180884526
145,0.49038541316986084,0.9739583333333334,0.6908429265022278,0.7276338033518888
146,0.4884122312068939,0.9774305555555556,0.6944640874862671,0.7423323731036502
147,0.48586323857307434,0.984375,0.6997573971748352,0.7212327620173368
148,0.4857032001018524,0.9446614583333334,0.6784486770629883,0.7485764344009032
149,0.4854346215724945,0.96875,0.7016239762306213,0.708315321400428
150,0.4847768545150757,0.9466145833333334,0.7071024775505066,0.7426325974065341
151,0.4832049012184143,0.96875,0.6804090142250061,0.7090363743821194
152,0.47647666931152344,0.9583333333333334,0.7168295979499817,0.701729919509175
153,0.47755205631256104,0.9583333333333334,0.6990315914154053,0.7375943584587207
154,0.478116899728775,0.9609375,0.7274737358093262,0.6845064470596386
155,0.4880445897579193,0.9401041666666666,0.8169110417366028,0.709979878769773
156,0.5142968893051147,0.904296875,0.6271925568580627,0.6659258781998142
157,0.49636411666870117,0.8990885416666667,0.6875505447387695,0.7375795436832675
158,0.5252549052238464,0.9027777777777778,0.6544162034988403,0.6693303347558665
159,0.4778498709201813,0.953125,0.6783283352851868,0.7089651517710033
160,0.4642479121685028,0.9765625,0.6019049286842346,0.7418298294495106
161,0.4559278190135956,0.9739583333333334,0.5936838984489441,0.6961630036630038
162,0.4522743821144104,0.9596354166666666,0.6542686223983765,0.7484414864423736
163,0.44781458377838135,0.9583333333333333,0.6433728337287903,0.7085458754208757
164,0.4408034682273865,0.96875,0.6640609502792358,0.7397828983467286
165,0.4362717270851135,0.96875,0.6891546845436096,0.7237217579504819
166,0.431477814912796,0.9791666666666666,0.6624134182929993,0.707866267892864
167,0.4279499053955078,0.984375,0.6673814058303833,0.7261613101240767
168,0.42516472935676575,0.984375,0.6806550621986389,0.7110231656641235
169,0.42209362983703613,0.96875,0.6776808500289917,0.7145459185219827
170,0.4210457503795624,0.984375,0.7037680745124817,0.7268137531302428
171,0.4175359010696411,0.9791666666666666,0.7029048800468445,0.7196876640892603
172,0.4142709970474243,0.9791666666666666,0.6971206068992615,0.7194886191428749
173,0.41238662600517273,0.984375,0.6911749243736267,0.7092344820270355
174,0.4104410707950592,0.984375,0.7010711431503296,0.716942945254116
175,0.4067317545413971,0.96875,0.6934427618980408,0.699496490507129
176,0.4043833613395691,0.984375,0.7009141445159912,0.7278638628904591
177,0.4023611545562744,0.96875,0.6930709481239319,0.6998774639466132
178,0.40093913674354553,0.984375,0.6723363399505615,0.7359586247086253
179,0.39810535311698914,0.96875,0.7072449326515198,0.688950964323305
180,0.39728647470474243,0.96875,0.6901216506958008,0.7293022048873118
181,0.3966672420501709,0.96875,0.7084910869598389,0.7040981585396481
182,0.39494577050209045,0.9739583333333333,0.6901761293411255,0.7256661000543986
183,0.3926340341567993,0.984375,0.7056805491447449,0.7048966877291348
184,0.3876984715461731,0.9791666666666666,0.6883359551429749,0.7334548317128109
185,0.38543039560317993,0.9791666666666666,0.6940582394599915,0.6887000578223985
186,0.3831922709941864,0.9791666666666666,0.6925037503242493,0.7263626331312506
187,0.38025522232055664,0.984375,0.7151008248329163,0.6909978708249986
188,0.37735363841056824,0.9791666666666666,0.6916679739952087,0.7376977125514363
189,0.3747280240058899,0.9791666666666666,0.70255047082901,0.6978095692723356
190,0.37209147214889526,0.9791666666666666,0.7043522596359253,0.7241059826698129
191,0.3699958324432373,0.984375,0.705251157283783,0.7017848591518808
192,0.3682745397090912,0.984375,0.7202633023262024,0.714046022929002
193,0.36493536829948425,0.9791666666666666,0.7094675302505493,0.7162475989337698
194,0.3633289933204651,0.9791666666666666,0.7288351655006409,0.6966290304455202
195,0.36000946164131165,0.984375,0.6939575672149658,0.7089217416744016
196,0.35776928067207336,0.9791666666666666,0.7097084522247314,0.7050972294057405
197,0.3558349907398224,0.984375,0.6935216784477234,0.7279942437389251
198,0.35370591282844543,0.984375,0.7096625566482544,0.6947686395558738
199,0.35107606649398804,0.984375,0.7077044248580933,0.720640309257331
200,0.3491671085357666,0.984375,0.7435657382011414,0.7031675643111817
201,0.34711790084838867,0.984375,0.7505513429641724,0.7200728974532171
202,0.34508004784584045,0.984375,0.7485518455505371,0.7020257367730776
203,0.34267356991767883,0.984375,0.7098327875137329,0.6947766988724438
204,0.3412683308124542,0.9791666666666666,0.7583073973655701,0.689876890249231
205,0.3380412757396698,0.984375,0.7072964906692505,0.6984141838264182
206,0.3358963429927826,0.984375,0.7233452796936035,0.7083981690098715
207,0.33356529474258423,0.984375,0.7186481952667236,0.7080011138388802
208,0.33169376850128174,0.984375,0.7328646183013916,0.6944967015844676
209,0.3297649621963501,0.9791666666666666,0.7250796556472778,0.7180241655507618
210,0.32892724871635437,0.984375,0.7643458843231201,0.6929760787872493
211,0.3263106048107147,0.9791666666666666,0.7539708614349365,0.7143273353911658
212,0.3251056671142578,0.984375,0.7262560725212097,0.7131564244463185
213,0.3233327567577362,0.9791666666666666,0.7469902634620667,0.6983967883967888
214,0.3222356140613556,0.984375,0.7727203965187073,0.7286751118267082
215,0.32046812772750854,0.9791666666666666,0.7689375877380371,0.6900531595079472
216,0.31798529624938965,0.984375,0.7636169195175171,0.7245313281084563
217,0.3170114755630493,0.984375,0.7447540163993835,0.6787271332883037
218,0.3156609535217285,0.9791666666666666,0.7516061663627625,0.7185822486221427
219,0.3160119354724884,0.984375,0.6959156394004822,0.6909972164360464
220,0.32566067576408386,0.9635416666666666,0.7447457313537598,0.7302787867504185
221,0.3492496609687805,0.9620535714285714,0.6475182771682739,0.7033194578274369
222,0.6088658571243286,0.8033854166666666,0.7825453877449036,0.6923914524535094
223,0.6994733214378357,0.7571614583333334,1.0178253650665283,0.49824395561097684
224,0.5142108798027039,0.810546875,0.7505733370780945,0.6956351715660222
225,0.5743206739425659,0.8665674603174602,0.7998093366622925,0.6855074299223243
226,0.4473457336425781,0.9095052083333334,0.6323749423027039,0.6065694790827764
227,0.4194311499595642,0.9095052083333334,0.7414067387580872,0.7227067062173443
228,0.37048864364624023,0.9407552083333334,0.7001628279685974,0.7453529774008493
229,0.3522627055644989,0.9379006410256411,0.7423843145370483,0.7611888279175509
230,0.3318037986755371,0.9641203703703703,0.7354240417480469,0.7559407741588592
231,0.32089024782180786,0.9622395833333333,0.7521852850914001,0.7516442752479985
232,0.3138695955276489,0.9622395833333333,0.7588188648223877,0.755112868809677
233,0.31172338128089905,0.9700520833333333,0.755174994468689,0.7224337615693996
234,0.31199169158935547,0.9774305555555555,0.7603227496147156,0.7411429586961498
235,0.3081006705760956,0.9739583333333333,0.7474362850189209,0.716061417896524
236,0.3013906180858612,0.9774305555555555,0.760625958442688,0.720715435077137
237,0.2995469272136688,0.9690972222222222,0.7476549744606018,0.725011941368324
238,0.29532966017723083,0.9677083333333333,0.7722316384315491,0.7171363014448118
239,0.2942837178707123,0.9708333333333333,0.7478749752044678,0.7112813604834879
240,0.2908545732498169,0.9678030303030303,0.7357941269874573,0.7362947287149412
241,0.2868070602416992,0.9739583333333333,0.7664214372634888,0.6993570948358179
242,0.2830028533935547,0.9791666666666666,0.7371010184288025,0.7374232888860546
243,0.28026148676872253,0.9739583333333333,0.7622923851013184,0.7030118915757211
244,0.27769190073013306,0.9791666666666666,0.7399928569793701,0.713180699324316
245,0.27684199810028076,0.9739583333333333,0.7513487935066223,0.7238346710421175
246,0.2773838937282562,0.9791666666666666,0.7393836379051208,0.7255849892817975
247,0.27596402168273926,0.9739583333333333,0.7576078176498413,0.6989089072865665
248,0.2707647383213043,0.9791666666666666,0.7565407752990723,0.7375119413683241
249,0.2674352824687958,0.9791666666666666,0.7749513983726501,0.7042416281512024
250,0.26502174139022827,0.9791666666666666,0.7697340250015259,0.7131319891692229
251,0.2632099986076355,0.9791666666666666,0.7777723073959351,0.714946691409457
252,0.26265156269073486,0.9791666666666666,0.7604910731315613,0.7041397284748345
253,0.2607019543647766,0.9791666666666666,0.7763184905052185,0.7024017501411115
254,0.25881823897361755,0.9791666666666666,0.7914153933525085,0.6917283809571041
255,0.25707170367240906,0.9791666666666666,0.7814699411392212,0.7112951420132269
256,0.25682008266448975,0.9791666666666666,0.809309184551239,0.6615865369854729
257,0.2544920742511749,0.9791666666666666,0.8307786583900452,0.7041691710574687
258,0.2529626786708832,0.9791666666666666,0.7834895253181458,0.6846361823755438
259,0.2517331838607788,0.9791666666666666,0.8216174840927124,0.6988487231838293
260,0.2501474618911743,0.9791666666666666,0.7744584679603577,0.6988894232245293
261,0.24988365173339844,0.9791666666666666,0.807244062423706,0.7112951420132269
262,0.2516035735607147,0.9791666666666666,0.7948743104934692,0.691762153331302
263,0.2480364739894867,0.9791666666666666,0.8228325843811035,0.70965590260803
264,0.24352151155471802,0.9791666666666666,0.7972226738929749,0.6881822816663239
265,0.24146631360054016,0.9791666666666666,0.817030131816864,0.7130876757206541
266,0.24020975828170776,0.9791666666666666,0.8345797657966614,0.6686787355670332
267,0.23840667307376862,0.9791666666666666,0.8343890309333801,0.6957521103797697
268,0.2382805347442627,0.9791666666666666,0.8478301167488098,0.6722516992463798
269,0.23637628555297852,0.9791666666666666,0.8400102257728577,0.6850843699247952
270,0.23574769496917725,0.9791666666666666,0.8623945116996765,0.6828969051043516
271,0.23404854536056519,0.9791666666666666,0.8056026101112366,0.6758500881506198
272,0.23279546201229095,0.9791666666666666,0.8811401724815369,0.6970813022674722
273,0.23057761788368225,0.9791666666666666,0.8322333097457886,0.6478679117375924
274,0.22907714545726776,0.9791666666666666,0.8759247660636902,0.697606060212443
275,0.22807838022708893,0.9791666666666666,0.833053469657898,0.6465994648574435
276,0.22628791630268097,0.9791666666666666,0.8838887810707092,0.6757709341485935
277,0.22473227977752686,0.9791666666666666,0.8562041521072388,0.6449631933275549
278,0.2228972613811493,0.9791666666666666,0.8596755862236023,0.6828631327301538
279,0.22376924753189087,0.9791666666666666,0.8817723989486694,0.6276366285408835
280,0.2352098524570465,0.9699074074074073,0.8496736884117126,0.6851934137572433
281,0.22997404634952545,0.9791666666666666,0.8657298684120178,0.6485498194673726
282,0.22392839193344116,0.9739583333333333,0.9185538291931152,0.6532174558105406
283,0.22052599489688873,0.9791666666666666,0.8979214429855347,0.6568912568912567
284,0.21837130188941956,0.9791666666666666,0.8860790133476257,0.656698689411455
285,0.21731901168823242,0.9791666666666666,0.9295426607131958,0.6637908879930153
286,0.2166244387626648,0.9791666666666666,0.8764439821243286,0.6450332710040155
287,0.2137525975704193,0.9791666666666666,0.9063662886619568,0.6815769553535509
288,0.21158452332019806,0.9791666666666666,0.8874101042747498,0.656970410893283
289,0.21014483273029327,0.984375,0.8743555545806885,0.6551669661111147
290,0.20872274041175842,0.984375,0.9272640347480774,0.656970410893283
291,0.20658794045448303,0.984375,0.8934137225151062,0.6516208668203346
292,0.20551514625549316,0.9791666666666666,0.8921548128128052,0.6534234672931478
293,0.20362243056297302,0.9791666666666666,0.896514892578125,0.6498773680023677
294,0.20343981683254242,0.984375,0.9288286566734314,0.6449768557880258
295,0.20182764530181885,0.9791666666666666,0.8730940222740173,0.6640937839741028
296,0.20079876482486725,0.9791666666666666,0.902976393699646,0.6472865215950321
297,0.19906502962112427,0.984375,0.8856010437011719,0.6692060771183108
298,0.19900548458099365,0.9791666666666666,0.8842561841011047,0.6516504176477577
299,0.1999555230140686,0.9791666666666666,0.899649977684021,0.6638869281821407
300,0.19888760149478912,0.984375,0.8517810106277466,0.6278386782642099
301,0.19728653132915497,0.9791666666666666,0.9269153475761414,0.6485388434457582
302,0.19668343663215637,0.984375,0.9239416122436523,0.637231065821491
303,0.1948738992214203,0.984375,0.9308013916015625,0.664123334801526
304,0.1934349238872528,0.9791666666666666,0.9226901531219482,0.6263043083787762
305,0.1921643763780594,0.984375,0.9436666965484619,0.6534243116025028
306,0.19162479043006897,0.9791666666666666,0.9560799598693848,0.6332403097296712
307,0.18933480978012085,0.984375,0.9646101593971252,0.6587737907285777
308,0.18956708908081055,0.984375,0.946916401386261,0.6365196072642878
309,0.18739180266857147,0.984375,0.9260807633399963,0.6489994141988821
310,0.18651442229747772,0.984375,0.9321415424346924,0.6338331339661124
311,0.18485227227210999,0.984375,0.9649218320846558,0.6485048781990268
312,0.18330755829811096,0.984375,0.9413963556289673,0.6267405220862665
313,0.18209518492221832,0.984375,0.9722424149513245,0.6539028293416588
314,0.1811445951461792,0.984375,0.9704403281211853,0.6333849464168609
315,0.1801266372203827,0.984375,0.9796262383460999,0.6418885704524
316,0.1797928512096405,0.984375,0.9764897227287292,0.6300457029180431
317,0.1784580647945404,0.984375,0.9631613492965698,0.6521297796962687
318,0.17787203192710876,0.984375,0.9581329822540283,0.6335715387843045
319,0.17781180143356323,0.984375,0.9750789999961853,0.6551981406103744
320,0.17685078084468842,0.984375,0.9572255611419678,0.6403223765989721
321,0.1756860762834549,0.984375,0.9905744791030884,0.6534250909649842
322,0.17551547288894653,0.984375,0.9356061220169067,0.606850190294339
323,0.17447176575660706,0.984375,0.9909434914588928,0.6638869281821407
324,0.17289339005947113,0.984375,0.9817954897880554,0.64366162009779
325,0.17171645164489746,0.984375,0.9832542538642883,0.6194074050457026
326,0.17038194835186005,0.9791666666666666,0.9943209886550903,0.633209914592893
327,0.16950666904449463,0.984375,0.9296558499336243,0.6298066098598011
328,0.16923823952674866,0.984375,0.9895062446594238,0.628097621448685
329,0.16754034161567688,0.984375,0.9703811407089233,0.6453941428941427
330,0.16693922877311707,0.984375,0.9709767699241638,0.638322207737101
331,0.16571441292762756,0.984375,1.0087199211120605,0.633209914592893
332,0.16568325459957123,0.984375,0.992405116558075,0.6278589416887286
333,0.16569755971431732,0.984375,1.040056586265564,0.6050447402774528
334,0.16718587279319763,0.9791666666666666,1.0074501037597656,0.6092170708527088
335,0.21154054999351501,0.9505208333333333,0.905647873878479,0.6475406715034371
336,0.348673939704895,0.8860677083333334,0.9744768738746643,0.50077261341889
337,0.49307218194007874,0.8358444940476191,0.9309467077255249,0.502121903657808
338,0.477433979511261,0.835546875,1.034925937652588,0.4955918608578184
339,0.49403876066207886,0.8567708333333333,1.0874046087265015,0.5022121608690757
340,0.36017724871635437,0.900390625,1.0159660577774048,0.5019318853427897
341,0.3222212791442871,0.9303385416666667,0.7928766012191772,0.6942968133127702
342,0.26424431800842285,0.9594494047619048,0.9533239603042603,0.5577374531496871
343,0.24947132170200348,0.951171875,0.8412315249443054,0.6041608396528605
344,0.22134488821029663,0.9620535714285714,0.8597319722175598,0.5690206498584156
345,0.2027805894613266,0.9618055555555555,0.9765197038650513,0.5957793462447715
346,0.20222756266593933,0.962673611111111,0.9007566571235657,0.6014097638964656
347,0.187492236495018,0.9641203703703703,1.001924991607666,0.530937816616008
348,0.18320758640766144,0.9670138888888888,0.9367157220840454,0.5772273367885068
349,0.18049654364585876,0.9761904761904762,1.0322998762130737,0.5113432610041653
350,0.17669782042503357,0.9670138888888888,0.900732159614563,0.5567582742316783
351,0.17631177604198456,0.9739583333333333,1.062932014465332,0.5219678740290442
352,0.1695869415998459,0.9739583333333333,0.9504438638687134,0.5256493226041098
353,0.1666499823331833,0.984375,1.0213444232940674,0.5356957109084769
354,0.16353574395179749,0.9739583333333333,0.9671859741210938,0.5166723657548126
355,0.1609880030155182,0.9791666666666666,1.0208640098571777,0.5219678740290442
356,0.1597594916820526,0.9739583333333333,0.9981139302253723,0.5113295761567038
357,0.160243958234787,0.9791666666666666,1.009063720703125,0.5179652144545762
358,0.16010130941867828,0.9739583333333333,1.0239328145980835,0.513255023640662
359,0.16164594888687134,0.9739583333333333,0.9793741106987,0.5266711480009352
360,0.1580403745174408,0.9739583333333333,1.0466947555541992,0.5080915442418102
361,0.15565483272075653,0.9739583333333333,1.036613941192627,0.5166996434416647
362,0.15248167514801025,0.984375,1.0479519367218018,0.5063184945964201
363,0.1513081043958664,0.9791666666666666,1.0070216655731201,0.5203504370924583
364,0.15028248727321625,0.9791666666666666,1.0484868288040161,0.5078514437689969
365,0.14893768727779388,0.9791666666666666,1.0128470659255981,0.5202660061569636
366,0.146856889128685,0.9791666666666666,0.989078164100647,0.5321253864338971
367,0.14568184316158295,0.984375,1.0339128971099854,0.5341052918712492
368,0.14408640563488007,0.984375,1.0102546215057373,0.5392175850154572
369,0.14351634681224823,0.984375,1.0429773330688477,0.5197140389161665
370,0.14324572682380676,0.984375,1.0138633251190186,0.5411702127659574
371,0.1411796361207962,0.984375,1.0293149948120117,0.5338984360792871
372,0.1403340846300125,0.984375,1.0014290809631348,0.5274387388616112
373,0.13976570963859558,0.984375,1.0437533855438232,0.5356714857246772
374,0.13972461223602295,0.984375,1.0048844814300537,0.5291039766970618
375,0.13903416693210602,0.9791666666666666,1.0544400215148926,0.511465087808173
376,0.13798238337039948,0.984375,1.0382599830627441,0.5273309270516717
377,0.137126624584198,0.984375,1.036420226097107,0.5168043378016782
378,0.13733354210853577,0.984375,1.0661530494689941,0.5166723657548126
379,0.13638776540756226,0.984375,1.0027605295181274,0.5463097835970174
380,0.13581740856170654,0.984375,1.0406438112258911,0.5095458671057075
381,0.13495978713035583,0.984375,1.024212121963501,0.5373601044345725
382,0.1339050829410553,0.984375,1.0317668914794922,0.5237848277608915
383,0.1330033838748932,0.984375,1.0410372018814087,0.5268741069804899
384,0.13169170916080475,0.984375,1.0378350019454956,0.5273309270516717
385,0.13132865726947784,0.984375,1.0245641469955444,0.520428535707791
386,0.13165226578712463,0.984375,1.043562889099121,0.534423125633232
387,0.1311723291873932,0.984375,0.9803066253662109,0.5273582047385239
388,0.13124486804008484,0.984375,1.040656328201294,0.5273309270516717
389,0.13046622276306152,0.984375,1.0537611246109009,0.5132144967916246
390,0.1291584074497223,0.984375,1.0216565132141113,0.5113189167510976
391,0.127945214509964,0.984375,1.0377925634384155,0.5321971527290676
392,0.12733353674411774,0.984375,1.023162603378296,0.5255342367443431
393,0.12592771649360657,0.984375,1.0415802001953125,0.5150382049983113
394,0.12535730004310608,0.984375,1.0294795036315918,0.530910271023303
395,0.12416481226682663,0.984375,1.059923529624939,0.5255342367443431
396,0.12353867292404175,0.984375,1.0547292232513428,0.5273309270516717
397,0.12266465276479721,0.984375,1.0569521188735962,0.5238180724417427
398,0.12208564579486847,0.984375,1.0388067960739136,0.523797809017224
399,0.12184149771928787,0.984375,1.0532974004745483,0.5076996439828886
400,0.12105581164360046,0.984375,1.0807281732559204,0.5063896276595744
401,0.12054511159658432,0.984375,1.0501737594604492,0.5064402862208712
402,0.11966407299041748,0.984375,1.0684443712234497,0.506024112067995
403,0.1195719763636589,0.984375,1.0813286304473877,0.5100982565011821
404,0.11882713437080383,0.984375,1.0621519088745117,0.5238180724417427
405,0.11901910603046417,0.984375,1.0439947843551636,0.525517948609704
406,0.1187429130077362,0.984375,1.0786527395248413,0.5202719731509626
407,0.11881362646818161,0.984375,1.055993676185608,0.5063896276595744
408,0.11959325522184372,0.984375,1.07477867603302,0.5167056104356637
409,0.1206943690776825,0.984375,1.0367674827575684,0.5219741008105371
410,0.12319479882717133,0.9791666666666666,1.0467792749404907,0.5237848277608915
411,0.12813405692577362,0.9791666666666666,0.9997066855430603,0.5131262664640324
412,0.13941650092601776,0.9722222222222222,1.0838125944137573,0.5448931380380848
413,0.14575351774692535,0.9791666666666666,1.064117670059204,0.5261380234718002
414,0.17247606813907623,0.9407552083333334,1.0452766418457031,0.546880241753912
415,0.24007362127304077,0.898623511904762,1.0850803852081299,0.5196560359459297
416,0.2903558313846588,0.9095052083333333,0.9054955840110779,0.6064218656638863
417,0.2568858563899994,0.9201388888888888,0.9783175587654114,0.5074078376804441
418,0.17939811944961548,0.9516369047619048,1.1117198467254639,0.37099216903073295
419,0.14857973158359528,0.9774305555555555,1.2086087465286255,0.3834035165484635
420,0.12885741889476776,0.984375,1.209500789642334,0.29652408392434987
421,0.12220600247383118,0.9791666666666666,1.1738828420639038,0.33021202718676124
422,0.11884048581123352,0.984375,1.191271424293518,0.26106309101654845
423,0.11663611233234406,0.984375,1.1767284870147705,0.33375812647754144
424,0.11467354744672775,0.984375,1.172999620437622,0.32489287825059104
425,0.11402008682489395,0.984375,1.1696988344192505,0.33375812647754144
426,0.11276121437549591,0.984375,1.171976089477539,0.33375812647754144
427,0.11128749698400497,0.984375,1.1590116024017334,0.37099216903073295
428,0.11045791953802109,0.984375,1.165162444114685,0.3390772754137117
429,0.10963223874568939,0.984375,1.1692620515823364,0.32134677895981084
430,0.10894021391868591,0.984375,1.1687346696853638,0.3036162825059101
431,0.10875170677900314,0.984375,1.1756017208099365,0.34439642434988194
432,0.1078619658946991,0.984375,1.157842755317688,0.3266659278959811
433,0.10669174045324326,0.984375,1.1845036745071411,0.32134677895981084
434,0.1060098335146904,0.984375,1.166890263557434,0.32311982860520094
435,0.10553180426359177,0.984375,1.1658506393432617,0.37276521867612306
436,0.10549614578485489,0.984375,1.155163288116455,0.3692191193853429
437,0.10432873666286469,0.984375,1.1594984531402588,0.39226876477541384
438,0.10376632213592529,0.984375,1.1398248672485352,0.4099992612293145
439,0.10300417244434357,0.984375,1.1708662509918213,0.36744606973995286
440,0.10266254097223282,0.984375,1.155834674835205,0.3514886229314422
441,0.10236616432666779,0.984375,1.1436573266983032,0.4560985520094564
442,0.10180587321519852,0.984375,1.159595251083374,0.34262337470449183
443,0.10138003528118134,0.984375,1.1595923900604248,0.37808436761229325
444,0.10145322978496552,0.984375,1.1581752300262451,0.32489287825059104
445,0.1004287376999855,0.984375,1.1508047580718994,0.4525524527186763
446,0.09969935566186905,0.984375,1.140275001525879,0.43304890661938555
447,0.09908483177423477,0.984375,1.1581087112426758,0.43304890661938555
448,0.09851954877376556,0.984375,1.1603684425354004,0.35858082151300247
449,0.09797066450119019,0.984375,1.1735131740570068,0.3834035165484635
450,0.0974985882639885,0.984375,1.1474359035491943,0.39758791371158403
451,0.09708032011985779,0.984375,1.1747281551361084,0.3692191193853429
452,0.0961994081735611,0.984375,1.1381678581237793,0.4543255023640664
453,0.09585322439670563,0.984375,1.1699254512786865,0.37276521867612306
454,0.09549219906330109,0.984375,1.156266689300537,0.41886450945626497
455,0.09516419470310211,0.984375,1.1609574556350708,0.3638999704491727
456,0.09519171714782715,0.984375,1.1569247245788574,0.4064531619385344
457,0.09454460442066193,0.984375,1.138051152229309,0.4560985520094564
458,0.09422646462917328,0.984375,1.1554573774337769,0.41354536052009466
459,0.09399635344743729,0.984375,1.1309330463409424,0.4880134456264776
460,0.09292140603065491,0.984375,1.1593363285064697,0.40822621158392447
461,0.09256494045257568,0.984375,1.1482890844345093,0.43304890661938555
462,0.09237074851989746,0.984375,1.1510552167892456,0.4472333037825061
463,0.09232199192047119,0.984375,1.160273551940918,0.4117723108747046
464,0.09145931154489517,0.984375,1.1428370475769043,0.4525524527186763
465,0.09121525287628174,0.984375,1.1648794412612915,0.38694961583924364
466,0.09056159853935242,0.984375,1.1719974279403687,0.3834035165484635
467,0.09068755805492401,0.984375,1.1715563535690308,0.34439642434988194
468,0.09007257223129272,0.984375,1.1465376615524292,0.4826942966903074
469,0.09021879732608795,0.984375,1.1592060327529907,0.3816304669030734
470,0.08939674496650696,0.984375,1.1557238101959229,0.4880134456264776
471,0.08880389481782913,0.984375,1.1384841203689575,0.47914819739952713
472,0.08808709681034088,0.984375,1.1745048761367798,0.4170914598108748
473,0.08739946782588959,0.984375,1.152109146118164,0.4596446513002366
474,0.08724027127027512,1.0,1.158765435218811,0.46673684988179676
475,0.08717891573905945,0.984375,1.149994969367981,0.4702829491725768
476,0.08640261739492416,0.984375,1.1494925022125244,0.47914819739952713
477,0.08632819354534149,0.984375,1.1562178134918213,0.44900635342789613
478,0.0854068174958229,1.0,1.151426911354065,0.4880134456264776
479,0.08537785708904266,0.984375,1.1385947465896606,0.4560985520094564
480,0.08546634018421173,1.0,1.1752231121063232,0.46850989952718675
481,0.08551459014415741,0.984375,1.1656219959259033,0.3692191193853429
482,0.08504912257194519,1.0,1.145275592803955,0.4951056442080379
483,0.08498404920101166,0.984375,1.1815701723098755,0.34439642434988194
484,0.08430387079715729,1.0,1.156483769416809,0.4826942966903074
485,0.08376757055521011,0.984375,1.1372449398040771,0.4720559988179669
486,0.08375784754753113,0.984375,1.169994592666626,0.49155954491725773
487,0.08266305923461914,0.984375,1.1481058597564697,0.4826942966903074
488,0.08209609985351562,1.0,1.1730870008468628,0.47382904846335694
489,0.08202257007360458,0.984375,1.157568335533142,0.4702829491725768
490,0.08148009330034256,0.984375,1.1558935642242432,0.4543255023640664
491,0.08110056072473526,1.0,1.1906191110610962,0.3373042257683216
492,0.08081647008657455,0.984375,1.1373168230056763,0.4897864952718677
493,0.08099593222141266,1.0,1.1896615028381348,0.3816304669030734
494,0.08048278093338013,0.984375,1.11893630027771,0.49687869385342787
495,0.08012241125106812,1.0,1.1759047508239746,0.43659500591016565
496,0.07972034066915512,0.984375,1.1248900890350342,0.4951056442080379
497,0.07931307703256607,1.0,1.192826747894287,0.42950280732860535
498,0.07865989208221436,0.984375,1.1312222480773926,0.4897864952718677
499,0.0784125104546547,1.0,1.2165580987930298,0.2876588356973995
500,0.07893694192171097,0.984375,1.1401679515838623,0.4880134456264776
501,0.0788019448518753,1.0,1.195829153060913,0.36567302009456276
502,0.07835399359464645,0.984375,1.167778730392456,0.41531841016548476
503,0.07759524881839752,1.0,1.186686396598816,0.41354536052009466
504,0.07702215760946274,1.0,1.1263335943222046,0.49155954491725773
505,0.07675861567258835,1.0,1.1959919929504395,0.3745382683215131
506,0.07597959786653519,0.984375,1.166664958000183,0.4543255023640664
507,0.07577760517597198,1.0,1.206215739250183,0.3142545803782506
508,0.07539285719394684,0.984375,1.1516088247299194,0.46673684988179676
509,0.0752849355340004,1.0,1.1996073722839355,0.32489287825059104
510,0.07492421567440033,0.984375,1.1755459308624268,0.44191415484633584
511,0.07497209310531616,1.0,1.1750351190567017,0.44368720449172594
512,0.0743076279759407,1.0,1.162681221961975,0.4649638002364067
513,0.07405310124158859,1.0,1.1873180866241455,0.3887226654846337
514,0.07345081120729446,0.984375,1.1936695575714111,0.37985741725768335
515,0.07370474189519882,1.0,1.175382375717163,0.41886450945626497
516,0.07318829745054245,1.0,1.1791563034057617,0.41886450945626497
517,0.07274533808231354,1.0,1.197411298751831,0.3514886229314422
518,0.07256653159856796,0.984375,1.1537446975708008,0.475602098108747
519,0.07265563309192657,1.0,1.1885145902633667,0.4596446513002366
520,0.07292015850543976,0.984375,1.1483303308486938,0.49155954491725773
521,0.07210648059844971,1.0,1.1847856044769287,0.42595670803782515
522,0.07174822688102722,1.0,1.139329195022583,0.4880134456264776
523,0.07195429503917694,1.0,1.1689584255218506,0.4241836583924351
524,0.07390449196100235,0.984375,1.1196271181106567,0.4897864952718677
525,0.0741397887468338,1.0,1.225559949874878,0.22560209810874698
526,0.07343039661645889,0.984375,1.188076376914978,0.3621269208037826
527,0.07265222072601318,1.0,1.2077419757843018,0.32489287825059104
528,0.07226157188415527,0.984375,1.2093833684921265,0.28056663711583923
529,0.0772232934832573,0.9947916666666666,1.235168218612671,0.21319075059101653
530,0.09221787005662918,0.9774305555555555,1.3485071659088135,0.21141770094562645
531,0.1069544330239296,0.9761904761904762,1.2772414684295654,0.21141770094562645
532,0.28395408391952515,0.8860677083333334,1.0136665105819702,0.5080108423392997
533,0.30040034651756287,0.8614583333333333,0.8506679534912109,0.5008168341213554
534,0.15665769577026367,0.9622395833333334,0.8944189548492432,0.5221508780817292
535,0.1077113226056099,0.9657738095238095,1.0122462511062622,0.5021978427895981
536,0.09414546191692352,0.9677083333333333,0.9637609124183655,0.5034389775413712
537,0.09308364987373352,0.984375,1.1554622650146484,0.3928597813238774
538,0.07961031049489975,1.0,1.0914924144744873,0.48624039598108754
539,0.07594671845436096,0.984375,1.0639086961746216,0.4897864952718677
540,0.07405829429626465,1.0,1.0443620681762695,0.49333259456264783
541,0.07251999527215958,0.984375,1.0488380193710327,0.4897864952718677
542,0.0712970495223999,1.0,1.0574276447296143,0.4844673463356975
543,0.06983903795480728,0.984375,1.050482153892517,0.4880134456264776
544,0.06916989386081696,1.0,1.0846272706985474,0.43304890661938555
545,0.0683608278632164,0.984375,1.0699365139007568,0.46850989952718675
546,0.06783203035593033,1.0,1.0976163148880005,0.3816304669030734
547,0.06720658391714096,0.984375,1.0928261280059814,0.4170914598108748
548,0.0667407214641571,1.0,1.1024683713912964,0.35858082151300247
549,0.06652751564979553,0.984375,1.1027717590332031,0.39758791371158403
550,0.06601680815219879,1.0,1.1218353509902954,0.30716238179669025
551,0.06592341512441635,0.984375,1.1195887327194214,0.34439642434988194
552,0.06538229435682297,1.0,1.1256639957427979,0.2894318853427896
553,0.06472110748291016,0.984375,1.12898588180542,0.30007018321513
554,0.06421303749084473,1.0,1.1284462213516235,0.30007018321513
555,0.06399957090616226,0.984375,1.153761863708496,0.25929004137115835
556,0.06331177800893784,1.0,1.1259194612503052,0.30007018321513
557,0.06307920068502426,1.0,1.149215579032898,0.26815528959810875
558,0.06262371689081192,1.0,1.1405682563781738,0.26815528959810875
559,0.06275448948144913,1.0,1.1601014137268066,0.24510564420803785
560,0.06215502321720123,1.0,1.1311253309249878,0.2858857860520094
561,0.06188201904296875,0.984375,1.1568713188171387,0.25397089243498816
562,0.061907269060611725,1.0,1.133299469947815,0.27702053782505914
563,0.06312903016805649,1.0,1.1531964540481567,0.26992833924349885
564,0.061611711978912354,1.0,1.0987955331802368,0.3621269208037826
565,0.06089668348431587,1.0,1.1485002040863037,0.2982971335697399
566,0.060284990817308426,1.0,1.1356343030929565,0.273474438534279
567,0.059931375086307526,1.0,1.1441829204559326,0.30184323286052006
568,0.05974839627742767,1.0,1.1343226432800293,0.2717013888888889
569,0.059491802006959915,1.0,1.1382843255996704,0.3107084810874704
570,0.05938684940338135,1.0,1.169621229171753,0.21850989952718675
571,0.05912069231271744,1.0,1.1477224826812744,0.27702053782505914
572,0.058926817029714584,1.0,1.173534870147705,0.21850989952718675
573,0.05869840085506439,1.0,1.1397157907485962,0.30184323286052006
574,0.05842549726366997,1.0,1.1728897094726562,0.21673684988179667
575,0.05797148495912552,1.0,1.1523581743240356,0.26106309101654845
576,0.057593487203121185,1.0,1.170495629310608,0.21673684988179667
577,0.05738978087902069,1.0,1.166649341583252,0.23446734633569738
578,0.05694027617573738,1.0,1.1885814666748047,0.21141770094562645
579,0.056866634637117386,1.0,1.1840879917144775,0.21673684988179667
580,0.056573010981082916,1.0,1.175910234451294,0.21673684988179667
581,0.056292928755283356,1.0,1.2020286321640015,0.21141770094562645
582,0.05578633397817612,1.0,1.1828018426895142,0.21141770094562645
583,0.055693451315164566,1.0,1.174246907234192,0.2202829491725768
584,0.05550657585263252,1.0,1.188981533050537,0.21141770094562645
585,0.05533257871866226,1.0,1.157923936843872,0.25042479314420807
586,0.055008333176374435,1.0,1.193940281867981,0.21141770094562645
587,0.05487065762281418,1.0,1.167406678199768,0.23978649527186757
588,0.054680224508047104,1.0,1.2002902030944824,0.21141770094562645
589,0.05450107529759407,1.0,1.1798219680786133,0.21319075059101653
590,0.054474592208862305,1.0,1.220193862915039,0.21141770094562645
591,0.05420362204313278,1.0,1.1853513717651367,0.21850989952718675
592,0.05417275428771973,1.0,1.215708613395691,0.21141770094562645
593,0.05404330790042877,1.0,1.2310757637023926,0.21141770094562645
594,0.05373372882604599,1.0,1.207879662513733,0.21141770094562645
595,0.053585950285196304,1.0,1.1972453594207764,0.21850989952718675
596,0.0531071200966835,1.0,1.229431390762329,0.21141770094562645
597,0.052454426884651184,1.0,1.2019529342651367,0.21141770094562645
598,0.052285488694906235,1.0,1.237800121307373,0.21141770094562645
599,0.05203170329332352,1.0,1.2126197814941406,0.21141770094562645
600,0.05188703536987305,1.0,1.2364280223846436,0.21141770094562645
601,0.05175856500864029,1.0,1.2142412662506104,0.21141770094562645
602,0.05159938707947731,1.0,1.2412432432174683,0.21141770094562645
603,0.05145368352532387,1.0,1.1629310846328735,0.25042479314420807
604,0.05141814798116684,1.0,1.2725820541381836,0.21141770094562645
605,0.051002226769924164,1.0,1.1722923517227173,0.22737514775413709
606,0.05066145583987236,1.0,1.2666840553283691,0.21141770094562645
607,0.05057854950428009,1.0,1.202017068862915,0.21141770094562645
608,0.050426729023456573,1.0,1.2875393629074097,0.21141770094562645
609,0.050575342029333115,1.0,1.1565988063812256,0.22382904846335694
610,0.050311025232076645,1.0,1.2953428030014038,0.21141770094562645
611,0.05031970515847206,1.0,1.1652418375015259,0.22205599881796687
612,0.049839042127132416,1.0,1.2441084384918213,0.21141770094562645
613,0.04928475245833397,1.0,1.224273920059204,0.21141770094562645
614,0.04895792528986931,1.0,1.198607325553894,0.21141770094562645
615,0.04838467016816139,1.0,1.2458467483520508,0.21141770094562645
616,0.04823722690343857,1.0,1.1919102668762207,0.21141770094562645
617,0.047763463109731674,1.0,1.2385026216506958,0.21141770094562645
618,0.04769492149353027,1.0,1.2054351568222046,0.21141770094562645
619,0.04750341922044754,1.0,1.2406524419784546,0.21141770094562645
620,0.04775619134306908,1.0,1.2450162172317505,0.21141770094562645
621,0.04760730639100075,1.0,1.2574862241744995,0.21141770094562645
622,0.047637585550546646,1.0,1.23106050491333,0.21141770094562645
623,0.04738466814160347,1.0,1.2731887102127075,0.21141770094562645
624,0.047085508704185486,1.0,1.2625292539596558,0.21141770094562645
625,0.04649505019187927,1.0,1.2414116859436035,0.21141770094562645
626,0.04655392840504646,1.0,1.2490540742874146,0.21141770094562645
627,0.046595118939876556,1.0,1.2670238018035889,0.21141770094562645
628,0.04634100943803787,1.0,1.2667511701583862,0.21141770094562645
629,0.045946523547172546,1.0,1.2306251525878906,0.21141770094562645
630,0.046090733259916306,1.0,1.2521202564239502,0.21141770094562645
631,0.04556867852807045,1.0,1.2312759160995483,0.21141770094562645
632,0.04509694129228592,1.0,1.2621866464614868,0.21141770094562645
633,0.04614793881773949,1.0,1.2697441577911377,0.21141770094562645
634,0.04833380877971649,1.0,1.2237690687179565,0.21141770094562645
635,0.04545076936483383,1.0,1.1675992012023926,0.28056663711583923
636,0.04542802274227142,1.0,1.248640775680542,0.21141770094562645
637,0.04554196447134018,1.0,1.24775230884552,0.21141770094562645
638,0.04642997682094574,1.0,1.3510088920593262,0.21141770094562645
639,0.04597533494234085,1.0,1.3032710552215576,0.21141770094562645
640,0.049216896295547485,1.0,1.384271264076233,0.21141770094562645
641,0.05559526011347771,0.9826388888888888,1.351204752922058,0.21141770094562645
642,0.057688504457473755,0.984375,1.5860121250152588,0.21141770094562645
643,0.05534958466887474,1.0,1.3996983766555786,0.21141770094562645
644,0.05089831352233887,1.0,1.3667267560958862,0.21141770094562645
645,0.05053980275988579,1.0,1.2057044506072998,0.21319075059101653
646,0.047177817672491074,1.0,1.3898354768753052,0.21141770094562645
647,0.044088128954172134,1.0,1.2484610080718994,0.21141770094562645
648,0.042962923645973206,1.0,1.2994853258132935,0.21141770094562645
649,0.0427076518535614,1.0,1.3018049001693726,0.21141770094562645
650,0.04212171211838722,1.0,1.3390995264053345,0.21141770094562645
651,0.04167388379573822,1.0,1.3462380170822144,0.21141770094562645
652,0.041446372866630554,1.0,1.3606986999511719,0.21141770094562645
653,0.041326940059661865,1.0,1.3573225736618042,0.21141770094562645
654,0.04123283177614212,1.0,1.372551679611206,0.21141770094562645
655,0.040909718722105026,1.0,1.3489125967025757,0.21141770094562645
656,0.04052165523171425,1.0,1.371654748916626,0.21141770094562645
657,0.04034141078591347,1.0,1.3516459465026855,0.21141770094562645
658,0.04028821364045143,1.0,1.3689072132110596,0.21141770094562645
659,0.03997156769037247,1.0,1.3756660223007202,0.21141770094562645
660,0.039626382291316986,1.0,1.4053025245666504,0.21141770094562645
661,0.03927858918905258,1.0,1.3442234992980957,0.21141770094562645
662,0.03923439234495163,1.0,1.4085521697998047,0.21141770094562645
663,0.03872670605778694,1.0,1.3561444282531738,0.21141770094562645
664,0.0386950708925724,1.0,1.4019441604614258,0.21141770094562645
665,0.03843245655298233,1.0,1.3753660917282104,0.21141770094562645
666,0.03842621669173241,1.0,1.3899917602539062,0.21141770094562645
667,0.03823389485478401,1.0,1.40496826171875,0.21141770094562645
668,0.03807668387889862,1.0,1.4217430353164673,0.21141770094562645
669,0.037730466574430466,1.0,1.3897154331207275,0.21141770094562645
670,0.03771374747157097,1.0,1.4279639720916748,0.21141770094562645
671,0.03734758496284485,1.0,1.382830262184143,0.21141770094562645
672,0.03712856024503708,1.0,1.4429898262023926,0.21141770094562645
673,0.03689960017800331,1.0,1.39046311378479,0.21141770094562645
674,0.03671952709555626,1.0,1.4418946504592896,0.21141770094562645
675,0.03681560233235359,1.0,1.4149847030639648,0.21141770094562645
676,0.03693092241883278,1.0,1.4653059244155884,0.21141770094562645
677,0.03666500374674797,1.0,1.3733530044555664,0.21141770094562645
678,0.03641071543097496,1.0,1.4459543228149414,0.21141770094562645
679,0.0364205427467823,1.0,1.4010924100875854,0.21141770094562645
680,0.036517053842544556,1.0,1.546470046043396,0.21141770094562645
681,0.03594280779361725,1.0,1.366776466369629,0.21141770094562645
682,0.03549625352025032,1.0,1.386866807937622,0.21141770094562645
683,0.03546783700585365,1.0,1.39422607421875,0.21141770094562645
684,0.035238415002822876,1.0,1.4311646223068237,0.21141770094562645
685,0.03512135148048401,1.0,1.3710544109344482,0.21141770094562645
686,0.03574885055422783,1.0,1.446508526802063,0.21141770094562645
687,0.03664613887667656,1.0,1.33003568649292,0.21141770094562645
688,0.03623814135789871,1.0,1.4215716123580933,0.21141770094562645
689,0.03747362643480301,1.0,1.5013071298599243,0.21141770094562645
690,0.035605743527412415,1.0,1.2794233560562134,0.21141770094562645
691,0.034376952797174454,1.0,1.4360109567642212,0.21141770094562645
692,0.034587711095809937,1.0,1.3861157894134521,0.21141770094562645
693,0.03530096635222435,1.0,1.3313573598861694,0.21141770094562645
694,0.03468006104230881,1.0,1.5564398765563965,0.21141770094562645
695,0.03445357084274292,1.0,1.5428944826126099,0.21141770094562645
696,0.033617980778217316,1.0,1.56742262840271,0.21141770094562645
697,0.033317141234874725,1.0,1.4395627975463867,0.21141770094562645
698,0.033140879124403,1.0,1.4775426387786865,0.21141770094562645
699,0.032781969755887985,1.0,1.436089038848877,0.21141770094562645
700,0.032730959355831146,1.0,1.4656331539154053,0.21141770094562645
701,0.03269020840525627,1.0,1.474938154220581,0.21141770094562645
702,0.032461442053318024,1.0,1.4654157161712646,0.21141770094562645
703,0.03213924542069435,1.0,1.5044159889221191,0.21141770094562645
704,0.031942177563905716,1.0,1.4667608737945557,0.21141770094562645
705,0.03180661052465439,1.0,1.4459093809127808,0.21141770094562645
706,0.031713373959064484,1.0,1.3938795328140259,0.21141770094562645
707,0.03166749328374863,1.0,1.4865186214447021,0.21141770094562645
708,0.03156101703643799,1.0,1.5357331037521362,0.21141770094562645
709,0.03157886490225792,1.0,1.464701771736145,0.21141770094562645
710,0.0315566211938858,1.0,1.5595754384994507,0.21141770094562645
711,0.031599171459674835,1.0,1.5172898769378662,0.21141770094562645
712,0.031416669487953186,1.0,1.642866849899292,0.21141770094562645
713,0.03123236447572708,1.0,1.46049964427948,0.21141770094562645
714,0.030981572344899178,1.0,1.5383843183517456,0.21141770094562645
715,0.030536014586687088,1.0,1.4344314336776733,0.21141770094562645
716,0.030345994979143143,1.0,1.5560792684555054,0.21141770094562645
717,0.030124355107545853,1.0,1.4987646341323853,0.21141770094562645
718,0.030093304812908173,1.0,1.4721590280532837,0.21141770094562645
719,0.02995901368558407,1.0,1.5213186740875244,0.21141770094562645
720,0.029593992978334427,1.0,1.5300246477127075,0.21141770094562645
721,0.02943452261388302,1.0,1.398167610168457,0.21141770094562645
722,0.029272187501192093,1.0,1.4939005374908447,0.21141770094562645
723,0.029209144413471222,1.0,1.4071412086486816,0.21141770094562645
724,0.02914174646139145,1.0,1.5739092826843262,0.21141770094562645
725,0.02916674129664898,1.0,1.5250115394592285,0.21141770094562645
726,0.02963142655789852,1.0,1.4525045156478882,0.21141770094562645
727,0.029437005519866943,1.0,1.4765666723251343,0.21141770094562645
728,0.029413338750600815,1.0,1.5008660554885864,0.21141770094562645
729,0.028940755873918533,1.0,1.5476434230804443,0.21141770094562645
730,0.028419703245162964,1.0,1.458522915840149,0.21141770094562645
731,0.02825266309082508,1.0,1.4151642322540283,0.21141770094562645
732,0.0283423513174057,1.0,1.5434095859527588,0.21141770094562645
733,0.028308166190981865,1.0,1.5282602310180664,0.21141770094562645
734,0.028248900547623634,1.0,1.5676977634429932,0.21141770094562645
735,0.02825349196791649,1.0,1.5509390830993652,0.21141770094562645
736,0.02808106131851673,1.0,1.5937093496322632,0.21141770094562645
737,0.0283853430300951,1.0,1.4927655458450317,0.21141770094562645
738,0.027961164712905884,1.0,1.5425668954849243,0.21141770094562645
739,0.027455853298306465,1.0,1.590268611907959,0.21141770094562645
740,0.0275255236774683,1.0,1.4847580194473267,0.21141770094562645
741,0.027070939540863037,1.0,1.5499310493469238,0.21141770094562645
742,0.02717335894703865,1.0,1.5260642766952515,0.21141770094562645
743,0.027171030640602112,1.0,1.563652753829956,0.21141770094562645
744,0.02715820074081421,1.0,1.5667622089385986,0.21141770094562645
745,0.02719009481370449,1.0,1.6151403188705444,0.21141770094562645
746,0.026864737272262573,1.0,1.595529317855835,0.21141770094562645
747,0.026705801486968994,1.0,1.5857219696044922,0.21141770094562645
748,0.026378795504570007,1.0,1.5095152854919434,0.21141770094562645
749,0.02629903517663479,1.0,1.552631139755249,0.21141770094562645
750,0.026021825149655342,1.0,1.578198790550232,0.21141770094562645
751,0.02608131431043148,1.0,1.5179681777954102,0.21141770094562645
752,0.025819499045610428,1.0,1.4936720132827759,0.21141770094562645
753,0.025756295770406723,1.0,1.594534158706665,0.21141770094562645
754,0.02556946501135826,1.0,1.535794973373413,0.21141770094562645
755,0.025551725178956985,1.0,1.634762167930603,0.21141770094562645
756,0.02542233280837536,1.0,1.4786823987960815,0.21141770094562645
757,0.02530716359615326,1.0,1.5643967390060425,0.21141770094562645
758,0.025001300498843193,1.0,1.5131975412368774,0.21141770094562645
759,0.02496378682553768,1.0,1.5904226303100586,0.21141770094562645
760,0.024793248623609543,1.0,1.5225236415863037,0.21141770094562645
761,0.025025049224495888,1.0,1.5718210935592651,0.21141770094562645
762,0.02464219368994236,1.0,1.6080409288406372,0.21141770094562645
763,0.024581873789429665,1.0,1.596221685409546,0.21141770094562645
764,0.024508772417902946,1.0,1.5529388189315796,0.21141770094562645
765,0.024442195892333984,1.0,1.541427493095398,0.21141770094562645
766,0.0245195422321558,1.0,1.6073613166809082,0.21141770094562645
767,0.024373257532715797,1.0,1.6147702932357788,0.21141770094562645
768,0.024354366585612297,1.0,1.6606320142745972,0.21141770094562645
769,0.024694742634892464,1.0,1.5300567150115967,0.21141770094562645
770,0.0242597796022892,1.0,1.5883055925369263,0.21141770094562645
771,0.02387714944779873,1.0,1.6428438425064087,0.21141770094562645
772,0.023823285475373268,1.0,1.4638859033584595,0.21141770094562645
773,0.023859631270170212,1.0,1.8254621028900146,0.21141770094562645
774,0.0239944476634264,1.0,1.4894496202468872,0.21141770094562645
775,0.02465788647532463,1.0,1.687792181968689,0.21141770094562645
776,0.024587349966168404,1.0,1.551157832145691,0.21141770094562645
777,0.025174183771014214,1.0,1.6812965869903564,0.21141770094562645
778,0.02494540624320507,1.0,1.5070053339004517,0.21141770094562645
779,0.02488323673605919,1.0,1.808027744293213,0.21141770094562645
780,0.02623837999999523,1.0,1.5194859504699707,0.21141770094562645
781,0.09550445526838303,0.9720052083333334,0.7876825332641602,0.5030208333333333
782,0.38362905383110046,0.8059895833333333,2.3257875442504883,0.039116578850621406
783,0.18984144926071167,0.9243861607142857,1.0192404985427856,0.4944279100529101
784,0.10067491233348846,0.93359375,1.083539366722107,0.4092923280423285
785,0.05390588194131851,1.0,1.1558114290237427,0.4045785922115715
786,0.040895093232393265,1.0,1.3162882328033447,0.39758791371158425
787,0.03584185615181923,1.0,1.4025949239730835,0.36508200354609943
788,0.03296246379613876,1.0,1.494192361831665,0.2575169917257683
789,0.0312972217798233,1.0,1.551590919494629,0.22914819739952716
790,0.030198177322745323,1.0,1.602953553199768,0.21850989952718675
791,0.029363112524151802,1.0,1.6424641609191895,0.21850989952718675
792,0.028664683923125267,1.0,1.665319561958313,0.2149638002364066
793,0.028054941445589066,1.0,1.6893913745880127,0.21141770094562645
794,0.027500947937369347,1.0,1.6978075504302979,0.21141770094562645
795,0.026995958760380745,1.0,1.7213020324707031,0.21141770094562645
796,0.02656213566660881,1.0,1.725088357925415,0.21141770094562645
797,0.02615540847182274,1.0,1.7386181354522705,0.21141770094562645
798,0.025799989700317383,1.0,1.7413642406463623,0.21141770094562645
799,0.025481222197413445,1.0,1.772072434425354,0.21141770094562645
800,0.025189213454723358,1.0,1.7695776224136353,0.21141770094562645
801,0.024893466383218765,1.0,1.8178215026855469,0.21141770094562645
802,0.024641230702400208,1.0,1.8127458095550537,0.21141770094562645
803,0.02440878003835678,1.0,1.8605090379714966,0.21141770094562645
804,0.02426134981215,1.0,1.8316335678100586,0.21141770094562645
805,0.02401857264339924,1.0,1.8831692934036255,0.21141770094562645
806,0.023813316598534584,1.0,1.8620994091033936,0.21141770094562645
807,0.023632800206542015,1.0,1.9177953004837036,0.21141770094562645
808,0.02342873625457287,1.0,1.8743162155151367,0.21141770094562645
809,0.02337713912129402,1.0,1.9217848777770996,0.21141770094562645
810,0.02312186174094677,1.0,1.891282081604004,0.21141770094562645
811,0.02299596183001995,1.0,1.9253336191177368,0.21141770094562645
812,0.02281315065920353,1.0,1.9380501508712769,0.21141770094562645
813,0.022611722350120544,1.0,1.9562259912490845,0.21141770094562645
814,0.022424088791012764,1.0,1.9361000061035156,0.21141770094562645
815,0.022315772250294685,1.0,1.9631675481796265,0.21141770094562645
816,0.022196637466549873,1.0,1.982148289680481,0.21141770094562645
817,0.02207009866833687,1.0,1.98489248752594,0.21141770094562645
818,0.021952075883746147,1.0,2.010484457015991,0.21141770094562645
819,0.021806782111525536,1.0,2.0210063457489014,0.21141770094562645
820,0.021648764610290527,1.0,2.018406391143799,0.21141770094562645
821,0.02150801010429859,1.0,2.0388023853302,0.21141770094562645
822,0.021431701257824898,1.0,2.046464443206787,0.21141770094562645
823,0.021262001246213913,1.0,2.0660650730133057,0.21141770094562645
824,0.02111825719475746,1.0,2.069375514984131,0.21141770094562645
825,0.021059980615973473,1.0,2.083801746368408,0.21141770094562645
826,0.020957529544830322,1.0,2.109755039215088,0.21141770094562645
827,0.020893888548016548,1.0,2.124056100845337,0.21141770094562645
828,0.020824575796723366,1.0,2.1521852016448975,0.21141770094562645
829,0.020723773166537285,1.0,2.121098279953003,0.21141770094562645
830,0.020632212981581688,1.0,2.1816036701202393,0.21141770094562645
831,0.020614977926015854,1.0,2.152181386947632,0.21141770094562645
832,0.020384809002280235,1.0,2.1913628578186035,0.21141770094562645
833,0.02013641782104969,1.0,2.196601152420044,0.21141770094562645
834,0.019985735416412354,1.0,2.217417001724243,0.21141770094562645
835,0.019858118146657944,1.0,2.2159223556518555,0.21141770094562645
836,0.019756577908992767,1.0,2.2352187633514404,0.21141770094562645
837,0.01962011493742466,1.0,2.2171573638916016,0.21141770094562645
838,0.01954861916601658,1.0,2.2484116554260254,0.21141770094562645
839,0.01950603723526001,1.0,2.273210287094116,0.21141770094562645
840,0.019507139921188354,1.0,2.2636373043060303,0.21141770094562645
841,0.0195618886500597,1.0,2.2480826377868652,0.21141770094562645
842,0.01932373456656933,1.0,2.2937283515930176,0.21141770094562645
843,0.01929178088903427,1.0,2.2535862922668457,0.21141770094562645
844,0.019162818789482117,1.0,2.302751064300537,0.21141770094562645
845,0.019162267446517944,1.0,2.277374267578125,0.21141770094562645
846,0.019084779545664787,1.0,2.329153537750244,0.21141770094562645
847,0.019076939672231674,1.0,2.2952167987823486,0.21141770094562645
848,0.01893141120672226,1.0,2.327407121658325,0.21141770094562645
849,0.018770284950733185,1.0,2.3259146213531494,0.21141770094562645
850,0.018574539572000504,1.0,2.3401589393615723,0.21141770094562645
851,0.01847609505057335,1.0,2.3260445594787598,0.21141770094562645
852,0.01840011589229107,1.0,2.352595567703247,0.21141770094562645
853,0.018296947702765465,1.0,2.3451690673828125,0.21141770094562645
854,0.018230874091386795,1.0,2.371051549911499,0.21141770094562645
855,0.0181608647108078,1.0,2.3566462993621826,0.21141770094562645
856,0.018106363713741302,1.0,2.388849973678589,0.21141770094562645
857,0.018025126308202744,1.0,2.3957226276397705,0.21141770094562645
858,0.018005866557359695,1.0,2.3956873416900635,0.21141770094562645
859,0.01792512647807598,1.0,2.4189741611480713,0.21141770094562645
860,0.01794314570724964,1.0,2.410593271255493,0.21141770094562645
861,0.01790211722254753,1.0,2.43734073638916,0.21141770094562645
862,0.017970990389585495,1.0,2.4057250022888184,0.21141770094562645
863,0.018160438165068626,1.0,2.4145240783691406,0.21141770094562645
864,0.017867084592580795,1.0,2.340158224105835,0.21141770094562645
865,0.017795993015170097,1.0,2.45660662651062,0.21141770094562645
866,0.017529241740703583,1.0,2.312469005584717,0.21141770094562645
867,0.01733982563018799,1.0,2.3943257331848145,0.21141770094562645
868,0.01717141456902027,1.0,2.3709793090820312,0.21141770094562645
869,0.017075257375836372,1.0,2.4005303382873535,0.21141770094562645
870,0.016988107934594154,1.0,2.4287402629852295,0.21141770094562645
871,0.016921447589993477,1.0,2.4092178344726562,0.21141770094562645
872,0.01684805564582348,1.0,2.4655516147613525,0.21141770094562645
873,0.016813641414046288,1.0,2.4193673133850098,0.21141770094562645
874,0.01675122231245041,1.0,2.507401943206787,0.21141770094562645
875,0.016664251685142517,1.0,2.382462739944458,0.21141770094562645
876,0.016583561897277832,1.0,2.5024046897888184,0.21141770094562645
877,0.01649552583694458,1.0,2.425058126449585,0.21141770094562645
878,0.016450591385364532,1.0,2.5164225101470947,0.21141770094562645
879,0.016343560069799423,1.0,2.464911460876465,0.21141770094562645
880,0.016308238729834557,1.0,2.4998958110809326,0.21141770094562645
881,0.016294999048113823,1.0,2.488898515701294,0.21141770094562645
882,0.016306132078170776,1.0,2.4880318641662598,0.21141770094562645
883,0.016352716833353043,1.0,2.549093008041382,0.21141770094562645
884,0.016232691705226898,1.0,2.441946268081665,0.21141770094562645
885,0.01624472439289093,1.0,2.5024518966674805,0.21141770094562645
886,0.01610860973596573,1.0,2.506619453430176,0.21141770094562645
887,0.016196997836232185,1.0,2.463167905807495,0.21141770094562645
888,0.016340211033821106,1.0,2.456437587738037,0.21141770094562645
889,0.016459312289953232,1.0,2.482463836669922,0.21141770094562645
890,0.016501860693097115,1.0,2.426522731781006,0.21141770094562645
891,0.016447169706225395,1.0,2.4712860584259033,0.21141770094562645
892,0.01620648428797722,1.0,2.494016647338867,0.21141770094562645
893,0.01637224666774273,1.0,2.3793394565582275,0.21141770094562645
894,0.015954704955220222,1.0,2.4659340381622314,0.21141770094562645
895,0.015692230314016342,1.0,2.488128900527954,0.21141770094562645
896,0.015451813116669655,1.0,2.5595498085021973,0.21141770094562645
897,0.015324963256716728,1.0,2.4563677310943604,0.21141770094562645
898,0.015175637789070606,1.0,2.5371041297912598,0.21141770094562645
899,0.015100524760782719,1.0,2.5515921115875244,0.21141770094562645
900,0.014996945858001709,1.0,2.557288885116577,0.21141770094562645
901,0.014924583956599236,1.0,2.534524440765381,0.21141770094562645
902,0.014786647632718086,1.0,2.5671536922454834,0.21141770094562645
903,0.014733606949448586,1.0,2.577169895172119,0.21141770094562645
904,0.014665794558823109,1.0,2.556020736694336,0.21141770094562645
905,0.01467963121831417,1.0,2.607459783554077,0.21141770094562645
906,0.01461834367364645,1.0,2.567098379135132,0.21141770094562645
907,0.01461572665721178,1.0,2.657099485397339,0.21141770094562645
908,0.01454739086329937,1.0,2.55068039894104,0.21141770094562645
909,0.014543714001774788,1.0,2.6260428428649902,0.21141770094562645
910,0.014457941986620426,1.0,2.5296242237091064,0.21141770094562645
911,0.014413977973163128,1.0,2.688476324081421,0.21141770094562645
912,0.01425336953252554,1.0,2.51794695854187,0.21141770094562645
913,0.014121362008154392,1.0,2.6489381790161133,0.21141770094562645
914,0.014126099646091461,1.0,2.5379884243011475,0.21141770094562645
915,0.014032729901373386,1.0,2.6543774604797363,0.21141770094562645
916,0.014123286120593548,1.0,2.5788187980651855,0.21141770094562645
917,0.014057949185371399,1.0,2.767176628112793,0.21141770094562645
918,0.014126269146800041,1.0,2.586669683456421,0.21141770094562645
919,0.013990347273647785,1.0,2.7098560333251953,0.21141770094562645
920,0.013830438256263733,1.0,2.542919874191284,0.21141770094562645
921,0.013753565028309822,1.0,2.6746928691864014,0.21141770094562645
922,0.013659963384270668,1.0,2.629486322402954,0.21141770094562645
923,0.01360519789159298,1.0,2.681567668914795,0.21141770094562645
924,0.013541320338845253,1.0,2.675288200378418,0.21141770094562645
925,0.013462061062455177,1.0,2.6956520080566406,0.21141770094562645
926,0.013333719223737717,1.0,2.6759848594665527,0.21141770094562645
927,0.013248514384031296,1.0,2.6295459270477295,0.21141770094562645
928,0.013156253844499588,1.0,2.744312286376953,0.21141770094562645
929,0.013144456781446934,1.0,2.6614439487457275,0.21141770094562645
930,0.013109885156154633,1.0,2.7642552852630615,0.21141770094562645
931,0.01314740814268589,1.0,2.6972904205322266,0.21141770094562645
932,0.013109232299029827,1.0,2.6716206073760986,0.21141770094562645
933,0.013172375969588757,1.0,2.7158775329589844,0.21141770094562645
934,0.013014150783419609,1.0,2.607208728790283,0.21141770094562645
935,0.012936154380440712,1.0,2.7455291748046875,0.21141770094562645
936,0.012877453118562698,1.0,2.5940823554992676,0.21141770094562645
937,0.012816295959055424,1.0,2.727666139602661,0.21141770094562645
938,0.01277422159910202,1.0,2.582188367843628,0.21141770094562645
939,0.012774964794516563,1.0,2.7364678382873535,0.21141770094562645
940,0.012671215459704399,1.0,2.5854480266571045,0.21141770094562645
941,0.012669926509261131,1.0,2.6754114627838135,0.21141770094562645
942,0.012717903591692448,1.0,2.623040199279785,0.21141770094562645
943,0.012759864330291748,1.0,2.7363390922546387,0.21141770094562645
944,0.012740426696836948,1.0,2.674936294555664,0.21141770094562645
945,0.012677284888923168,1.0,2.8228304386138916,0.21141770094562645
946,0.012773323804140091,1.0,2.627570867538452,0.21141770094562645
947,0.012760836631059647,1.0,2.7278051376342773,0.21141770094562645
948,0.012722600251436234,1.0,2.7038486003875732,0.21141770094562645
949,0.012702962383627892,1.0,2.794409990310669,0.21141770094562645
950,0.012511524371802807,1.0,2.789297580718994,0.21141770094562645
951,0.012447226792573929,1.0,2.6609489917755127,0.21141770094562645
952,0.012242474593222141,1.0,2.7650251388549805,0.21141770094562645
953,0.01232093758881092,1.0,2.729074239730835,0.21141770094562645
954,0.012174248695373535,1.0,2.7223761081695557,0.21141770094562645
955,0.012220973148941994,1.0,2.768655300140381,0.21141770094562645
956,0.01199366245418787,1.0,2.7894513607025146,0.21141770094562645
957,0.01191353052854538,1.0,2.8871653079986572,0.21141770094562645
958,0.011941155418753624,1.0,2.832510232925415,0.21141770094562645
959,0.011892730370163918,1.0,2.7577965259552,0.21141770094562645
960,0.01179578248411417,1.0,2.8337721824645996,0.21141770094562645
961,0.011778327636420727,1.0,2.613751173019409,0.21141770094562645
962,0.011618341319262981,1.0,2.7971372604370117,0.21141770094562645
963,0.011505224741995335,1.0,2.805636167526245,0.21141770094562645
964,0.011349493637681007,1.0,2.80987811088562,0.21141770094562645
965,0.011340824887156487,1.0,2.798574447631836,0.21141770094562645
966,0.011271080933511257,1.0,2.7420570850372314,0.21141770094562645
967,0.011188461445271969,1.0,2.836005926132202,0.21141770094562645
968,0.011099194176495075,1.0,2.647446393966675,0.21141770094562645
969,0.011109190061688423,1.0,2.8058199882507324,0.21141770094562645
970,0.011095617897808552,1.0,2.76849627494812,0.21141770094562645
971,0.011042783036828041,1.0,2.784600257873535,0.21141770094562645
972,0.011052118614315987,1.0,2.7496895790100098,0.21141770094562645
973,0.011250004172325134,1.0,2.848733425140381,0.21141770094562645
974,0.011420258320868015,1.0,2.897181510925293,0.21141770094562645
975,0.013372858054935932,1.0,2.800694465637207,0.21141770094562645
976,0.021191446110606194,0.9878472222222222,2.210498094558716,0.21141770094562645
977,0.11796681582927704,0.9392027243589743,1.4646356105804443,0.47523271276595747
978,0.5586400032043457,0.7218215811965811,2.3188045024871826,0.3337100387299857
979,0.7890382409095764,0.6733440170940171,1.3367440700531006,0.3327266176822918
980,0.45594078302383423,0.7772253787878787,0.8997989892959595,0.5191191540925585
981,0.3044582009315491,0.8966846955128205,1.609325885772705,0.2062402430443211
982,0.1783524751663208,0.9179067460317459,1.2362686395645142,0.22919306117444416
983,0.11686833202838898,0.9635416666666666,1.0981242656707764,0.40337255853878246
984,0.08244293928146362,0.9774305555555555,1.1714717149734497,0.2943644380147039
985,0.06477482616901398,0.9730113636363636,1.1290483474731445,0.3670600011690439
986,0.0583876296877861,0.9970238095238095,1.120611310005188,0.4850583628841609
987,0.05910832807421684,0.984375,1.0917644500732422,0.40114509456264824
988,0.04521699249744415,1.0,1.2133913040161133,0.3378952423167849
989,0.035200197249650955,1.0,1.2902668714523315,0.273474438534279
990,0.03141118958592415,1.0,1.2914174795150757,0.2799756205673759
991,0.029150191694498062,1.0,1.318996787071228,0.258699024822695
992,0.027554454281926155,1.0,1.3023674488067627,0.28884086879432624
993,0.026274511590600014,1.0,1.295222282409668,0.308344414893617
994,0.025220580399036407,1.0,1.2832908630371094,0.34380540780141855
995,0.024383308365941048,1.0,1.2862149477005005,0.34025930851063835
996,0.023417621850967407,1.0,1.2836295366287231,0.354443705673759
997,0.02276289463043213,1.0,1.2893022298812866,0.33316710992907805
998,0.022194063290953636,1.0,1.2834211587905884,0.3579898049645391
999,0.02160022035241127,1.0,1.297967553138733,0.32075576241134746
