,loss,recall,val_loss,val_recall
0,0.649360716342926,0.40803571428571433,0.6438065767288208,0.3125
1,0.602732241153717,0.33482142857142855,0.6349825859069824,0.4586309523809523
2,0.5674029588699341,0.643115515436944,0.6120555996894836,0.5272810522810524
3,0.5469558835029602,0.6772370486656201,0.635746955871582,0.6189592153877869
4,0.5368673205375671,0.6960491889063317,0.6168014407157898,0.5798011512297226
5,0.5262320041656494,0.7121224014081157,0.6067628264427185,0.5798011512297226
6,0.5232239961624146,0.7046953046953046,0.6121228933334351,0.6113945578231293
7,0.5169407725334167,0.7131368631368632,0.6135419011116028,0.6113945578231293
8,0.511986494064331,0.7131368631368632,0.603472113609314,0.6188775510204082
9,0.5096032023429871,0.7236679986679988,0.6035593152046204,0.6188775510204082
10,0.5061103701591492,0.7187978687978688,0.6034803986549377,0.6314962814962816
11,0.5025569796562195,0.7187978687978688,0.5980075597763062,0.6191586191586193
12,0.4999335706233978,0.7187978687978688,0.5960306525230408,0.6234876234876234
13,0.4968770444393158,0.7187978687978688,0.59432452917099,0.6291153291153292
14,0.49344104528427124,0.7270229770229771,0.5900293588638306,0.6200648557791416
15,0.49001210927963257,0.7223692973692974,0.586993396282196,0.6347319347319348
16,0.48467397689819336,0.7223692973692974,0.5823626518249512,0.6455544455544455
17,0.4104679226875305,0.8268648018648018,0.6610730290412903,0.6332714904143476
18,0.7752809524536133,0.587920412920413,0.8256243467330933,0.5963710892282321
19,0.6486712694168091,0.6525664811379096,0.9731236696243286,0.4890228818800247
20,0.627869188785553,0.5834582084582084,0.7494019865989685,0.5106859410430838
21,0.5942525863647461,0.7108114108114109,0.7837023138999939,0.4757992007992008
22,0.6266199350357056,0.7012820512820513,0.6359161734580994,0.3819302721088435
23,0.5907130837440491,0.6352891156462585,0.6305102109909058,0.3110119047619047
24,0.5766630172729492,0.6324404761904762,0.6568333506584167,0.3110119047619047
25,0.6036263704299927,0.4824404761904762,0.6504389643669128,0.3825255102040816
26,0.5895848870277405,0.5611819727891156,0.6340823173522949,0.45693027210884346
27,0.5751476883888245,0.6408163265306123,0.6441165208816528,0.48573807145235726
28,0.5648869872093201,0.6259611420325707,0.6571230888366699,0.6889225853511567
29,0.6082253456115723,0.6299548665620094,0.6440054178237915,0.3825255102040816
30,0.5630712509155273,0.6491496598639455,0.613746166229248,0.54570905285191
31,0.5688936114311218,0.7024808524808526,0.6404433846473694,0.4551445578231292
32,0.5379360914230347,0.7253008895866039,0.6117168664932251,0.4349980376766091
33,0.5509592890739441,0.7394819466248037,0.6169084310531616,0.4315966771323914
34,0.5314952731132507,0.760334903192046,0.6183768510818481,0.5231137909709338
35,0.5219101905822754,0.7187336473050758,0.6178212761878967,0.544178440607012
36,0.5325921177864075,0.7036190000475716,0.6431758999824524,0.5422161172161173
37,0.5092791318893433,0.722854526425955,0.6299031972885132,0.5272810522810524
38,0.49949148297309875,0.6894296180010465,0.6804563403129578,0.547526283240569
39,0.5596553087234497,0.7313531706388849,0.6970826387405396,0.5576923076923077
40,0.5185708403587341,0.6927447552447552,0.639144778251648,0.6019513224870368
41,0.5422694087028503,0.7566326530612244,0.7119027376174927,0.598992673992674
42,0.4762207567691803,0.7799494156637014,0.626968264579773,0.6989839525553811
43,0.5503454804420471,0.7222309436595152,0.6022202372550964,0.5588815945958804
44,0.5556697845458984,0.7666928309785452,0.65180903673172,0.511397828362114
45,0.5185478925704956,0.759105180533752,0.646325409412384,0.5219233147804576
46,0.5193825960159302,0.6864643293214722,0.5986344218254089,0.6784394177251319
47,0.5522738695144653,0.6923469387755102,0.5859178900718689,0.5962965605822749
48,0.5082430243492126,0.780298273155416,0.5994438529014587,0.5862233005090148
49,0.5093574523925781,0.7426073926073925,0.6099948287010193,0.5692557442557443
50,0.520481526851654,0.7260584653441796,0.6291996240615845,0.7071111428254285
51,0.5117248892784119,0.7376108018965161,0.6124056577682495,0.6049133406276264
52,0.5004280209541321,0.7339588982446126,0.6179928779602051,0.5915346558203701
53,0.5032616853713989,0.729129204129204,0.6204532384872437,0.5478283621140764
54,0.49929100275039673,0.741426430712145,0.6165342330932617,0.642687074829932
55,0.4995894432067871,0.7226535369392513,0.6246710419654846,0.6913515056372199
56,0.5066964030265808,0.7329702043987759,0.6490541696548462,0.6713968571111428
57,0.5032995939254761,0.7338827838827838,0.6570920944213867,0.6989839525553811
58,0.5332053899765015,0.6982662179090752,0.6645398736000061,0.5200014271442843
59,0.5628427267074585,0.7008491508491509,0.6178107857704163,0.5445970695970697
60,0.5156771540641785,0.7200371057513913,0.648083508014679,0.6559345416488273
61,0.47092458605766296,0.7164787593359022,0.5710389614105225,0.702009102009102
62,0.47817203402519226,0.719979623551052,0.4975435733795166,0.8048229548229547
63,0.49085283279418945,0.7216632573775431,0.5234929323196411,0.7577184720041863
64,0.4838249981403351,0.6983147804576376,0.5005937814712524,0.8117089259946404
65,0.4288329482078552,0.7261845297559584,0.4863167405128479,0.7734376734376734
66,0.34869787096977234,0.8522977022977022,0.5932332873344421,0.7677386105957534
67,0.4875521659851074,0.6914347557204701,0.4900994896888733,0.7801476301476302
68,0.4638233780860901,0.8103253888968174,0.5106713771820068,0.7922696351267781
69,0.38736993074417114,0.8440725940725942,0.46608003973960876,0.7970307470307469
70,0.3474176228046417,0.8654179154179155,0.4655976891517639,0.8097085454228311
71,0.44176942110061646,0.7347446204589063,0.56503826379776,0.6415426835069693
72,0.43705394864082336,0.7493756243756243,0.4422576427459717,0.8155939298796442
73,0.35895517468452454,0.8274891774891774,0.436882883310318,0.8288592360020931
74,0.33637723326683044,0.8488989185417758,0.4318137764930725,0.8431045145330859
75,0.34607163071632385,0.8128419199847771,0.43804195523262024,0.839681746824604
76,0.36860689520835876,0.7806114520400235,0.43166548013687134,0.8431045145330859
77,0.3041999638080597,0.8409881784881784,0.4313906729221344,0.8288592360020931
78,0.300640344619751,0.8286608233036804,0.4495517909526825,0.8334665334665334
79,0.29444485902786255,0.7917844060701202,0.5343953967094421,0.7414434771577627
80,0.44419899582862854,0.7363596720739577,0.42649343609809875,0.8554421768707483
81,0.410499632358551,0.845987345987346,0.4612393081188202,0.8006176363319221
82,0.3441403806209564,0.8600357975357974,0.4767296016216278,0.7912896627182341
83,0.3346762955188751,0.8286840143983001,0.4449659287929535,0.839681746824604
84,0.3631162941455841,0.7804697286840144,0.4495379626750946,0.8062865705722849
85,0.3058242201805115,0.8317761603475889,0.46306177973747253,0.8235098235098235
86,0.28976568579673767,0.801279870922728,0.4641057550907135,0.7544415901558759
87,0.2876698076725006,0.8374520320948892,0.44194096326828003,0.8340540411968984
88,0.28621339797973633,0.8374520320948892,0.4385645091533661,0.8083583083583085
89,0.28037649393081665,0.8192220477934764,0.4559268355369568,0.8340540411968984
90,0.2668459713459015,0.8191370137798709,0.44367143511772156,0.8340540411968984
91,0.2768680453300476,0.8429465375893946,0.4375792443752289,0.8235098235098235
92,0.319530189037323,0.8012471655328798,0.502094030380249,0.8021121735407448
93,0.3871159255504608,0.7947837876409306,0.4871734082698822,0.7970307470307469
94,0.4277850091457367,0.7523579595008167,0.46304088830947876,0.8149961149961149
95,0.3581138253211975,0.7892024642024643,0.4558241665363312,0.8280346637489495
96,0.30261245369911194,0.8603475889190176,0.47792690992355347,0.8154916512059369
97,0.35540691018104553,0.8141715427429712,0.4437209963798523,0.8270657913515057
98,0.32403185963630676,0.8664983825698112,0.43729791045188904,0.8257670900528044
99,0.2792920768260956,0.8409881784881784,0.42821961641311646,0.8340540411968984
100,0.2619573473930359,0.8320338391766964,0.4743497669696808,0.8097085454228311
101,0.3871418535709381,0.8001649144506287,0.44964930415153503,0.839403453689168
102,0.3374817669391632,0.8657134532134532,0.45110800862312317,0.8281480424337567
103,0.28888511657714844,0.8600357975357974,0.4777686893939972,0.7912896627182341
104,0.2588185667991638,0.8429465375893946,0.43416881561279297,0.8340540411968984
105,0.2655855119228363,0.8374520320948892,0.44676098227500916,0.8340540411968984
106,0.2546554505825043,0.8374520320948892,0.44482487440109253,0.8340540411968984
107,0.2675805687904358,0.8429465375893946,0.42850345373153687,0.8340540411968984
108,0.2537451386451721,0.8305075876504447,0.42728590965270996,0.8340540411968984
109,0.25236114859580994,0.8522435897435896,0.4333571791648865,0.8249631321059893
110,0.26599788665771484,0.8287458573172859,0.43508195877075195,0.8111471861471861
111,0.2565748393535614,0.838607226107226,0.5435898303985596,0.7851664208807064
112,0.42397525906562805,0.7168315811172954,0.4691977798938751,0.8395033537890682
113,0.36751991510391235,0.8212311498025783,0.45277997851371765,0.8372389515246658
114,0.4155261814594269,0.7772977022977022,0.4695160984992981,0.8264679764679764
115,0.4867688715457916,0.7589452214452214,0.4339990019798279,0.8478037835180692
116,0.4738743305206299,0.789433582290725,0.5970353484153748,0.7324255109969394
117,0.38200315833091736,0.8314102564102563,0.5520291924476624,0.7878994021851166
118,0.40310826897621155,0.8188811188811188,0.5258401036262512,0.8001133786848073
119,0.3332648277282715,0.84991674991675,0.4789016544818878,0.8416194916194917
120,0.35665687918663025,0.8274582560296846,0.4454037845134735,0.8257670900528044
121,0.3401227593421936,0.8094096379810665,0.43932008743286133,0.8257670900528044
122,0.3019147217273712,0.8397126682840969,0.4352785050868988,0.8523904666761809
123,0.27974584698677063,0.8397126682840969,0.4348613917827606,0.8422173065030208
124,0.27085080742836,0.8397126682840969,0.4290660321712494,0.8270657913515057
125,0.2626485824584961,0.8682317682317681,0.43396154046058655,0.8422173065030208
126,0.25717276334762573,0.8373626373626373,0.44595879316329956,0.8358474858474858
127,0.24190057814121246,0.8305075876504447,0.44829636812210083,0.8545549688406832
128,0.24819238483905792,0.8593031968031967,0.4379972815513611,0.8422173065030208
129,0.2480221688747406,0.8593031968031967,0.43141332268714905,0.8422173065030208
130,0.2476666122674942,0.8682317682317681,0.4312000870704651,0.8422173065030208
131,0.25260457396507263,0.8499167499167498,0.4524967074394226,0.868491032776747
132,0.2217845469713211,0.861172161172161,0.4721031188964844,0.8439489082346225
133,0.24728405475616455,0.8500911786626072,0.44489389657974243,0.8545549688406832
134,0.26793500781059265,0.8665834165834164,0.4220258295536041,0.8647281290138433
135,0.25441643595695496,0.8647977022977021,0.44889721274375916,0.8278396206967634
136,0.2629198431968689,0.8856310356310356,0.44918155670166016,0.7934644720359005
137,0.2703847289085388,0.8518751090179661,0.44100481271743774,0.8129037629037629
138,0.2349822223186493,0.8374520320948892,0.5070584416389465,0.8021121735407448
139,0.28263527154922485,0.8328274899703471,0.4702726900577545,0.8258701615844473
140,0.47167477011680603,0.7015341801056086,0.5674930810928345,0.8049466406609264
141,0.4164263904094696,0.8279514136656995,0.4258663058280945,0.7807668521954236
142,0.3381546139717102,0.9061605061605061,0.4770874083042145,0.829477665191951
143,0.3408421576023102,0.8623626373626374,0.456574410200119,0.8267290249433107
144,0.2979731857776642,0.9459956709956711,0.42453742027282715,0.8536796536796538
145,0.49721676111221313,0.7430426716141002,0.6625714898109436,0.5711559274059274
146,0.5320404171943665,0.7877158555729984,0.6460718512535095,0.6178547642833357
147,0.5831097960472107,0.6596595864453008,1.2728112936019897,0.5600732600732601
148,0.5125430822372437,0.7336255014826444,0.6908964514732361,0.6554148232719662
149,0.8083945512771606,0.6388528138528138,1.7455732822418213,0.5181580324437468
150,1.1498202085494995,0.619952071737786,0.7512751221656799,0.6671407957122242
151,0.6802242994308472,0.5636982065553494,0.9278154373168945,0.4123170480313338
152,0.7209939956665039,0.5191542584399726,0.5742681622505188,0.7757956329384902
153,0.4906948506832123,0.6954803133374562,0.5863526463508606,0.7332112332112333
154,0.5011246800422668,0.7713976499690786,0.7203212380409241,0.5949982557125414
155,0.42187151312828064,0.7631725417439703,0.6019124984741211,0.7458355136926565
156,0.5616030097007751,0.6470636506350792,0.8302399516105652,0.3849489795918367
157,0.571927011013031,0.48860544217687074,0.7270875573158264,0.42121598639455776
158,0.5490807890892029,0.5767562794348509,0.7016643285751343,0.39668694400837257
159,0.5475464463233948,0.6481423338566196,0.6918591856956482,0.503570239284525
160,0.5392894744873047,0.6420609152752009,0.67320317029953,0.6238146773861059
161,0.48584508895874023,0.6867382617382617,0.6190767884254456,0.7114195328481042
162,0.450344979763031,0.708951762523191,0.6114510893821716,0.6683150183150183
163,0.4179043471813202,0.7405364476793049,0.620913028717041,0.647587333301619
164,0.4008845388889313,0.7725357975357976,0.6330717206001282,0.6638984031841175
165,0.369414359331131,0.8242673992673992,0.6549825072288513,0.6411172161172161
166,0.3720971643924713,0.7603475889190177,0.6512697339057922,0.6515357658214801
167,0.44640854001045227,0.7784340659340658,0.672246515750885,0.6939136260564832
168,0.36827823519706726,0.8212224283652855,0.6221360564231873,0.6820389927532785
169,0.3520449697971344,0.8042980828695113,0.6138015985488892,0.6914529914529914
170,0.3245522677898407,0.8892024642024641,0.6140008568763733,0.6914529914529914
171,0.3277650475502014,0.845856524427953,0.6123115420341492,0.6599249956392813
172,0.30888673663139343,0.8892024642024641,0.6182781457901001,0.6720335220335221
173,0.3060063421726227,0.8261595547309832,0.6281026601791382,0.6720335220335221
174,0.2956368029117584,0.845856524427953,0.6491018533706665,0.6651816437530723
175,0.3259719908237457,0.859750566893424,0.6581140756607056,0.6833428476285619
176,0.44580039381980896,0.7845804988662131,0.6950111985206604,0.6985904968047826
177,0.3858385384082794,0.7746547103689959,0.6454948782920837,0.668129489558061
178,0.32593101263046265,0.8314625850340136,0.6228172183036804,0.6823842823842823
179,0.27815836668014526,0.8790816326530614,0.6672328114509583,0.6952434470291612
180,0.28303298354148865,0.8529993815708101,0.6685252785682678,0.7178210678210678
181,0.2779090404510498,0.8302721088435374,0.6734868288040161,0.6733124018838305
182,0.26627472043037415,0.8587912087912087,0.6996405720710754,0.6772281290138433
183,0.275178462266922,0.8379287379287378,0.6853635907173157,0.7014301175015462
184,0.269396036863327,0.8631202131202131,0.6839447617530823,0.6651816437530723
185,0.2955384850502014,0.8445578231292518,0.7014511823654175,0.6511226868369725
186,0.436443954706192,0.7352839620696763,0.7706643342971802,0.6504380540094826
187,0.5369396209716797,0.6711451247165533,0.6455597877502441,0.6832766439909298
188,0.45080122351646423,0.7267835339263911,0.6701425909996033,0.6992412349555206
189,0.45042118430137634,0.7470826792255363,0.6433135271072388,0.6820798249369677
190,0.4028230309486389,0.7383307169021455,0.6489772796630859,0.6188561438561438
191,0.4119488298892975,0.7883033633033633,0.6918613314628601,0.6296703296703295
192,0.4112311005592346,0.7170103705817992,0.6735758185386658,0.6694567337424481
193,0.3876323699951172,0.8135471671185958,0.6894229650497437,0.6161505161505161
194,0.38314247131347656,0.8135471671185958,0.7094005942344666,0.648942723942724
195,0.38974952697753906,0.7880119880119879,0.6923976540565491,0.6218864468864468
196,0.3823152184486389,0.8308108558108557,0.688938558101654,0.6241032776747062
197,0.38087376952171326,0.8176073926073925,0.7090641260147095,0.6476785119642262
198,0.3726750314235687,0.812037962037962,0.6823631525039673,0.6470470006184292
199,0.3783150017261505,0.793964368964369,0.7200810313224792,0.6401955187669472
200,0.33525243401527405,0.8092918985776129,0.7238873243331909,0.5881868131868132
201,0.39397168159484863,0.8048618048618048,0.6860013604164124,0.6724749456892314
202,0.33653026819229126,0.7914965986394558,0.6561018824577332,0.6386672850958565
203,0.3775803744792938,0.797854526425955,0.6590076684951782,0.685919239490668
204,0.4448998272418976,0.7664502164502165,0.7325038909912109,0.7461189604046747
205,0.27842214703559875,0.850884829456258,0.6346999406814575,0.7219867434153148
206,0.468818724155426,0.7677655677655677,0.7496712803840637,0.6540677576391862
207,0.4583187699317932,0.7808905380333951,0.5760916471481323,0.7747419247419247
208,0.48730507493019104,0.7736121021835308,0.9079455733299255,0.49024309024309026
209,0.6091130971908569,0.6339285714285714,0.7357353568077087,0.4441751700680272
210,0.5057879090309143,0.6548076923076922,0.6390158534049988,0.6925507032649889
211,0.5048667788505554,0.6679396000824571,0.6400929093360901,0.6693722943722944
212,0.5006816983222961,0.6937728937728938,0.6485137343406677,0.6535631035631037
213,0.4846689701080322,0.7112244897959183,0.6529326438903809,0.6327838827838829
214,0.47415998578071594,0.7184894470608756,0.643839418888092,0.6817349317349317
215,0.4709658622741699,0.7091923949066805,0.6447767019271851,0.6729686979686981
216,0.46555063128471375,0.7091923949066805,0.6539049744606018,0.6535631035631037
217,0.45383355021476746,0.7099773242630384,0.6624252200126648,0.6777650920508063
218,0.4451579749584198,0.7044475365903936,0.6636906862258911,0.6532907568621854
219,0.44495853781700134,0.6934894470608757,0.6608554124832153,0.6555789448646591
220,0.4425213932991028,0.6701504844361986,0.6622746586799622,0.6643451786308929
221,0.4406033158302307,0.6951504844361986,0.6665745973587036,0.6459314495028782
222,0.43567708134651184,0.7044475365903936,0.665788471698761,0.6569858712715855
223,0.4335598945617676,0.7044475365903936,0.6654996871948242,0.6401431901431902
224,0.43299600481987,0.7044475365903936,0.6680841445922852,0.6807953950811093
225,0.42991703748703003,0.7044475365903936,0.6685729026794434,0.6565934065934067
226,0.42773717641830444,0.7044475365903936,0.6686071753501892,0.6565934065934067
227,0.4259386360645294,0.7044475365903936,0.6689335107803345,0.6565934065934067
228,0.4237229526042938,0.7044475365903936,0.6686975359916687,0.6565934065934067
229,0.4216495156288147,0.7044475365903936,0.6682868003845215,0.6565934065934067
230,0.4194345474243164,0.7044475365903936,0.6679566502571106,0.6565934065934067
231,0.41724562644958496,0.7044475365903936,0.6674060225486755,0.6565934065934067
232,0.41480308771133423,0.7044475365903936,0.6673316359519958,0.6730769230769231
233,0.41282838582992554,0.7044475365903936,0.6677943468093872,0.6730769230769231
234,0.4101307988166809,0.7044475365903936,0.6687195897102356,0.6730769230769231
235,0.40824785828590393,0.6896206967635539,0.6697732210159302,0.6823842823842823
236,0.40548110008239746,0.6896206967635539,0.6717289090156555,0.6730769230769231
237,0.4039287865161896,0.6896206967635539,0.6729803681373596,0.671329860615575
238,0.40086331963539124,0.7018655947227376,0.6763449907302856,0.6492673992673993
239,0.4004047214984894,0.6896206967635539,0.6769146919250488,0.6955318491032777
240,0.3963828980922699,0.6930307787450644,0.6822460889816284,0.6492673992673993
241,0.39900490641593933,0.6896206967635539,0.6819553375244141,0.6556966842681129
242,0.3907777667045593,0.6928555571412713,0.6870627403259277,0.6492673992673993
243,0.3938508629798889,0.7018655947227376,0.6898820996284485,0.5723633509347795
244,0.38509199023246765,0.792341785198928,0.6891363263130188,0.6717223252937539
245,0.39442920684814453,0.7078576185719043,0.7007716298103333,0.6609557109557109
246,0.424536794424057,0.7155534941249228,0.7168466448783875,0.5868655154369441
247,0.445557177066803,0.6921237492666064,0.634601891040802,0.6936353329210473
248,0.4839285910129547,0.6867382617382617,0.6370722651481628,0.6866240901955187
249,0.4690595269203186,0.6986121021835306,0.6507412791252136,0.6936420722135007
250,0.4529692530632019,0.6954462204462205,0.6376615166664124,0.6472860472860473
251,0.4470600187778473,0.7089347160775732,0.6491986513137817,0.6312604062604062
252,0.4364980161190033,0.7011425082853654,0.6780771017074585,0.6444079729794016
253,0.4172556698322296,0.6851251922680495,0.6996882557868958,0.5591503734360878
254,0.4137240946292877,0.7223134008848293,0.6961122155189514,0.6032384282384282
255,0.4219302237033844,0.7200715950715951,0.706882119178772,0.60149136577708
256,0.4099661707878113,0.7086770372484656,0.7107254266738892,0.5292124542124542
257,0.4015548825263977,0.7059381095095382,0.7080639600753784,0.6125457875457875
258,0.40907183289527893,0.727724656296085,0.7157227396965027,0.6262820512820513
259,0.3971571624279022,0.7059381095095382,0.7202569842338562,0.647437483151769
260,0.39739423990249634,0.8110579896294182,0.7469423413276672,0.6016483516483515
261,0.397175133228302,0.7164692450406734,0.7387046217918396,0.6089743589743588
262,0.3807732164859772,0.8013117834546406,0.8177881836891174,0.5557359307359306
263,0.41296952962875366,0.788835767407196,0.7456621527671814,0.5735613592756449
264,0.3969613015651703,0.7153215831787261,0.7927244305610657,0.5376722483865342
265,0.3914411962032318,0.6828231292517006,0.7572040557861328,0.5289726146869004
266,0.36780399084091187,0.7998687820116391,0.799092710018158,0.6114718614718615
267,0.41392916440963745,0.6853689960832818,0.7624009251594543,0.5289726146869004
268,0.38414642214775085,0.7739486703772417,0.7873916029930115,0.5361388611388611
269,0.4085509479045868,0.692790146361575,0.8268035650253296,0.6171756814613957
270,0.4159392714500427,0.6018398268398268,0.7159205675125122,0.5531746031746032
271,0.3570389151573181,0.7665687487116059,0.7919138073921204,0.6096938775510204
272,0.4022829234600067,0.6710832817975676,0.7645606398582458,0.6234824699110412
273,0.3871478736400604,0.7450236271664842,0.745082676410675,0.6520923520923521
274,0.4300161898136139,0.6453669346526488,0.707618236541748,0.537388801674516
275,0.4259810447692871,0.7720386756101041,0.6674303412437439,0.5756101041815328
276,0.42830222845077515,0.72491674991675,0.6613020300865173,0.666665873808731
277,0.43208763003349304,0.7125541125541125,0.6894203424453735,0.679652886795744
278,0.4168779253959656,0.6913610199324485,0.6968463063240051,0.5540138432995575
279,0.43612924218177795,0.837749948464234,0.7164177894592285,0.6630952380952382
280,0.5097098350524902,0.6493197278911564,0.7214484810829163,0.674994053565482
281,0.4778580963611603,0.770408163265306,0.8350921869277954,0.6050736961451246
282,0.5920256972312927,0.6351422387136674,0.6356703639030457,0.5527133580705009
283,0.5130000710487366,0.6801085818942961,0.6879144906997681,0.44672619047619044
284,0.47056740522384644,0.6560374149659863,0.6242753267288208,0.6902847152847154
285,0.47197216749191284,0.6873309230452087,0.6299242377281189,0.6650349650349651
286,0.4584324359893799,0.7076530612244898,0.6533838510513306,0.6383033633033632
287,0.44456571340560913,0.7112411398125682,0.6526971459388733,0.6261821511821511
288,0.44179731607437134,0.723992673992674,0.6443934440612793,0.6052792445649589
289,0.442242830991745,0.723992673992674,0.646691620349884,0.6052792445649589
290,0.43447616696357727,0.7165524951239236,0.6509538292884827,0.6052792445649589
291,0.4289984703063965,0.7056776556776557,0.6539624929428101,0.6052792445649589
292,0.42885738611221313,0.7145211930926216,0.6598679423332214,0.6052792445649589
293,0.4266934394836426,0.727724656296085,0.6630286574363708,0.6052792445649589
294,0.42353057861328125,0.7506184291898578,0.6637924313545227,0.6052792445649589
295,0.42135530710220337,0.7506184291898578,0.6664732098579407,0.6052792445649589
296,0.4184109568595886,0.7506184291898578,0.6699391007423401,0.6203225346082489
297,0.41516390442848206,0.7544990723562153,0.6734128594398499,0.6203225346082489
298,0.41278690099716187,0.7544990723562153,0.6813778877258301,0.6203225346082489
299,0.41033458709716797,0.8378324056895485,0.6822341084480286,0.6203225346082489
300,0.40615972876548767,0.8255351791066078,0.6862741708755493,0.6203225346082489
301,0.4112147390842438,0.8078695114409399,0.7874137163162231,0.623246991104134
302,0.5195704102516174,0.7102813852813853,0.7715756297111511,0.6349031920460492
303,0.5319567918777466,0.6869820655534941,0.6728729605674744,0.7021660878803736
304,0.4956628680229187,0.6867382617382617,0.6535409092903137,0.6958224315367172
305,0.4860219955444336,0.7097196454339311,0.6685986518859863,0.6279030493316208
306,0.46986156702041626,0.7037153322867609,0.6507381200790405,0.5503472717758433
307,0.47442927956581116,0.6887362637362637,0.649311363697052,0.6674753817610961
308,0.47417980432510376,0.6979627515341801,0.6452198028564453,0.6651871937586223
309,0.46159952878952026,0.7353915925344499,0.6598223447799683,0.6611983254840397
310,0.4527267813682556,0.7404282225710797,0.6446595788002014,0.6318942961800105
311,0.45406579971313477,0.6979627515341801,0.6424078941345215,0.6541969934827078
312,0.45167282223701477,0.7061878597592883,0.6458522081375122,0.6479199372056516
313,0.4425487518310547,0.7142377463806034,0.6490362286567688,0.6721219256933544
314,0.43757376074790955,0.7220299541728112,0.6583561301231384,0.6721219256933544
315,0.4280909597873688,0.7220299541728112,0.664890468120575,0.6633556919271205
316,0.41829708218574524,0.7212450248164534,0.6690114736557007,0.6566457352171639
317,0.4114995300769806,0.7024721310435595,0.6846279501914978,0.6531979924837067
318,0.4052085876464844,0.7024721310435595,0.6959100365638733,0.6531979924837067
319,0.4023304879665375,0.7113156684585256,0.7090120911598206,0.6885126777983921
320,0.41617512702941895,0.7224129045557616,0.7349718809127808,0.6570191713048856
321,0.4090920090675354,0.7342094413522984,0.7527415156364441,0.6663265306122448
322,0.4058576226234436,0.7342094413522984,0.7495929002761841,0.6570191713048856
323,0.4049789011478424,0.7342094413522984,0.7800330519676208,0.685482374768089
324,0.3785848915576935,0.7024721310435595,0.7387679219245911,0.6248239855382712
325,0.3785959780216217,0.6906755942470227,0.7918036580085754,0.6240406418977846
326,0.46212202310562134,0.737430426716141,0.7054480314254761,0.6560031238602668
327,0.4688771665096283,0.8009070294784578,0.686477541923523,0.6513038548752833
328,0.5499328374862671,0.6592403628117914,0.6503113508224487,0.7082691118405403
329,0.5373337864875793,0.6734848484848485,0.7432474493980408,0.6259811616954475
330,0.6313687562942505,0.6724620617477761,0.7643001675605774,0.541991341991342
331,0.5762405395507812,0.7057567432567432,0.7721001505851746,0.5905011655011655
332,0.5419862866401672,0.7236695843838701,0.664441704750061,0.6143106893106893
333,0.47855904698371887,0.7384964242107098,0.6114941835403442,0.6206400742115028
334,0.4706553518772125,0.7029426922284064,0.5953046083450317,0.7481447124304267
335,0.4537018835544586,0.7169846026988883,0.595248281955719,0.7145453752596609
336,0.428962767124176,0.7359101216244073,0.6013904809951782,0.6378859236002093
337,0.4367067217826843,0.7217722753437038,0.5940591096878052,0.7198872556015413
338,0.42537084221839905,0.7322201607915891,0.5897918343544006,0.7078516721373864
339,0.4089277386665344,0.7322201607915891,0.6128948330879211,0.6276580562294848
340,0.41368773579597473,0.8096011131725416,0.6038867831230164,0.6111745397459684
341,0.40589553117752075,0.8213976499690784,0.6178900003433228,0.6276580562294848
342,0.40472787618637085,0.8167439703153988,0.592678964138031,0.6927001569858712
343,0.4476120173931122,0.7861430236430236,0.598773181438446,0.6762602476888191
344,0.3884856700897217,0.8056380127808698,0.6018904447555542,0.6624149659863946
345,0.4088059365749359,0.7986033807462378,0.602981448173523,0.6902121687835974
346,0.41093364357948303,0.8021748093176663,0.6131173372268677,0.7041720184577328
347,0.3784411549568176,0.8037981859410429,0.6239846348762512,0.606878835450264
348,0.39331573247909546,0.8077612863327149,0.6347993016242981,0.6004685790400076
349,0.40470245480537415,0.8338994338994338,0.6219086647033691,0.7041720184577328
350,0.36773228645324707,0.8219387755102039,0.6942080855369568,0.606878835450264
351,0.3856746554374695,0.7969387755102041,0.6494250297546387,0.6004685790400076
352,0.39577212929725647,0.82290170147313,0.6243663430213928,0.6950811093668235
353,0.3627014756202698,0.7889713461142032,0.6586739420890808,0.606878835450264
354,0.38288065791130066,0.7897959183673467,0.6661881804466248,0.6004685790400076
355,0.41125935316085815,0.8016646052360337,0.6386960744857788,0.7165096807953951
356,0.35454627871513367,0.803013256584685,0.7518211603164673,0.5914418914418915
357,0.37743309140205383,0.7969387755102041,0.7313286066055298,0.606878835450264
358,0.36692410707473755,0.7965058750773035,0.6989105939865112,0.5903953189667476
359,0.3787008821964264,0.8421245421245421,0.6354712843894958,0.6950811093668235
360,0.35280901193618774,0.8050514961229246,0.6656947135925293,0.606878835450264
361,0.37102633714675903,0.8518751090179661,0.6386750340461731,0.6950811093668235
362,0.3375287652015686,0.8198783359497643,0.7069993019104004,0.616952095523524
363,0.3530403971672058,0.794476356976357,0.67588871717453,0.6004685790400076
364,0.35581424832344055,0.8499167499167497,0.6554883122444153,0.6714642500356787
365,0.33466342091560364,0.8063270063270062,0.6668561100959778,0.5903953189667476
366,0.3541731834411621,0.8421245421245421,0.6624955534934998,0.6762416155273298
367,0.3575722575187683,0.7835688121402405,0.6448907852172852,0.6529494315208602
368,0.3998508155345917,0.7956039991754278,0.6594186425209045,0.6712148962148962
369,0.34883207082748413,0.8025767882910738,0.6621593832969666,0.6622056514913658
370,0.3800417482852936,0.8037708323422609,0.6571592092514038,0.6684577327434471
371,0.3192984163761139,0.8050514961229246,0.673944354057312,0.6529494315208602
372,0.3252274990081787,0.8219928880643167,0.6891144514083862,0.5796893582607868
373,0.3203876316547394,0.8624708624708622,0.6824310421943665,0.5941915227629514
374,0.37373271584510803,0.7994109065537637,0.668181300163269,0.6694329480043766
375,0.39458486437797546,0.8195217480931766,0.687146782875061,0.638548752834467
376,0.5073411464691162,0.7245129870129869,0.6600438356399536,0.6499123891981035
377,0.4869251847267151,0.6938811188811188,0.6550999283790588,0.6730364873222017
378,0.4692360758781433,0.6590909090909091,0.6553683876991272,0.680167451596023
379,0.43831682205200195,0.7004828504828504,0.6374087929725647,0.6964535464535464
380,0.44013068079948425,0.6941078762507333,0.6469916105270386,0.6652514152514153
381,0.4304516613483429,0.7053632875061446,0.6710861921310425,0.5766590552304838
382,0.4165898263454437,0.7151534972963544,0.6846032738685608,0.5649862042719186
383,0.409029483795166,0.6851251922680495,0.6934934258460999,0.6405356548213691
384,0.4017958343029022,0.7032657818372103,0.6975794434547424,0.6347997240854383
385,0.38275566697120667,0.7771603396603396,0.7312121987342834,0.636595547309833
386,0.37455040216445923,0.7678632875061446,0.7469450831413269,0.6541280148423005
387,0.361083447933197,0.7409881784881784,0.7569109201431274,0.6983028875886018
388,0.34406688809394836,0.8007104007104006,0.7475618124008179,0.6796691403834261
389,0.349192351102829,0.8177197802197803,0.7563605308532715,0.6846665239522381
390,0.3542120158672333,0.8150244596673167,0.7814231514930725,0.7104240997098138
391,0.36502787470817566,0.73069906284192,0.8220019340515137,0.6594155844155845
392,0.5105313658714294,0.6702380952380952,0.7436059713363647,0.6803375196232339
393,0.4818444848060608,0.7201548451548451,0.7257941961288452,0.6784188034188033
394,0.4862089157104492,0.7057771593485879,0.6676259636878967,0.6851081458224316
395,0.45527246594429016,0.7311268096982382,0.6594642400741577,0.6889039531896675
396,0.4348164498806,0.7338823874538161,0.6326504945755005,0.6974466010180296
397,0.4250496029853821,0.7174904460618745,0.6195660829544067,0.6634476634476635
398,0.423353374004364,0.7139455782312923,0.6254190802574158,0.6634476634476635
399,0.41636988520622253,0.7046616082330368,0.6377068758010864,0.6740699776414062
400,0.4080723226070404,0.7046616082330368,0.6458868980407715,0.6740699776414062
401,0.4008939266204834,0.694979623551052,0.6539982557296753,0.6320108462965607
402,0.39542490243911743,0.6801527837242123,0.6666997671127319,0.6320108462965607
403,0.38962432742118835,0.7211966604823747,0.684261679649353,0.6320108462965607
404,0.3818228542804718,0.7235776128633271,0.7053147554397583,0.6203225346082489
405,0.3748001158237457,0.8188157081014225,0.7179065346717834,0.6203225346082489
406,0.37067681550979614,0.8086425479282623,0.7290700674057007,0.6320108462965607
407,0.364271879196167,0.7963453213453213,0.7460076212882996,0.6320108462965607
408,0.36020588874816895,0.7963453213453213,0.7616615891456604,0.6320108462965607
409,0.354493647813797,0.7963453213453213,0.773410439491272,0.6246848389705534
410,0.3510437607765198,0.7963453213453213,0.782457172870636,0.6246848389705534
411,0.349006325006485,0.7963453213453213,0.7924550175666809,0.6246848389705534
412,0.34514063596725464,0.7963453213453213,0.8056656718254089,0.6246848389705534
413,0.3422451615333557,0.7963453213453213,0.8162449598312378,0.6246848389705534
414,0.3398253321647644,0.7963453213453213,0.8249305486679077,0.6246848389705534
415,0.33693727850914,0.8123626373626374,0.8356084823608398,0.6246848389705534
416,0.3342234194278717,0.8123626373626374,0.8454578518867493,0.5289888682745826
417,0.33158302307128906,0.8123626373626374,0.8536550402641296,0.5413265306122449
418,0.3289939761161804,0.8225357975357975,0.8622282147407532,0.5413265306122449
419,0.32641083002090454,0.8225357975357975,0.8705333471298218,0.5413265306122449
420,0.323889821767807,0.8225357975357975,0.8772573471069336,0.5413265306122449
421,0.32134810090065,0.8296786546786546,0.8834038972854614,0.6246598639455783
422,0.3187721371650696,0.8544039294039294,0.8888969421386719,0.6246598639455783
423,0.31618961691856384,0.8544039294039294,0.8929384350776672,0.6246598639455783
424,0.31342998147010803,0.8544039294039294,0.8964686393737793,0.6179705215419501
425,0.31046929955482483,0.8544039294039294,0.8985885977745056,0.6179705215419501
426,0.30698782205581665,0.8442307692307692,0.8976691365242004,0.6303331589045875
427,0.3026697337627411,0.854774986917844,0.8823957443237305,0.641387580673295
428,0.4263233244419098,0.8022806558520843,0.7677659392356873,0.6643598465027036
429,0.4470162093639374,0.7311268096982382,0.7098402380943298,0.5893289250432109
430,0.4137220084667206,0.7498679891537036,0.684325635433197,0.5333571190714048
431,0.40567079186439514,0.8234345020059307,0.6315216422080994,0.6250741322169894
432,0.4114191234111786,0.793031571603,0.6378223299980164,0.6175911390197104
433,0.3977339565753937,0.7829583115297402,0.6707373261451721,0.5735288521002807
434,0.3823685646057129,0.7939560439560439,0.7038699388504028,0.5493268636125779
435,0.3701639771461487,0.7751831501831502,0.7060920000076294,0.5480436230436231
436,0.362957239151001,0.7658773765916622,0.7414432168006897,0.5369892012749156
437,0.36037200689315796,0.7658773765916622,0.7386052012443542,0.5278982921840065
438,0.3579060435295105,0.7742673992673993,0.7327834963798523,0.538952713952714
439,0.3546751141548157,0.7742673992673993,0.7345240712165833,0.5537795537795538
440,0.35042116045951843,0.7742673992673993,0.7358745336532593,0.5688228438228439
441,0.34613919258117676,0.7832500832500832,0.7364808917045593,0.5688228438228439
442,0.34248867630958557,0.7832500832500832,0.742030143737793,0.5688228438228439
443,0.3381825387477875,0.7930006501435072,0.7498154044151306,0.5597319347319348
444,0.331851065158844,0.7930006501435072,0.7683810591697693,0.5597319347319348
445,0.31920549273490906,0.7930006501435072,0.8068113923072815,0.5597069597069597
446,0.30446937680244446,0.8183717076574221,0.8635064959526062,0.5597319347319348
447,0.297334223985672,0.8268751090179662,0.8812874555587769,0.5589569160997733
448,0.29341503977775574,0.8195054945054945,0.8929842710494995,0.5589569160997733
449,0.2900105118751526,0.8195054945054945,0.8930908441543579,0.5680478251906823
450,0.2877417206764221,0.8314102564102565,0.8944101929664612,0.5680478251906823
451,0.28530263900756836,0.8451548451548451,0.893673300743103,0.5680478251906823
452,0.28392353653907776,0.8451548451548451,0.8924055695533752,0.5780045351473923
453,0.28243115544319153,0.8715367965367965,0.8923761248588562,0.5780045351473923
454,0.28094735741615295,0.8715367965367965,0.8891194462776184,0.5780045351473923
455,0.2795214354991913,0.8715367965367965,0.8860439658164978,0.5780045351473923
456,0.278285413980484,0.8893939393939394,0.8801214098930359,0.5780045351473923
457,0.2771192193031311,0.8893939393939394,0.8769583702087402,0.5780045351473923
458,0.2755115330219269,0.8893939393939394,0.8744795918464661,0.5780045351473923
459,0.27329444885253906,0.8893939393939394,0.8742709755897522,0.5780045351473923
460,0.2702750861644745,0.8791898577612863,0.8748635053634644,0.5780045351473923
461,0.26680219173431396,0.8791898577612863,0.874249279499054,0.5780045351473923
462,0.2636495530605316,0.8791898577612863,0.8701635003089905,0.5780045351473923
463,0.26106008887290955,0.8791898577612863,0.8645461201667786,0.5780045351473923
464,0.25861766934394836,0.8791898577612863,0.8619604706764221,0.5780045351473923
465,0.2562459111213684,0.8791898577612863,0.8601157069206238,0.5780045351473923
466,0.2542620599269867,0.8863327149041434,0.854577362537384,0.5780045351473923
467,0.2524326741695404,0.8863327149041434,0.8514260053634644,0.5780045351473923
468,0.25033053755760193,0.8863327149041434,0.854314386844635,0.5780045351473923
469,0.24825772643089294,0.8863327149041434,0.8514243960380554,0.5780045351473923
470,0.24664010107517242,0.8863327149041434,0.8486939072608948,0.5903671725100297
471,0.24473848938941956,0.8863327149041434,0.8535226583480835,0.5903671725100297
472,0.24251021444797516,0.8774891774891775,0.854250967502594,0.5903671725100297
473,0.24073077738285065,0.8774891774891775,0.8568639755249023,0.6001177394034537
474,0.2388792186975479,0.8774891774891775,0.8592658042907715,0.6001177394034537
475,0.23661814630031586,0.8774891774891775,0.8684075474739075,0.6001177394034537
476,0.2340986430644989,0.8774891774891775,0.8713603019714355,0.6001177394034537
477,0.23176416754722595,0.8774891774891775,0.8832260370254517,0.6001177394034537
478,0.22924312949180603,0.8774891774891775,0.8905509114265442,0.6001177394034537
479,0.22655977308750153,0.8774891774891775,0.9014615416526794,0.6001177394034537
480,0.22405338287353516,0.8774891774891775,0.9129033088684082,0.5935417756846328
481,0.22195973992347717,0.8900432900432901,0.9223355054855347,0.5935417756846328
482,0.21989896893501282,0.8900432900432901,0.933256983757019,0.5935417756846328
483,0.21749822795391083,0.8900432900432901,0.9446277022361755,0.5935417756846328
484,0.2151334434747696,0.8900432900432901,0.9526748657226562,0.5935417756846328
485,0.21319615840911865,0.9012987012987014,0.9639533758163452,0.5935417756846328
486,0.2112250030040741,0.9012987012987014,0.9854636788368225,0.5935417756846328
487,0.20905175805091858,0.9012987012987014,0.9965638518333435,0.5935417756846328
488,0.20702719688415527,0.9012987012987014,0.9812247157096863,0.5935417756846328
489,0.20475347340106964,0.9012987012987014,0.9864000678062439,0.6768751090179661
490,0.20188048481941223,0.9108225108225109,1.0108832120895386,0.5935417756846328
491,0.19951710104942322,0.9108225108225109,1.0000178813934326,0.5935417756846328
492,0.1965552419424057,0.9108225108225109,1.0252052545547485,0.5935417756846328
493,0.19322650134563446,0.9227272727272727,1.059883952140808,0.5935417756846328
494,0.18942177295684814,0.9227272727272727,1.0125538110733032,0.5935417756846328
495,0.18585190176963806,0.9227272727272727,1.010279893875122,0.5952424559567416
496,0.18298964202404022,0.9375541125541125,0.9921733140945435,0.5935417756846328
497,0.20637592673301697,0.9304112554112554,1.2782766819000244,0.5536891679748822
498,0.7008612751960754,0.8013030620173477,0.9321810603141785,0.6848587920016491
499,0.773647129535675,0.6565321583178727,0.6927094459533691,0.7154710368996083
500,0.5939387083053589,0.6791208791208793,0.8311507105827332,0.5361394557823129
501,0.5173618793487549,0.7111198325484039,0.7596936821937561,0.7074417645846216
502,0.5528218150138855,0.6394274376417233,0.7091134190559387,0.6135531135531135
503,0.5205813050270081,0.695956424527853,0.687710165977478,0.5427132391418106
504,0.49780669808387756,0.732051282051282,0.6630087494850159,0.749535385249671
505,0.5105856657028198,0.7203463203463203,0.6673736572265625,0.6042457542457542
506,0.49981722235679626,0.7068681318681318,0.6640805602073669,0.6159340659340659
507,0.4961431920528412,0.7068681318681318,0.6587708592414856,0.6423925281068138
508,0.49486270546913147,0.7153096903096904,0.6593602299690247,0.6265916623059481
509,0.4890502095222473,0.7068681318681318,0.6563166975975037,0.6265916623059481
510,0.48628631234169006,0.7265651015651015,0.6534053683280945,0.6298384155527013
511,0.4840288758277893,0.73500666000666,0.6521363854408264,0.6265916623059481
512,0.48069706559181213,0.7265651015651015,0.6498844027519226,0.6265916623059481
513,0.4784838855266571,0.7265651015651015,0.6479319334030151,0.6265916623059481
514,0.4763844907283783,0.7265651015651015,0.6465792059898376,0.6265916623059481
515,0.47396019101142883,0.7387275422989708,0.6450523138046265,0.6090591947734805
516,0.4718785583972931,0.7387275422989708,0.6436947584152222,0.6090591947734805
517,0.46981334686279297,0.7387275422989708,0.6425710320472717,0.6090591947734805
518,0.4676320552825928,0.7387275422989708,0.6414498686790466,0.6090591947734805
519,0.465567022562027,0.7387275422989708,0.6404528617858887,0.5980047730047732
520,0.46354231238365173,0.7387275422989708,0.6396520733833313,0.5980047730047732
521,0.46154454350471497,0.7387275422989708,0.6390433311462402,0.5980047730047732
522,0.4596862494945526,0.7387275422989708,0.6387366056442261,0.5980047730047732
523,0.4579525291919708,0.7387275422989708,0.638798177242279,0.5980047730047732
524,0.4562895894050598,0.7387275422989708,0.6391849517822266,0.5980047730047732
525,0.45463404059410095,0.7387275422989708,0.6397915482521057,0.5980047730047732
526,0.45287781953811646,0.7387275422989708,0.6404514908790588,0.5980047730047732
527,0.45096415281295776,0.7387275422989708,0.6410177946090698,0.5980047730047732
528,0.4489078223705292,0.7387275422989708,0.6414519548416138,0.5980047730047732
529,0.4467342793941498,0.7387275422989708,0.6418072581291199,0.5980047730047732
530,0.4444562494754791,0.7387275422989708,0.6421767473220825,0.5980047730047732
531,0.4420599937438965,0.7387275422989708,0.6426491737365723,0.5980047730047732
532,0.43950986862182617,0.7387275422989708,0.6432889699935913,0.6813381063381064
533,0.4367768168449402,0.7387275422989708,0.6441516876220703,0.6813381063381064
534,0.43384766578674316,0.7387275422989708,0.6453016400337219,0.6813381063381064
535,0.4307214915752411,0.7387275422989708,0.6468141674995422,0.6813381063381064
536,0.42740562558174133,0.7451377987092273,0.6487707495689392,0.6813381063381064
537,0.4239141345024109,0.7451377987092273,0.6512525677680969,0.6813381063381064
538,0.42026764154434204,0.7451377987092273,0.6543341875076294,0.6813381063381064
539,0.4164932370185852,0.7451377987092273,0.6580835580825806,0.5815212565212565
540,0.4126206934452057,0.7389190174904462,0.6625603437423706,0.5815212565212565
541,0.40868040919303894,0.7389190174904462,0.667812168598175,0.5815212565212565
542,0.4047098159790039,0.7389190174904462,0.6738502383232117,0.6320108462965607
543,0.40076690912246704,0.720171098742527,0.6805837750434875,0.6320108462965607
544,0.39693906903266907,0.7368377654091939,0.6877121329307556,0.6320108462965607
545,0.39332786202430725,0.722010925582354,0.694625735282898,0.6558203701060845
546,0.3900156617164612,0.7130282415996702,0.70055091381073,0.6800223585937873
547,0.38705873489379883,0.7130282415996702,0.7051141858100891,0.6800223585937873
548,0.3844730257987976,0.7242836528550816,0.7078503370285034,0.6649790685504973
549,0.3821353018283844,0.7342403628117913,0.7087921500205994,0.6649790685504973
550,0.37983688712120056,0.7327355184498041,0.7089694142341614,0.6649790685504973
551,0.37754106521606445,0.7420325706039991,0.7092679738998413,0.6649790685504973
552,0.3753313720226288,0.7508761080189651,0.7101235389709473,0.6649790685504973
553,0.3732011616230011,0.7508761080189651,0.711595892906189,0.6411695447409734
554,0.3710813522338867,0.7508761080189651,0.7138404846191406,0.6411695447409734
555,0.36894097924232483,0.7508761080189651,0.7168656587600708,0.5578362114076401
556,0.36683157086372375,0.7508761080189651,0.7201377749443054,0.5578362114076401
557,0.3648136258125305,0.7508761080189651,0.7231084704399109,0.5578362114076401
558,0.3628559708595276,0.7508761080189651,0.7256280779838562,0.5578362114076401
559,0.3608495593070984,0.7508761080189651,0.7292734980583191,0.5578362114076401
560,0.3589823544025421,0.7508761080189651,0.7328249216079712,0.5578362114076401
561,0.3571838438510895,0.7508761080189651,0.7368267774581909,0.5521002806717094
562,0.35514578223228455,0.7508761080189651,0.7417508959770203,0.5521002806717094
563,0.3526363968849182,0.7508761080189651,0.7485260367393494,0.6354336140050426
564,0.34922972321510315,0.7618738404452691,0.7589704394340515,0.6354336140050426
565,0.344316691160202,0.7618738404452691,0.7757593393325806,0.6178075892361606
566,0.3391421437263489,0.7542207792207792,0.7984244227409363,0.6260945403802547
567,0.33651965856552124,0.8227272727272726,0.8189493417739868,0.6260945403802547
568,0.33334511518478394,0.8446969696969696,0.8333141207695007,0.6560788417931276
569,0.32791996002197266,0.8446969696969696,0.854593813419342,0.6429705215419501
570,0.3243878185749054,0.8446969696969696,0.8683767914772034,0.5445261088118231
571,0.3218982517719269,0.8446969696969696,0.8821694254875183,0.5445261088118231
572,0.31878796219825745,0.8685064935064934,0.895295262336731,0.531260802689374
573,0.31565213203430176,0.8685064935064934,0.9068215489387512,0.531260802689374
574,0.3134484589099884,0.8685064935064934,0.9183527827262878,0.5419750884036598
575,0.3114749789237976,0.8685064935064934,0.9280242919921875,0.5306372199229341
576,0.30920737981796265,0.8580189651618223,0.9385705590248108,0.5306372199229341
577,0.30746299028396606,0.8580189651618223,0.9459549188613892,0.5306372199229341
578,0.305976927280426,0.8580189651618223,0.9550402760505676,0.5306372199229341
579,0.3037615418434143,0.8580189651618223,0.962080180644989,0.5306372199229341
580,0.3025534749031067,0.8580189651618223,0.968852698802948,0.5215463108320251
581,0.3014099597930908,0.8580189651618223,0.9748045802116394,0.5215463108320251
582,0.2987819015979767,0.8580189651618223,0.9826510548591614,0.5306372199229341
583,0.29853910207748413,0.8431921253349826,0.9906557202339172,0.5306372199229341
584,0.2981486916542053,0.8431921253349826,0.9754729270935059,0.5456805099662242
585,0.29692384600639343,0.8431921253349826,0.9763995409011841,0.5456805099662242
586,0.29280349612236023,0.8536796536796537,0.9815477728843689,0.5306372199229341
587,0.2938963770866394,0.8536796536796537,0.9847453236579895,0.5306372199229341
588,0.2898269593715668,0.8536796536796537,0.9943341016769409,0.5249012891870034
589,0.289074182510376,0.8536796536796537,0.9906902313232422,0.5249012891870034
590,0.287587434053421,0.8478354978354978,0.9930458664894104,0.6082346225203368
591,0.2834993004798889,0.8478354978354978,0.9930925369262695,0.6082346225203368
592,0.28153929114341736,0.8478354978354978,0.9697315096855164,0.5991437134294276
593,0.28182438015937805,0.8478354978354978,0.9631651043891907,0.5991437134294276
594,0.2766491770744324,0.8478354978354978,0.9741441607475281,0.5991437134294276
595,0.2690785229206085,0.8567099567099568,0.9611482620239258,0.6147281290138433
596,0.27804726362228394,0.8925824175824176,0.9297813177108765,0.626065997494569
597,0.27864620089530945,0.8606560106560107,0.9558091163635254,0.6468452182737898
598,0.26129674911499023,0.8579004329004329,0.9545533061027527,0.6618611547182977
599,0.28937697410583496,0.8838522588522589,0.9155787825584412,0.640269254554969
600,0.29225558042526245,0.8942307692307693,0.8849776983261108,0.6215360036788609
601,0.32607927918434143,0.7480983302411875,0.8910965919494629,0.6692949907235622
602,0.2501240372657776,0.8858320251177395,0.9273117184638977,0.6277442795299938
603,0.282114714384079,0.8417207792207793,0.9040626287460327,0.6701195629767058
604,0.2546822726726532,0.8564102564102566,1.001549243927002,0.6726963512677798
605,0.2532765567302704,0.8913610199324485,0.9027131795883179,0.6577612863327149
606,0.23970797657966614,0.88283621140764,0.9602617025375366,0.6701195629767058
607,0.23856768012046814,0.9050532800532801,0.9044545292854309,0.6577612863327149
608,0.2346668392419815,0.9134484563055992,0.8985401391983032,0.6815708101422386
609,0.2318340241909027,0.895133437990581,0.9037839770317078,0.669882498453927
610,0.22669784724712372,0.9134484563055992,0.8913043737411499,0.6456805099662242
611,0.22552570700645447,0.895133437990581,0.8962839245796204,0.669882498453927
612,0.22475047409534454,0.895133437990581,0.9176610112190247,0.6781076066790354
613,0.21539616584777832,0.9185504971219257,0.9032149910926819,0.6456805099662242
614,0.23546339571475983,0.9256933542647828,0.8765446543693542,0.6922284065141209
615,0.2343849092721939,0.9024507238792953,0.8337482213973999,0.7046528867957439
616,0.43039822578430176,0.8154761904761905,0.7336963415145874,0.7015254586683158
617,0.3971279561519623,0.8301805337519622,0.7686427235603333,0.6680010465724752
618,0.36895260214805603,0.8008116883116881,0.7360743284225464,0.7046528867957439
619,0.33975377678871155,0.8200061842918985,0.7977158427238464,0.6884199134199134
620,0.3303440511226654,0.7921923314780458,0.8102967143058777,0.6891132676846963
621,0.29648715257644653,0.8728501657073086,0.8186650276184082,0.6820578231292517
622,0.2819344997406006,0.8361198325484038,0.8490697741508484,0.651917130488559
623,0.3581530749797821,0.828937332508761,0.8487284779548645,0.6868294404008689
624,0.35604825615882874,0.8272893772893772,0.8343380093574524,0.6864076399790686
625,0.3274989426136017,0.8238636363636364,0.7758086323738098,0.6906977942692228
626,0.3847120702266693,0.7689909297052154,0.6154690384864807,0.7787589394732252
627,0.43371257185935974,0.7846655328798186,0.692001461982727,0.7239010989010989
628,0.4635377824306488,0.7224438260152546,0.7815675735473633,0.6535631035631037
629,0.48242923617362976,0.7183399933399934,0.8391441106796265,0.7009327973613687
630,0.6901679039001465,0.7612593755450898,0.9263246655464172,0.6663875806732948
631,0.6038921475410461,0.7395124716553287,1.1266893148422241,0.5111002093144951
632,0.511259138584137,0.6206162884734313,0.8526038527488708,0.67006327006327
633,0.5124710202217102,0.617511853226139,0.7972553968429565,0.6741425241425242
634,0.4894619882106781,0.6886553922268208,0.7870859503746033,0.5309904381332953
635,0.44697126746177673,0.6710182674468389,0.7284795045852661,0.6864801864801865
636,0.44754558801651,0.6843573093573093,0.7241506576538086,0.6766483516483517
637,0.4420751929283142,0.7089347160775732,0.7479153871536255,0.6610151753008895
638,0.45703214406967163,0.6922577422577422,0.7415891289710999,0.6739427239427239
639,0.4340590834617615,0.7730931766646052,0.7309251427650452,0.6747002997002998
640,0.4474939703941345,0.7010152545866831,0.7806453108787537,0.6346165739022881
641,0.41746702790260315,0.7891104926819211,0.8133072853088379,0.6528388278388279
642,0.4331984519958496,0.6939806225520512,0.8506590127944946,0.598461062746777
643,0.4104299247264862,0.7183752755181327,0.7705827951431274,0.6059440559440559
644,0.3836100399494171,0.7938723974438259,0.7461619973182678,0.6069264069264069
645,0.3912208676338196,0.8048701298701297,0.7732791304588318,0.5911350554207697
646,0.38062557578086853,0.7858225108225108,0.7801610827445984,0.5911350554207697
647,0.3666432201862335,0.7946660482374767,0.7873879671096802,0.5787724180581323
648,0.3640865385532379,0.7958874458874458,0.8128738403320312,0.6056372199229342
649,0.35921981930732727,0.8180006501435073,0.8190111517906189,0.6056372199229342
650,0.3532579839229584,0.8180006501435073,0.8293740153312683,0.6056372199229342
651,0.3501717746257782,0.8480289551718123,0.8370361924171448,0.6056372199229342
652,0.34628430008888245,0.8207526600383744,0.8597927093505859,0.6056372199229342
653,0.38861507177352905,0.7456480027908601,0.7763527035713196,0.6554029304029304
654,0.372182160615921,0.7091571127285413,0.8170725703239441,0.5223038865896009
655,0.36449334025382996,0.8354936729936729,0.8356803059577942,0.5106155749012892
656,0.35980096459388733,0.8058124415267273,0.8087970614433289,0.5296298939156082
657,0.34981584548950195,0.8002826538540824,0.8332939743995667,0.5223038865896009
658,0.3377286493778229,0.8421786546786547,0.8611769676208496,0.5099412492269635
659,0.34194833040237427,0.8236695843838702,0.8520382046699524,0.6056372199229342
660,0.3512895107269287,0.8251744287458573,0.7931756973266602,0.5406843156843156
661,0.3466792404651642,0.7980202337345194,0.8772293329238892,0.5223038865896009
662,0.3371393382549286,0.8651182151182152,0.9440020322799683,0.6179748822605965
663,0.35438284277915955,0.8280844155844155,0.7922459244728088,0.6893364571936
664,0.4017646610736847,0.7379949415663702,0.7969774603843689,0.5145866038723181
665,0.34288010001182556,0.8760901796616084,0.8383176922798157,0.5151277294134436
666,0.32492971420288086,0.8421786546786547,0.8904600143432617,0.6056122448979592
667,0.3362833857536316,0.8369588744588744,0.8926124572753906,0.6179748822605965
668,0.34953781962394714,0.8014731300445586,0.8027418851852417,0.5145866038723181
669,0.3535861074924469,0.7986525379382521,0.8585489988327026,0.5296298939156082
670,0.3362366259098053,0.8240921776636062,0.910956084728241,0.5223038865896009
671,0.3321242034435272,0.8264713461142034,0.9221904873847961,0.6179748822605965
672,0.3530673384666443,0.8126666983809842,0.8490813374519348,0.6056372199229342
673,0.33138567209243774,0.8445596070596072,0.8302717804908752,0.4948979591836734
674,0.325385183095932,0.8272977022977023,0.898170530796051,0.5911350554207697
675,0.3345729410648346,0.8445596070596071,0.8200355172157288,0.6316017316017317
676,0.3464219868183136,0.7865380651094936,0.8636630773544312,0.5296298939156082
677,0.31710368394851685,0.8493454957740673,0.9543268084526062,0.5201393844250987
678,0.3242914378643036,0.8353999175427748,0.9457527995109558,0.6296631939489082
679,0.35201337933540344,0.8244297369297369,0.8597613573074341,0.6129632272489415
680,0.31914854049682617,0.8270735217163789,0.8388604521751404,0.5262749155606298
681,0.31170910596847534,0.8579931972789117,0.9422802329063416,0.5201393844250987
682,0.32976073026657104,0.8445596070596071,0.8609278798103333,0.6049628942486086
683,0.32532039284706116,0.8301038247466819,0.8780673742294312,0.5413182056039199
684,0.30599603056907654,0.8475597814883529,0.9247279167175293,0.5078017220874363
685,0.3007006049156189,0.8434232434232433,0.9738073348999023,0.6296631939489082
686,0.3597991168498993,0.8152264402264402,0.902043342590332,0.6283799533799534
687,0.352376252412796,0.8022806558520843,0.8017152547836304,0.5446886446886448
688,0.3182814419269562,0.8349878296306869,0.9194971323013306,0.523369487655202
689,0.3133105933666229,0.8391620284477428,0.9275513887405396,0.6140538033395176
690,0.3001110851764679,0.8553280053280053,0.9574123024940491,0.626416440702155
691,0.33354899287223816,0.8598330241187384,0.8826864361763,0.6129632272489415
692,0.31269270181655884,0.8011072261072261,0.8809238076210022,0.5461134103991248
693,0.27965396642684937,0.8582199546485262,1.0472867488861084,0.5222789115646258
694,0.3386377990245819,0.8457500832500833,0.8271604180335999,0.6497002997002996
695,0.41398778557777405,0.8124538160252446,0.7778588533401489,0.577290170147313
696,0.3843052089214325,0.8091658341658341,0.7642115950584412,0.5881309167023454
697,0.3429684042930603,0.83287506144649,0.7521933913230896,0.6351826744683888
698,0.3453604280948639,0.7814937047079905,0.7756183743476868,0.5413182056039199
699,0.33138397336006165,0.7937419723134009,0.8458898663520813,0.5475714761429048
700,0.30348706245422363,0.8268648018648018,0.8881678581237793,0.5296298939156082
701,0.27564379572868347,0.8522977022977022,0.980322003364563,0.5463298606155749
702,0.2767154276371002,0.8522977022977022,0.9791315197944641,0.6296631939489082
703,0.2763940095901489,0.8627551020408164,0.954801082611084,0.558451072736787
704,0.2622973620891571,0.8687074829931973,0.9992955923080444,0.558451072736787
705,0.26021188497543335,0.8758503401360545,1.0205755233764648,0.5619142761999905
706,0.2656479477882385,0.8669758812615955,0.9115086197853088,0.5187074829931972
707,0.30281588435173035,0.8786059178916322,0.9605820775032043,0.6014699586128158
708,0.26455238461494446,0.8729282622139766,0.9610695242881775,0.5619142761999905
709,0.2804471254348755,0.8725357975357976,0.9022505879402161,0.648461062746777
710,0.3134760856628418,0.8021585557299843,0.909332275390625,0.6246515389372532
711,0.28239506483078003,0.8351767280338709,0.8684458136558533,0.5538318824033109
712,0.2634909749031067,0.8769928484214199,0.9931617975234985,0.5296049188906332
713,0.28208085894584656,0.837780869923727,0.8090744018554688,0.7064102564102565
714,0.3758895695209503,0.7882783882783883,0.7821239829063416,0.6477867370724514
715,0.3466799259185791,0.8549046191903334,0.797719419002533,0.6674515960230246
716,0.30677351355552673,0.8055446537589395,0.7890180945396423,0.6499012891870036
717,0.3193073570728302,0.858367822653537,0.8517929911613464,0.6129632272489415
718,0.2809000611305237,0.8604645354645354,0.9303332567214966,0.6348116169544741
719,0.2527511715888977,0.877668759811617,0.9655603766441345,0.6137291280148424
720,0.2477368414402008,0.8886708529565672,1.0192618370056152,0.5500844393701537
721,0.23932227492332458,0.9022762951334381,1.0192793607711792,0.6260917653774797
722,0.23721106350421906,0.9022762951334381,1.0060710906982422,0.6129632272489415
723,0.22221238911151886,0.907312925170068,1.0070348978042603,0.6369892012749157
724,0.22053514420986176,0.907312925170068,1.0180574655532837,0.624468388754103
725,0.21584956347942352,0.907312925170068,1.032777190208435,0.6179748822605965
726,0.23249253630638123,0.8934018362589792,0.9533116221427917,0.6173255316112459
727,0.2383979856967926,0.8866300366300367,1.0025066137313843,0.6445114409400122
728,0.3536044657230377,0.8950811093668236,0.8172253966331482,0.6458791208791208
729,0.3470306992530823,0.8085850657279228,0.6755141615867615,0.6687074829931973
730,0.3735494911670685,0.8655303030303029,0.6291362047195435,0.6735847485847486
731,0.4653724730014801,0.7005094112236969,0.7839967608451843,0.5474739546168118
732,0.4923340678215027,0.6889190174904459,0.8409568667411804,0.6450414664700378
733,0.6852554082870483,0.6224206349206349,0.624790608882904,0.6229282622139766
734,0.49790477752685547,0.7245552066980638,0.6952845454216003,0.5239950525664812
735,0.4666515290737152,0.7410125588697015,0.6336076855659485,0.7300445586159873
736,0.4870767891407013,0.7293290043290043,0.6291751861572266,0.7214535464535465
737,0.4739556908607483,0.7295121545121545,0.6346092224121094,0.5690301761730333
738,0.4610165059566498,0.7197005375576805,0.6279115676879883,0.5799295942153085
739,0.45467308163642883,0.7206043956043955,0.6257433295249939,0.6801115551115551
740,0.45605772733688354,0.7278638028638028,0.6256623864173889,0.6797464440321583
741,0.45210450887680054,0.7194222444222442,0.612970769405365,0.608426097711812
742,0.44659605622291565,0.7093489843489842,0.6103470921516418,0.6917594310451454
743,0.44432204961776733,0.7278638028638028,0.6083914637565613,0.702365491651206
744,0.44194963574409485,0.736088911088911,0.6069828271865845,0.702365491651206
745,0.43757539987564087,0.7278638028638028,0.6065884828567505,0.702365491651206
746,0.4334855377674103,0.7170412920412919,0.607828676700592,0.7377963306534736
747,0.4299643337726593,0.7170412920412919,0.6108304858207703,0.727190270047413
748,0.4258062541484833,0.7170412920412919,0.6154154539108276,0.7416924345495775
749,0.42127344012260437,0.7170412920412919,0.621170163154602,0.7458049886621315
750,0.41678979992866516,0.7348417455560313,0.627956748008728,0.7216295609152753
751,0.41174623370170593,0.7348417455560313,0.6367444396018982,0.6974275724275724
752,0.40609607100486755,0.7138339834768406,0.6487889885902405,0.6742547135404278
753,0.4025968015193939,0.7243215118215117,0.6596527099609375,0.661896436896437
754,0.40064525604248047,0.7243215118215117,0.6615603566169739,0.661896436896437
755,0.3954835534095764,0.7173770673770673,0.6612967848777771,0.6783799533799534
756,0.3878706395626068,0.7109668109668108,0.648756206035614,0.660605267748125
757,0.3783109784126282,0.806204906204906,0.6789876222610474,0.6934327577184719
758,0.3698296546936035,0.8300144300144299,0.6911229491233826,0.6806122448979591
759,0.36188751459121704,0.8359668109668108,0.6718276739120483,0.7044217687074829
760,0.3888132870197296,0.8472222222222222,0.7065607905387878,0.6536126571840858
761,0.3757863938808441,0.7913832199546483,0.6931784749031067,0.6907683586255013
762,0.36011815071105957,0.7518751090179663,0.7103024125099182,0.6791470434327577
763,0.3487367630004883,0.8590179661608234,0.7123182415962219,0.6842490842490843
764,0.34750625491142273,0.8336992372706656,0.7214298844337463,0.677729809872667
765,0.34813469648361206,0.8401094936809221,0.7287182807922363,0.6842490842490843
766,0.35749194025993347,0.8203816025244598,0.7462519407272339,0.697985347985348
767,0.42682984471321106,0.7310064935064935,0.7536407113075256,0.7040388183245325
768,0.4534182846546173,0.7371616478759335,0.7805032730102539,0.4888548951048951
769,0.47313442826271057,0.7994838494838493,0.6723628044128418,0.6538473431330575
770,0.44144681096076965,0.7693552479266765,0.6491218209266663,0.7013090084518655
771,0.4313834309577942,0.7082845725702869,0.6315864324569702,0.5900944293801437
772,0.41063737869262695,0.7491885099027957,0.6321521997451782,0.5900944293801437
773,0.3972826600074768,0.7151344687058973,0.6378174424171448,0.7087920016491445
774,0.3939693868160248,0.7348417455560313,0.6439881324768066,0.6937487116058544
775,0.38249635696411133,0.744932448503877,0.6544174551963806,0.6937487116058544
776,0.36501821875572205,0.7255643166357452,0.6692261695861816,0.6745928674500103
777,0.3518673777580261,0.8363095238095237,0.6839472651481628,0.676324469181612
778,0.3569152057170868,0.8012445887445886,0.6902982592582703,0.6891449820021248
779,0.3510909378528595,0.7291666666666666,0.695920467376709,0.676324469181612
780,0.34009647369384766,0.8201530612244897,0.7032089233398438,0.6891449820021248
781,0.33663469552993774,0.8265633176347462,0.7087649703025818,0.6942470228184513
782,0.33603519201278687,0.8265633176347462,0.7147096991539001,0.6999829535543821
783,0.33233001828193665,0.8352084423512995,0.7214304208755493,0.6999829535543821
784,0.3292241096496582,0.8352084423512995,0.7263935804367065,0.6883616383616383
785,0.3280636966228485,0.8352084423512995,0.732001781463623,0.6883616383616383
786,0.32624730467796326,0.8352084423512995,0.7366043329238892,0.6976689976689976
787,0.3238990604877472,0.8352084423512995,0.7412636876106262,0.6976689976689976
788,0.3221241533756256,0.8352084423512995,0.7456032633781433,0.6976689976689976
789,0.3204896152019501,0.8352084423512995,0.7499622106552124,0.6976689976689976
790,0.31862330436706543,0.8352084423512995,0.7539986968040466,0.6976689976689976
791,0.3167920708656311,0.8352084423512995,0.7582240700721741,0.6976689976689976
792,0.31501081585884094,0.8352084423512995,0.7623302340507507,0.6976689976689976
793,0.3131691813468933,0.8590179661608234,0.7664969563484192,0.6976689976689976
794,0.31131502985954285,0.8590179661608234,0.7706804275512695,0.6976689976689976
795,0.3093957304954529,0.8590179661608234,0.7750120162963867,0.6976689976689976
796,0.3074156641960144,0.8590179661608234,0.7795146107673645,0.6976689976689976
797,0.3053722381591797,0.8590179661608234,0.7842798829078674,0.6976689976689976
798,0.3032035231590271,0.8590179661608234,0.7894099354743958,0.6976689976689976
799,0.3008670508861542,0.8590179661608234,0.7950204610824585,0.6821012321012321
800,0.29832783341407776,0.8759680795395081,0.8011369109153748,0.6821012321012321
801,0.29553723335266113,0.8861721611721611,0.8073388338088989,0.6821012321012321
802,0.29259753227233887,0.8956959706959706,0.8125006556510925,0.6821012321012321
803,0.2896670997142792,0.8956959706959706,0.8162540793418884,0.6821012321012321
804,0.28645044565200806,0.8956959706959706,0.8203925490379333,0.6821012321012321
805,0.2826692461967468,0.8956959706959706,0.825384795665741,0.6821012321012321
806,0.27868571877479553,0.8861721611721611,0.8228249549865723,0.6821012321012321
807,0.27577170729637146,0.8861721611721611,0.8208021521568298,0.6937225472939758
808,0.2742132842540741,0.8956959706959706,0.8464259505271912,0.6672989708703995
809,0.2980760931968689,0.8511072261072261,1.1024582386016846,0.6129656058227486
810,0.7036274671554565,0.6571428571428571,0.8020454049110413,0.4452806122448979
811,0.5531732439994812,0.6165620094191523,0.6891787648200989,0.4978021978021978
812,0.5748826861381531,0.6755809666523953,0.6751492619514465,0.5231292517006804
813,0.5552903413772583,0.7979591836734693,0.6716496348381042,0.4453656462585034
814,0.5327534675598145,0.7235544217687074,0.661046028137207,0.4475045787545787
815,0.5126979351043701,0.66604526425955,0.6445079445838928,0.5101422387136673
816,0.5065768361091614,0.7546953046953048,0.641385555267334,0.4813947956805099
817,0.49416112899780273,0.752078873507445,0.6435309052467346,0.4992475778190064
818,0.481388121843338,0.752078873507445,0.6422416567802429,0.5514977086405658
819,0.475028932094574,0.7285262356690928,0.6411533951759338,0.5495817674389103
820,0.47202834486961365,0.7450632700632701,0.641845703125,0.5495817674389103
821,0.46779850125312805,0.7450632700632701,0.6422795653343201,0.5495817674389103
822,0.4646098017692566,0.7531131566845853,0.6415294408798218,0.5890042497185356
823,0.4631897509098053,0.7450632700632701,0.640553891658783,0.5890042497185356
824,0.46181270480155945,0.7450632700632701,0.6392201781272888,0.5890042497185356
825,0.4602694511413574,0.7450632700632701,0.6372509598731995,0.5890042497185356
826,0.4591743052005768,0.7450632700632701,0.6349655985832214,0.5890042497185356
827,0.45830774307250977,0.7450632700632701,0.6327030062675476,0.5890042497185356
828,0.45740577578544617,0.7450632700632701,0.6305920481681824,0.5890042497185356
829,0.45662277936935425,0.7450632700632701,0.628728449344635,0.5890042497185356
830,0.45598477125167847,0.7450632700632701,0.6271554827690125,0.5890042497185356
831,0.4553578794002533,0.7450632700632701,0.6258125305175781,0.5890042497185356
832,0.4547257125377655,0.7450632700632701,0.6246107220649719,0.5890042497185356
833,0.45412611961364746,0.7450632700632701,0.6234850287437439,0.5890042497185356
834,0.4535391628742218,0.7450632700632701,0.6223875284194946,0.5890042497185356
835,0.45294472575187683,0.7450632700632701,0.6212882399559021,0.5890042497185356
836,0.4523544907569885,0.7450632700632701,0.6201790571212769,0.5890042497185356
837,0.4517720639705658,0.7450632700632701,0.6190635561943054,0.5890042497185356
838,0.4511882960796356,0.7450632700632701,0.6179476380348206,0.5890042497185356
839,0.45059987902641296,0.7450632700632701,0.61683589220047,0.5890042497185356
840,0.45000702142715454,0.7450632700632701,0.6157299876213074,0.5890042497185356
841,0.44940510392189026,0.7386530136530135,0.6146286129951477,0.5890042497185356
842,0.44878825545310974,0.7386530136530135,0.6135287284851074,0.5890042497185356
843,0.4481521546840668,0.7386530136530135,0.6124277114868164,0.5819180819180819
844,0.44749146699905396,0.7386530136530135,0.6113244295120239,0.6061200704057847
845,0.44679874181747437,0.7386530136530135,0.6102199554443359,0.6061200704057847
846,0.44606509804725647,0.7499084249084248,0.6091190576553345,0.6061200704057847
847,0.4452804625034332,0.768223443223443,0.6080308556556702,0.6061200704057847
848,0.4444323182106018,0.768223443223443,0.6069698333740234,0.6061200704057847
849,0.44350582361221313,0.7732600732600732,0.6059565544128418,0.689453403739118
850,0.44248443841934204,0.7732600732600732,0.6050190329551697,0.689453403739118
851,0.4413500428199768,0.7732600732600732,0.6041925549507141,0.689453403739118
852,0.44008466601371765,0.7540293040293039,0.6035177111625671,0.689453403739118
853,0.43867212533950806,0.7540293040293039,0.6030375361442566,0.7059369202226344
854,0.43709999322891235,0.7706959706959706,0.6027900576591492,0.7059369202226344
855,0.4353604018688202,0.7706959706959706,0.6028022766113281,0.7059369202226344
856,0.43344682455062866,0.7706959706959706,0.6030864119529724,0.6942486085343228
857,0.43134650588035583,0.7706959706959706,0.6036443710327148,0.6942486085343228
858,0.4290304183959961,0.7613989185417755,0.6044858694076538,0.6942486085343228
859,0.4264433681964874,0.7613989185417755,0.605658233165741,0.6942486085343228
860,0.423503577709198,0.7430839002267573,0.6072869896888733,0.6942486085343228
861,0.4201168417930603,0.7430839002267573,0.6096144914627075,0.6777650920508063
862,0.41620922088623047,0.7430839002267573,0.6130109429359436,0.7013993942565371
863,0.4117685854434967,0.7333333333333333,0.6179033517837524,0.68938640724355
864,0.4068589508533478,0.7333333333333333,0.6245818734169006,0.68938640724355
865,0.4015612006187439,0.7333333333333333,0.6329488754272461,0.7058699237270666
866,0.395881712436676,0.7333333333333333,0.6424127817153931,0.7296794475365905
867,0.3897366523742676,0.7430839002267573,0.6521640419960022,0.7384456813028243
868,0.38299593329429626,0.7091836734693876,0.6620367169380188,0.7234023912595342
869,0.3754138946533203,0.7250893947322518,0.6730771660804749,0.7186904365475794
870,0.36807993054389954,0.8010531135531135,0.6844882965087891,0.6984523413094842
871,0.36473390460014343,0.7971673168101738,0.6921643614768982,0.6856318284889713
872,0.3607141077518463,0.7971673168101738,0.6940017938613892,0.6891449820021248
873,0.3531000018119812,0.7971673168101738,0.7013005614280701,0.6891449820021248
874,0.34505027532577515,0.8064643689643688,0.7113173604011536,0.676324469181612
875,0.3421163856983185,0.8058124415267273,0.7192450165748596,0.6891449820021248
876,0.33360958099365234,0.8263649049363336,0.7297608256340027,0.6942470228184513
877,0.33020472526550293,0.8263649049363336,0.7383624911308289,0.6891449820021248
878,0.32408663630485535,0.8263649049363336,0.7345673441886902,0.7004828504828504
879,0.3204381763935089,0.8210618746333033,0.7416438460350037,0.6953808096665239
880,0.31616321206092834,0.8210618746333033,0.7505620718002319,0.6953808096665239
881,0.3124575614929199,0.8210618746333033,0.7599202394485474,0.6953808096665239
882,0.3089327812194824,0.8323172858887145,0.7710879445075989,0.6953808096665239
883,0.30490344762802124,0.8442220477934763,0.7820463180541992,0.6953808096665239
884,0.30102041363716125,0.8442220477934763,0.7879762053489685,0.7011167404024546
885,0.29694923758506775,0.8442220477934763,0.7923361659049988,0.7011167404024546
886,0.2924683094024658,0.8442220477934763,0.7955261468887329,0.7011167404024546
887,0.28788653016090393,0.8442220477934763,0.7976824641227722,0.7011167404024546
888,0.2828579246997833,0.8442220477934763,0.8002809882164001,0.7011167404024546
889,0.2770860195159912,0.8442220477934763,0.8045157790184021,0.7128050520907664
890,0.27067989110946655,0.8442220477934763,0.8113094568252563,0.7218959611816754
891,0.263728529214859,0.8442220477934763,0.8200945258140564,0.7218959611816754
892,0.25669169425964355,0.8442220477934763,0.8297553658485413,0.7218959611816754
893,0.2501193583011627,0.8690733869305297,0.8643893003463745,0.7218959611816754
894,0.25868579745292664,0.8489435168006596,0.8788532018661499,0.7090754483611627
895,0.2590343654155731,0.8370173477316334,0.8221185803413391,0.6996531246531247
896,0.273237407207489,0.8408936301793445,0.9335266351699829,0.7394284287141428
897,0.24404387176036835,0.8879295307866736,0.9101571440696716,0.7394284287141428
898,0.24508702754974365,0.8728741496598641,0.8741000294685364,0.6614564007421151
899,0.2837405204772949,0.8249167499167498,0.9092004895210266,0.7394284287141428
900,0.41302815079689026,0.7705930973788117,0.7224172949790955,0.684597941740799
901,0.4124428927898407,0.7798134405277263,0.6633515357971191,0.6045482295482295
902,0.3688279688358307,0.7741016919588348,0.7001535296440125,0.7094278737135878
903,0.3759368062019348,0.7413265306122448,0.678162157535553,0.5842578056863771
904,0.4121602475643158,0.7510204081632653,0.6636709570884705,0.6283858998144712
905,0.39386603236198425,0.7655923441637728,0.6680329442024231,0.6402288188002474
906,0.3664078116416931,0.7920325706039991,0.6770144701004028,0.6933982683982683
907,0.29726287722587585,0.8216374894946323,0.7640570402145386,0.7128050520907664
908,0.3273323178291321,0.7952460238174524,1.0332528352737427,0.5889542996685854
909,0.49591371417045593,0.821432139289282,0.7842117547988892,0.5795371295371295
910,0.45390230417251587,0.738999690785405,0.7827472686767578,0.713849642421071
911,0.5547724962234497,0.7089105339105338,1.0596424341201782,0.6788961038961039
912,1.3179633617401123,0.5843144950287807,0.8925946950912476,0.524025974025974
913,0.8569208979606628,0.500297619047619,1.0462019443511963,0.460671768707483
914,0.8650957345962524,0.4083333333333333,0.7796685099601746,0.38541666666666663
915,0.6234890818595886,0.5619526307026307,0.7230747938156128,0.6336631622345907
916,0.6255070567131042,0.6925736961451247,0.7045168280601501,0.6587769373483658
917,0.569076418876648,0.5536728152799582,0.7379698157310486,0.42121598639455776
918,0.5481563806533813,0.5633503401360543,0.7137422561645508,0.6377551020408163
919,0.5325246453285217,0.6434054041196899,0.7035327553749084,0.6935897435897436
920,0.5337511897087097,0.6666083916083915,0.7044274210929871,0.7122972265829409
921,0.5231856107711792,0.6666523952238236,0.7017086148262024,0.666156462585034
922,0.5114701390266418,0.6506267541981828,0.7058132290840149,0.7095499738356882
923,0.501796543598175,0.6666083916083915,0.7064313888549805,0.6753912753912754
924,0.48745229840278625,0.6632534132534131,0.7106049656867981,0.647657104799962
925,0.46240684390068054,0.745964749536178,0.7100616097450256,0.6656843156843157
926,0.4482874870300293,0.7581668331668332,0.6999120712280273,0.6656843156843157
927,0.4318092167377472,0.7575174825174825,0.6907073259353638,0.6434272077129221
928,0.3993941843509674,0.773761555904413,0.7496104836463928,0.6438936063936064
929,0.3887811601161957,0.8354645354645355,0.8051170110702515,0.651107226107226
930,0.3838757574558258,0.784858792001649,0.6843096017837524,0.6398197041054184
931,0.3399028778076172,0.7782967032967033,0.7181233763694763,0.627482041767756
932,0.32244110107421875,0.8663919413919414,0.7064332962036133,0.6253008895866039
933,0.30951687693595886,0.8663832199546484,0.7247575521469116,0.6129382522239666
934,0.3043968677520752,0.8747165532879818,0.7642884850502014,0.6367477760334904
935,0.3150178790092468,0.837497423211709,0.757331907749176,0.5470541363398506
936,0.2740377187728882,0.8599337170765743,0.7805793881416321,0.6253008895866039
937,0.2604607045650482,0.8851561137275422,0.8117522597312927,0.6318768533054248
938,0.25457102060317993,0.9011904761904762,0.8243183493614197,0.60992340992341
939,0.28364473581314087,0.8555272108843538,0.7788717150688171,0.5470541363398506
940,0.30231383442878723,0.7868044653758941,0.7177392840385437,0.6319858712715856
941,0.2937343418598175,0.8507627293341579,0.8089132905006409,0.6265821480107194
942,0.43143144249916077,0.7072510822510824,0.6748570799827576,0.7147848183562469
943,0.38620495796203613,0.761804465375894,0.6035215258598328,0.711339850625565
944,0.39325374364852905,0.7046116581830868,0.5485071539878845,0.6875870161584449
945,0.32344070076942444,0.8184894470608757,0.5405020117759705,0.7040705326419613
946,0.3666823208332062,0.7640341801056086,0.56246018409729,0.7040705326419613
947,0.3429076075553894,0.8401927437641722,0.5769463181495667,0.7353218210361067
948,0.3935844302177429,0.785034013605442,0.6289366483688354,0.6550865800865802
949,0.3309686779975891,0.8467199467199468,0.6596885919570923,0.6455040990755277
950,0.31502869725227356,0.8786172161172161,0.6585010290145874,0.6510901796616082
951,0.2846843898296356,0.8741823652537937,0.6736912131309509,0.6156593406593407
952,0.2530135214328766,0.8915816326530611,0.6999207735061646,0.6471861471861472
953,0.24519531428813934,0.8827380952380952,0.7094697952270508,0.6471861471861472
954,0.2342015951871872,0.8796768707482993,0.7034941911697388,0.6321428571428571
955,0.22937574982643127,0.8796768707482993,0.7075242400169373,0.6595487845487845
956,0.2220955193042755,0.8892006802721089,0.7102580070495605,0.6595487845487845
957,0.21663378179073334,0.8892006802721089,0.7130417823791504,0.6445054945054945
958,0.21122074127197266,0.9058673469387756,0.7254790663719177,0.6321428571428571
959,0.2082212120294571,0.9058673469387756,0.7238918542861938,0.6321428571428571
960,0.203902468085289,0.9058673469387756,0.7193918824195862,0.6321428571428571
961,0.2003183364868164,0.9160714285714286,0.7168087959289551,0.6510814582243153
962,0.19730634987354279,0.9095779220779221,0.7144502401351929,0.6510814582243153
963,0.1941666305065155,0.9095779220779221,0.7162688970565796,0.6510814582243153
964,0.19175878167152405,0.921482683982684,0.7230260968208313,0.6510814582243153
965,0.18926258385181427,0.921482683982684,0.7253392934799194,0.6510814582243153
966,0.18690206110477448,0.921482683982684,0.7281917333602905,0.6510814582243153
967,0.18470481038093567,0.921482683982684,0.7307983040809631,0.6510814582243153
968,0.18246057629585266,0.921482683982684,0.7337197661399841,0.6510814582243153
969,0.18032877147197723,0.921482683982684,0.7364353537559509,0.6510814582243153
970,0.17820481956005096,0.9351190476190476,0.7391193509101868,0.6661247482676054
971,0.17606891691684723,0.9351190476190476,0.7420113682746887,0.6661247482676054
972,0.1739543229341507,0.9351190476190476,0.744833767414093,0.6661247482676054
973,0.17181561887264252,0.9286255411255411,0.7475940585136414,0.6661247482676054
974,0.16966512799263,0.9405303030303029,0.7502545714378357,0.6661247482676054
975,0.16749869287014008,0.9494588744588743,0.7526832818984985,0.6752156573585145
976,0.16529934108257294,0.9494588744588743,0.7548395395278931,0.6685057006485577
977,0.16307993233203888,0.9494588744588743,0.7565736770629883,0.6685057006485577
978,0.1608392298221588,0.9494588744588743,0.7578065991401672,0.6685057006485577
979,0.1585758477449417,0.9494588744588743,0.7585408091545105,0.6685057006485577
980,0.15629331767559052,0.9494588744588743,0.758810818195343,0.6685057006485577
981,0.15399718284606934,0.9494588744588743,0.7586950063705444,0.6923152244580815
982,0.1516902595758438,0.9494588744588743,0.7584719657897949,0.6923152244580815
983,0.1493104249238968,0.9494588744588743,0.7582808136940002,0.6923152244580815
984,0.14692161977291107,0.9494588744588743,0.7580933570861816,0.7046528867957439
985,0.1444571316242218,0.9494588744588743,0.7580443024635315,0.7046528867957439
986,0.14195172488689423,0.9494588744588743,0.7577810287475586,0.698076923076923
987,0.139409139752388,0.9494588744588743,0.7560732960700989,0.698076923076923
988,0.13688115775585175,0.9494588744588743,0.753036618232727,0.698076923076923
989,0.1342148333787918,0.9494588744588743,0.750460684299469,0.698076923076923
990,0.1318989098072052,0.9494588744588743,0.7497351765632629,0.6950898308041166
991,0.127616286277771,0.9494588744588743,0.7383273839950562,0.7079103436246293
992,0.12263934314250946,0.9494588744588743,0.74565190076828,0.7498517355660212
993,0.12197034806013107,0.9494588744588743,0.7633140683174133,0.7124454910169196
994,0.11911741644144058,0.9494588744588743,0.7822531461715698,0.6841008198151055
995,0.11487872898578644,0.9494588744588743,0.7655357718467712,0.7325047967905112
996,0.12865905463695526,0.9423160173160172,0.8179183602333069,0.6956959706959707
997,0.19088324904441833,0.9351190476190476,0.6919444799423218,0.7173409923409924
998,0.25830402970314026,0.8510745207173779,0.7426281571388245,0.6998505462791177
999,0.18134793639183044,0.8994047619047619,0.8400384783744812,0.6478021978021979
