,loss,recall,val_loss,val_recall
0,0.4731498956680298,0.7900000214576721,1.1501185894012451,0.6399999856948853
1,0.3616548776626587,0.8500000238418579,1.3615334033966064,0.6399999856948853
2,0.2332659512758255,0.8899999856948853,0.6105697154998779,0.6600000262260437
3,0.21418693661689758,0.8899999856948853,0.4674832224845886,0.75
4,0.13983622193336487,0.949999988079071,0.3557299077510834,0.8600000143051147
5,0.08823230862617493,0.9700000286102295,0.7791488170623779,0.5299999713897705
6,0.12229650467634201,0.949999988079071,0.8917895555496216,0.49000000953674316
7,0.12718024849891663,0.9700000286102295,1.4361871480941772,0.3799999952316284
8,0.10537238419055939,0.9599999785423279,2.058403253555298,0.36000001430511475
9,0.12782789766788483,0.9599999785423279,1.9863526821136475,0.3700000047683716
10,0.06557715684175491,0.9800000190734863,1.5403190851211548,0.4300000071525574
11,0.05511706694960594,0.9800000190734863,1.8651700019836426,0.3799999952316284
12,0.01778857596218586,1.0,2.2127175331115723,0.3799999952316284
13,0.06181103736162186,0.9800000190734863,4.471978664398193,0.36000001430511475
14,0.08913201093673706,0.9800000190734863,5.318575859069824,0.36000001430511475
15,0.04550466686487198,0.9900000095367432,3.370438814163208,0.3700000047683716
16,0.05409731715917587,0.9900000095367432,2.9716033935546875,0.4300000071525574
17,0.019286923110485077,1.0,6.392186164855957,0.36000001430511475
18,0.022923648357391357,0.9900000095367432,4.144626617431641,0.36000001430511475
19,0.15519897639751434,0.949999988079071,9.232494354248047,0.36000001430511475
20,0.2114623486995697,0.9399999976158142,1.7818756103515625,0.699999988079071
21,0.061649397015571594,0.9800000190734863,0.3527495861053467,0.8899999856948853
22,0.08748302608728409,0.9599999785423279,0.4885699152946472,0.8199999928474426
23,0.06530383974313736,0.9700000286102295,0.4301120340824127,0.8600000143051147
24,0.046646080911159515,0.9900000095367432,0.3270750045776367,0.9200000166893005
25,0.09337588399648666,0.9700000286102295,0.5697149634361267,0.8199999928474426
26,0.07109479606151581,0.9800000190734863,0.5000227689743042,0.8600000143051147
27,0.08021514862775803,0.9700000286102295,0.38861456513404846,0.8600000143051147
28,0.026301879435777664,0.9900000095367432,0.49988192319869995,0.8399999737739563
29,0.07328085601329803,0.9700000286102295,0.9812450408935547,0.6600000262260437
30,0.06457778066396713,0.9700000286102295,0.30836033821105957,0.8999999761581421
31,0.07441398501396179,0.9700000286102295,0.42289531230926514,0.8799999952316284
32,0.08464589715003967,0.949999988079071,1.107839584350586,0.7400000095367432
33,0.12124133110046387,0.9700000286102295,0.7273951172828674,0.8100000023841858
34,0.06552620232105255,0.9599999785423279,1.237328290939331,0.7200000286102295
35,0.036670103669166565,0.9900000095367432,1.7157171964645386,0.7400000095367432
36,0.016085011884570122,1.0,0.5270503163337708,0.8500000238418579
37,0.006634133402258158,1.0,0.287197083234787,0.8999999761581421
38,0.0038758632726967335,1.0,0.26091763377189636,0.9300000071525574
39,0.0027235462330281734,1.0,0.2695803940296173,0.9200000166893005
40,0.0022959664929658175,1.0,0.27992871403694153,0.9300000071525574
41,0.006561676971614361,1.0,0.2883322536945343,0.949999988079071
42,0.0022486234083771706,1.0,0.3181372880935669,0.9200000166893005
43,0.001583171309903264,1.0,0.34015411138534546,0.8999999761581421
44,0.0011916380608454347,1.0,0.3502815365791321,0.8999999761581421
45,0.01180664449930191,1.0,0.8640804886817932,0.7200000286102295
46,0.009706586599349976,1.0,0.752047061920166,0.8100000023841858
47,0.002727012149989605,1.0,0.5241460204124451,0.8700000047683716
48,0.0020461357198655605,1.0,0.47224196791648865,0.8700000047683716
49,0.001794839627109468,1.0,0.4514424204826355,0.8700000047683716
50,0.002661587204784155,1.0,0.44877976179122925,0.8600000143051147
51,0.0013348283246159554,1.0,0.425199419260025,0.8799999952316284
52,0.002882258500903845,1.0,0.37525010108947754,0.8999999761581421
53,0.0023561955895274878,1.0,0.36632293462753296,0.9100000262260437
54,0.0029316991567611694,1.0,0.3996041417121887,0.8799999952316284
55,0.00044123895349912345,1.0,0.40341436862945557,0.8799999952316284
56,0.0029662877786904573,1.0,0.3465346395969391,0.9100000262260437
57,0.0008575197425670922,1.0,0.32590779662132263,0.9100000262260437
58,0.00036557414568960667,1.0,0.32536566257476807,0.9300000071525574
59,0.0006710741436108947,1.0,0.3218698799610138,0.9200000166893005
60,0.00045965134631842375,1.0,0.31950902938842773,0.9200000166893005
61,0.0005185045883990824,1.0,0.31952372193336487,0.9300000071525574
62,0.001245159306563437,1.0,0.3262048363685608,0.9300000071525574
63,0.0005471236072480679,1.0,0.3456539213657379,0.9200000166893005
64,0.000884975481312722,1.0,0.34879234433174133,0.9200000166893005
65,0.0005472469492815435,1.0,0.3463038504123688,0.9300000071525574
66,0.001002711709588766,1.0,0.3471911549568176,0.9399999976158142
67,0.0014939889078959823,1.0,0.3437648117542267,0.9399999976158142
68,0.0017070715548470616,1.0,0.3372311294078827,0.9300000071525574
69,0.0029557738453149796,1.0,0.3204641342163086,0.9399999976158142
70,0.0018345885910093784,1.0,0.34381619095802307,0.9300000071525574
71,0.0017124394653365016,1.0,0.3412754535675049,0.9300000071525574
72,0.00017058044613804668,1.0,0.3731609582901001,0.9300000071525574
73,0.00041701330337673426,1.0,0.38588717579841614,0.9300000071525574
74,0.000400310818804428,1.0,0.3899697959423065,0.9300000071525574
75,0.00033745518885552883,1.0,0.3922095000743866,0.9300000071525574
76,0.0008676967700012028,1.0,0.3805312216281891,0.9300000071525574
77,0.00046680663945153356,1.0,0.3678034245967865,0.9300000071525574
78,0.0005128908669576049,1.0,0.36505547165870667,0.9300000071525574
79,0.0006055384292267263,1.0,0.36866751313209534,0.9300000071525574
80,0.0002260085311718285,1.0,0.36878105998039246,0.9300000071525574
81,0.0003109575773123652,1.0,0.3691038489341736,0.9300000071525574
82,0.0002587976632639766,1.0,0.3678511679172516,0.9300000071525574
83,0.0008158998680301011,1.0,0.36992698907852173,0.9300000071525574
84,0.00017184801981784403,1.0,0.3739055395126343,0.9300000071525574
85,0.00030014532967470586,1.0,0.3757118284702301,0.9300000071525574
86,0.00028616830240935087,1.0,0.3697398900985718,0.9300000071525574
87,0.0002561660949140787,1.0,0.36908408999443054,0.9300000071525574
88,0.00010905152885243297,1.0,0.37069717049598694,0.9300000071525574
89,0.0008312421850860119,1.0,0.3747367560863495,0.9300000071525574
90,8.263279596576467e-05,1.0,0.37707534432411194,0.9300000071525574
91,0.0001763886830303818,1.0,0.37857896089553833,0.9300000071525574
92,0.0008621254819445312,1.0,0.38115882873535156,0.9300000071525574
93,0.0007904933881945908,1.0,0.37550121545791626,0.9300000071525574
94,0.00041212834184989333,1.0,0.3779599666595459,0.9300000071525574
95,0.0012850466882809997,1.0,0.3515383005142212,0.9300000071525574
96,0.00046641886001452804,1.0,0.35103699564933777,0.9200000166893005
97,0.0007664018194191158,1.0,0.3692563772201538,0.9300000071525574
98,0.00020306845544837415,1.0,0.3851640224456787,0.9200000166893005
99,0.00018973890109919012,1.0,0.38888368010520935,0.9200000166893005
100,0.0005732538411393762,1.0,0.3920621871948242,0.9200000166893005
101,0.0002784067764878273,1.0,0.392348974943161,0.9200000166893005
102,0.0003371720667928457,1.0,0.3910163938999176,0.9300000071525574
103,0.0005514686345122755,1.0,0.40374770760536194,0.9300000071525574
104,3.0628889362560585e-05,1.0,0.4124295711517334,0.9300000071525574
105,9.946813224814832e-05,1.0,0.4149704873561859,0.9300000071525574
106,0.00015569751849398017,1.0,0.4184735119342804,0.9300000071525574
107,0.00031266704900190234,1.0,0.4197414517402649,0.9300000071525574
108,9.505965863354504e-05,1.0,0.4209936261177063,0.9300000071525574
109,9.936765854945406e-05,1.0,0.4195293188095093,0.9300000071525574
110,0.00020554271759465337,1.0,0.41910025477409363,0.9300000071525574
111,0.00013779912842437625,1.0,0.41875407099723816,0.9300000071525574
112,0.0002282829227624461,1.0,0.41732144355773926,0.9300000071525574
113,0.00016227623564191163,1.0,0.41742539405822754,0.9300000071525574
114,0.0006539369351230562,1.0,0.4240102469921112,0.9300000071525574
115,0.00011694530257955194,1.0,0.42886897921562195,0.9200000166893005
116,6.755316280759871e-05,1.0,0.4307449460029602,0.9200000166893005
117,0.0009322103578597307,1.0,0.40079841017723083,0.9300000071525574
118,2.9384109438979067e-05,1.0,0.38768845796585083,0.9399999976158142
119,5.1551094657042995e-05,1.0,0.3911193013191223,0.949999988079071
120,0.001565971178933978,1.0,0.451476126909256,0.9399999976158142
121,0.001324135111644864,1.0,0.4658297300338745,0.9300000071525574
122,0.029920397326350212,0.9900000095367432,0.33400094509124756,0.9200000166893005
123,0.3837678134441376,0.9200000166893005,5.441591262817383,0.6399999856948853
124,0.179793581366539,0.9300000071525574,62.23662185668945,0.6399999856948853
125,0.13914607465267181,0.9399999976158142,76.1812515258789,0.6399999856948853
126,0.21183237433433533,0.8999999761581421,91.75140380859375,0.6399999856948853
127,0.223348468542099,0.9300000071525574,61.15304183959961,0.6399999856948853
128,0.1918194442987442,0.8999999761581421,35.64365768432617,0.6399999856948853
129,0.08545929193496704,0.9800000190734863,25.334550857543945,0.6399999856948853
130,0.06007090210914612,0.9900000095367432,19.785402297973633,0.6399999856948853
131,0.05186156928539276,0.9900000095367432,13.462207794189453,0.6399999856948853
132,0.020521093159914017,1.0,8.429256439208984,0.6600000262260437
133,0.016806408762931824,1.0,5.91269588470459,0.6700000166893005
134,0.057213813066482544,0.9800000190734863,4.309722900390625,0.6800000071525574
135,0.09457731246948242,0.9599999785423279,3.2685353755950928,0.7099999785423279
136,0.15601789951324463,0.949999988079071,10.173921585083008,0.6399999856948853
137,0.12819519639015198,0.9599999785423279,9.26150894165039,0.6399999856948853
138,0.07955357432365417,0.9900000095367432,5.965200424194336,0.6600000262260437
139,0.07510627061128616,0.9700000286102295,4.277121067047119,0.6700000166893005
140,0.03569959104061127,1.0,2.759904384613037,0.6800000071525574
141,0.019784295931458473,1.0,2.179394006729126,0.699999988079071
142,0.01443141233175993,1.0,2.018284559249878,0.7300000190734863
143,0.013968451879918575,1.0,1.5616451501846313,0.75
144,0.006828820798546076,1.0,0.9991024136543274,0.8100000023841858
145,0.05408552289009094,0.9900000095367432,0.39927878975868225,0.8700000047683716
146,0.022469962015748024,1.0,0.3761740028858185,0.8899999856948853
147,0.015500602312386036,0.9900000095367432,0.46871134638786316,0.8500000238418579
148,0.00796416960656643,1.0,0.781272828578949,0.800000011920929
149,0.01382842194288969,1.0,0.4607275426387787,0.8799999952316284
150,0.008107395842671394,1.0,0.31215527653694153,0.9300000071525574
151,0.005883397068828344,1.0,0.2863852381706238,0.9300000071525574
152,0.0053893085569143295,1.0,0.2972259521484375,0.9300000071525574
153,0.005122702568769455,1.0,0.25175076723098755,0.8999999761581421
154,0.007528562564402819,1.0,0.24330291152000427,0.9200000166893005
155,0.004156148061156273,1.0,0.2704105079174042,0.9300000071525574
156,0.0009250842849723995,1.0,0.2907734811306,0.949999988079071
157,0.0019479802576825023,1.0,0.2936023473739624,0.949999988079071
158,0.001500047743320465,1.0,0.2896753251552582,0.9399999976158142
159,0.0011578015983104706,1.0,0.2912513315677643,0.9300000071525574
160,0.0006206986727192998,1.0,0.29264140129089355,0.9300000071525574
161,0.0012607702519744635,1.0,0.29405298829078674,0.9300000071525574
162,0.0022460496984422207,1.0,0.2992818355560303,0.9300000071525574
163,0.0010606182040646672,1.0,0.3024768531322479,0.9300000071525574
164,0.0009295502095483243,1.0,0.30425938963890076,0.9300000071525574
165,0.0011967536993324757,1.0,0.30609169602394104,0.9300000071525574
166,0.0008053670171648264,1.0,0.3064601719379425,0.9300000071525574
167,0.0003939028538297862,1.0,0.3081672191619873,0.9300000071525574
168,0.0005039146635681391,1.0,0.31043946743011475,0.9300000071525574
169,0.0017373457085341215,1.0,0.3140222430229187,0.9300000071525574
170,0.0007370808161795139,1.0,0.3165772557258606,0.9300000071525574
171,0.00038883290835656226,1.0,0.3185485005378723,0.9300000071525574
172,0.001819856814108789,1.0,0.3210179805755615,0.9200000166893005
173,0.004194374196231365,1.0,0.33346661925315857,0.9300000071525574
174,0.0005108396871946752,1.0,0.34960782527923584,0.9300000071525574
175,0.005750832613557577,1.0,0.33687323331832886,0.949999988079071
176,0.0014432934112846851,1.0,0.31930485367774963,0.9200000166893005
177,0.00023260874149855226,1.0,0.3144179880619049,0.9200000166893005
178,0.0004923223168589175,1.0,0.3132169246673584,0.9200000166893005
179,0.0006423520389944315,1.0,0.31334954500198364,0.9200000166893005
180,0.0011609533103182912,1.0,0.31535184383392334,0.9200000166893005
181,0.000657126831356436,1.0,0.31966766715049744,0.9200000166893005
182,0.0012233320157974958,1.0,0.32548749446868896,0.9200000166893005
183,0.0008904031710699201,1.0,0.33093681931495667,0.9200000166893005
184,0.0005263734492473304,1.0,0.3335578143596649,0.9200000166893005
185,0.0017890249146148562,1.0,0.33570435643196106,0.9200000166893005
186,0.0007833518320694566,1.0,0.3373505771160126,0.9200000166893005
187,0.0024809676688164473,1.0,0.3466261327266693,0.9300000071525574
188,0.0014689232921227813,1.0,0.3617016673088074,0.9200000166893005
189,0.000685382925439626,1.0,0.3679428994655609,0.9200000166893005
190,0.0005045031430199742,1.0,0.3693094551563263,0.9200000166893005
191,0.00014253704284783453,1.0,0.3698315918445587,0.9200000166893005
192,0.0004298604908399284,1.0,0.370423823595047,0.9200000166893005
193,0.00034691349719651043,1.0,0.370677649974823,0.9200000166893005
194,0.0002191928360844031,1.0,0.3704032003879547,0.9200000166893005
195,0.0005071100313216448,1.0,0.36993733048439026,0.9200000166893005
196,0.0012215828755870461,1.0,0.3678467571735382,0.9200000166893005
197,0.0002136519324267283,1.0,0.3757343292236328,0.9200000166893005
198,0.0035796549636870623,1.0,0.3882741630077362,0.9200000166893005
199,0.00021669510169886053,1.0,0.4252347946166992,0.9100000262260437
200,0.00046188465785235167,1.0,0.4297794997692108,0.8999999761581421
201,0.04000375419855118,0.9800000190734863,0.4605986475944519,0.8799999952316284
202,0.022965263575315475,0.9900000095367432,1.0491876602172852,0.8399999737739563
203,0.033170491456985474,0.9800000190734863,1.7489148378372192,0.7300000190734863
204,0.050374433398246765,0.9599999785423279,1.5512504577636719,0.75
205,0.00910873617976904,1.0,0.9105221629142761,0.8399999737739563
206,0.005903664045035839,1.0,0.6342946887016296,0.8600000143051147
207,0.002991932909935713,1.0,0.5059290528297424,0.8600000143051147
208,0.00675835320726037,1.0,0.42289677262306213,0.8799999952316284
209,0.005802020896226168,1.0,0.39685752987861633,0.8700000047683716
210,0.0019708299078047276,1.0,0.37510788440704346,0.8799999952316284
211,0.0016654878854751587,1.0,0.35728564858436584,0.8899999856948853
212,0.014391809701919556,1.0,0.3264091908931732,0.9200000166893005
213,0.00242960499599576,1.0,0.29646727442741394,0.9300000071525574
214,0.0012153282295912504,1.0,0.2906525433063507,0.9200000166893005
215,0.0338570773601532,0.9900000095367432,0.29433852434158325,0.9200000166893005
216,0.0018207330722361803,1.0,0.3321542739868164,0.9100000262260437
217,0.028965024277567863,0.9900000095367432,0.37380513548851013,0.8799999952316284
218,0.005400031805038452,1.0,0.4155876040458679,0.8999999761581421
219,0.004288507625460625,1.0,0.40102535486221313,0.9100000262260437
220,0.002024594461545348,1.0,0.37336841225624084,0.9100000262260437
221,0.0016871525440365076,1.0,0.3484000265598297,0.8999999761581421
222,0.0028104374650865793,1.0,0.3336014449596405,0.8999999761581421
223,0.0015653937589377165,1.0,0.32720842957496643,0.8999999761581421
224,0.002268546260893345,1.0,0.32088226079940796,0.9100000262260437
225,0.002751559717580676,1.0,0.30973559617996216,0.9100000262260437
226,0.00034979224437847733,1.0,0.29783064126968384,0.8999999761581421
227,0.001457529840990901,1.0,0.2990482449531555,0.8999999761581421
228,0.0003801127604674548,1.0,0.30112624168395996,0.8999999761581421
229,0.002565700327977538,1.0,0.32102906703948975,0.9100000262260437
230,0.21353945136070251,0.9700000286102295,0.3183266818523407,0.9200000166893005
231,0.02576376497745514,0.9900000095367432,0.5258423686027527,0.7799999713897705
232,0.012871666811406612,1.0,0.5686553716659546,0.7599999904632568
233,0.010923229157924652,1.0,0.3892764151096344,0.8799999952316284
234,0.0034725561272352934,1.0,0.3383047878742218,0.8999999761581421
235,0.03799848631024361,0.9900000095367432,0.3190709054470062,0.9300000071525574
236,0.001695735496468842,1.0,0.4276231527328491,0.8899999856948853
237,0.005784238688647747,1.0,0.47251078486442566,0.8899999856948853
238,0.007961089722812176,1.0,0.4579921066761017,0.8999999761581421
239,0.010216396301984787,1.0,0.3732708692550659,0.8999999761581421
240,0.0007768378127366304,1.0,0.3302671015262604,0.9200000166893005
241,0.020925523713231087,0.9900000095367432,0.5292326211929321,0.8999999761581421
242,0.00503587257117033,1.0,0.7915467023849487,0.8700000047683716
243,0.0028428989462554455,1.0,0.837859034538269,0.8700000047683716
244,0.0007943364907987416,1.0,0.7712341547012329,0.8700000047683716
245,0.0014981621643528342,1.0,0.6937324404716492,0.8700000047683716
246,0.00048153515672311187,1.0,0.6277962327003479,0.8799999952316284
247,0.0012310559395700693,1.0,0.5740008354187012,0.8799999952316284
248,0.0033044081646949053,1.0,0.5118163824081421,0.8899999856948853
249,0.0034991505090147257,1.0,0.46271681785583496,0.8899999856948853
250,0.0025497619062662125,1.0,0.4355331063270569,0.9100000262260437
251,0.0008649913943372667,1.0,0.41560810804367065,0.9100000262260437
252,0.0011285188375040889,1.0,0.4009040594100952,0.9100000262260437
253,0.004456725902855396,1.0,0.3655190169811249,0.9100000262260437
254,0.002300410298630595,1.0,0.34485533833503723,0.9200000166893005
255,0.0010675117373466492,1.0,0.338296502828598,0.9100000262260437
256,0.0017982188146561384,1.0,0.33385905623435974,0.9100000262260437
257,0.00028181972447782755,1.0,0.32635003328323364,0.9100000262260437
258,0.00030725597753189504,1.0,0.32284781336784363,0.9100000262260437
259,0.0009776824153959751,1.0,0.32066163420677185,0.9100000262260437
260,0.0007619679672643542,1.0,0.319014310836792,0.9100000262260437
261,0.0012185904197394848,1.0,0.3170192837715149,0.9100000262260437
262,0.00022943862131796777,1.0,0.31592684984207153,0.9100000262260437
263,0.0012488147476688027,1.0,0.31396985054016113,0.9100000262260437
264,0.0006264541298151016,1.0,0.3134685158729553,0.9100000262260437
265,0.001069600461050868,1.0,0.31339365243911743,0.9100000262260437
266,0.0006135336589068174,1.0,0.31501829624176025,0.9100000262260437
267,0.0004915607860311866,1.0,0.31537967920303345,0.9100000262260437
268,0.0009592612623237073,1.0,0.3155345022678375,0.9100000262260437
269,0.0004255140956956893,1.0,0.31438300013542175,0.9100000262260437
270,0.00040451198583468795,1.0,0.3144100606441498,0.9100000262260437
271,0.0005251543479971588,1.0,0.31432589888572693,0.9100000262260437
272,0.0007740349392406642,1.0,0.31366032361984253,0.9100000262260437
273,0.00036536541301757097,1.0,0.31341516971588135,0.9100000262260437
274,0.001032691216096282,1.0,0.3122606575489044,0.9100000262260437
275,0.0007354684639722109,1.0,0.31117820739746094,0.9100000262260437
276,0.0007313972455449402,1.0,0.3112011253833771,0.9100000262260437
277,0.0008986336761154234,1.0,0.3101343810558319,0.9100000262260437
278,0.0008778228657320142,1.0,0.31209370493888855,0.9100000262260437
279,0.0196915864944458,0.9900000095367432,0.3083060383796692,0.9200000166893005
280,0.0007420064648613334,1.0,0.30886581540107727,0.9200000166893005
281,0.00021511716477107257,1.0,0.3093511760234833,0.9200000166893005
282,0.0009841348510235548,1.0,0.3098016679286957,0.9200000166893005
283,0.0001977289648493752,1.0,0.3097022771835327,0.9200000166893005
284,0.00032306279172189534,1.0,0.3102722764015198,0.9200000166893005
285,0.0004650935297831893,1.0,0.3103538453578949,0.9200000166893005
286,0.0013900581980124116,1.0,0.3109075427055359,0.9200000166893005
287,0.000355760712409392,1.0,0.3115693926811218,0.9200000166893005
288,0.0016058924375101924,1.0,0.3123725652694702,0.9200000166893005
289,0.0010435633594170213,1.0,0.3138372600078583,0.9200000166893005
290,0.0007055466412566602,1.0,0.3152467608451843,0.9200000166893005
291,0.0006674969918094575,1.0,0.315065860748291,0.9200000166893005
292,0.0019048310350626707,1.0,0.3135969638824463,0.9200000166893005
293,0.0002222945331595838,1.0,0.31341463327407837,0.9200000166893005
294,0.0005819981452077627,1.0,0.3139919340610504,0.9200000166893005
295,0.0004597288789227605,1.0,0.3146810531616211,0.9200000166893005
296,0.00036208907840773463,1.0,0.31540200114250183,0.9200000166893005
297,0.0004241535207256675,1.0,0.31565728783607483,0.9200000166893005
298,0.00020141279674135149,1.0,0.3164981007575989,0.9200000166893005
299,0.0007958822534419596,1.0,0.31861817836761475,0.9200000166893005
300,0.0002124421444023028,1.0,0.3199322521686554,0.9200000166893005
301,0.0003096369619015604,1.0,0.32092341780662537,0.9200000166893005
302,0.0002558172564022243,1.0,0.32197922468185425,0.9200000166893005
303,0.0015935779083520174,1.0,0.3263798654079437,0.9200000166893005
304,0.0006604114314541221,1.0,0.3286101222038269,0.9300000071525574
305,0.00022501689090859145,1.0,0.3289000689983368,0.9300000071525574
306,0.003033014480024576,1.0,0.3299294412136078,0.9300000071525574
307,0.0005888402229174972,1.0,0.3298485577106476,0.9300000071525574
308,0.0004085512482561171,1.0,0.32898080348968506,0.9300000071525574
309,0.0002271505945827812,1.0,0.3285002112388611,0.9300000071525574
310,0.0003143124049529433,1.0,0.3281913697719574,0.9300000071525574
311,0.0007009482942521572,1.0,0.32827988266944885,0.9300000071525574
312,0.0018965841736644506,1.0,0.32937759160995483,0.9300000071525574
313,0.00017877905338536948,1.0,0.3300625681877136,0.9300000071525574
314,0.0003268802829552442,1.0,0.33014559745788574,0.9300000071525574
315,0.000324881897540763,1.0,0.3302253782749176,0.9300000071525574
316,0.00048468715976923704,1.0,0.330239474773407,0.9300000071525574
317,0.001056944252923131,1.0,0.32927703857421875,0.9300000071525574
318,0.0004540174559224397,1.0,0.32836464047431946,0.9300000071525574
319,0.00020054617198184133,1.0,0.32825595140457153,0.9300000071525574
320,0.00033371831523254514,1.0,0.32874178886413574,0.9300000071525574
321,0.0002177586720790714,1.0,0.329426646232605,0.9300000071525574
322,0.0005367228877730668,1.0,0.32989346981048584,0.9300000071525574
323,0.0004499090719036758,1.0,0.3304029703140259,0.9300000071525574
324,0.0012369302567094564,1.0,0.33169934153556824,0.9300000071525574
325,0.00035490497248247266,1.0,0.33209025859832764,0.9300000071525574
326,0.0011764345690608025,1.0,0.33219093084335327,0.9300000071525574
327,0.0032757199369370937,1.0,0.32961857318878174,0.9200000166893005
328,0.00015639721823390573,1.0,0.32723045349121094,0.9200000166893005
329,0.00021323749388102442,1.0,0.3276110589504242,0.9100000262260437
330,0.0006149488035589457,1.0,0.329208105802536,0.9100000262260437
331,0.0004953162278980017,1.0,0.3314701020717621,0.9100000262260437
332,0.00029402636573649943,1.0,0.3324020802974701,0.9100000262260437
333,0.001378083834424615,1.0,0.334909588098526,0.9100000262260437
334,0.0002441560209263116,1.0,0.3374415636062622,0.9100000262260437
335,0.0005827798740938306,1.0,0.34004855155944824,0.9100000262260437
336,0.0004404568753670901,1.0,0.3408176004886627,0.9100000262260437
337,0.0015508712967857718,1.0,0.342157244682312,0.9100000262260437
338,0.0008723099599592388,1.0,0.34120678901672363,0.9100000262260437
339,0.0002687661035452038,1.0,0.34065669775009155,0.9100000262260437
340,0.00033656388404779136,1.0,0.3409144878387451,0.9100000262260437
341,8.359737694263458e-05,1.0,0.34151366353034973,0.9100000262260437
342,0.00021040847059339285,1.0,0.3425149917602539,0.9100000262260437
343,0.0006108917878009379,1.0,0.34315308928489685,0.9100000262260437
344,0.00023569524637423456,1.0,0.3436163663864136,0.9100000262260437
345,0.0001766245113685727,1.0,0.3441675901412964,0.9100000262260437
346,0.00067964440677315,1.0,0.34529465436935425,0.9100000262260437
347,0.0009618938784115016,1.0,0.3442646861076355,0.9100000262260437
348,0.0002756331814453006,1.0,0.3433071970939636,0.9100000262260437
349,0.0004409337416291237,1.0,0.34275299310684204,0.9200000166893005
350,0.0005532374489121139,1.0,0.3432958722114563,0.9100000262260437
351,0.0008020427194423974,1.0,0.34393376111984253,0.9100000262260437
352,0.0005823487881571054,1.0,0.34513556957244873,0.9100000262260437
353,0.0010101043153554201,1.0,0.34533047676086426,0.9100000262260437
354,5.84774388698861e-05,1.0,0.3466399312019348,0.9100000262260437
355,0.00030013066134415567,1.0,0.34779784083366394,0.9100000262260437
356,8.261785842478275e-05,1.0,0.34824031591415405,0.9100000262260437
357,0.0008396106422878802,1.0,0.3488616645336151,0.9100000262260437
358,0.0005623991601169109,1.0,0.34850987792015076,0.9100000262260437
359,0.0008732030401006341,1.0,0.34911468625068665,0.9100000262260437
360,0.00045362464152276516,1.0,0.3488573431968689,0.9100000262260437
361,0.0003530707908794284,1.0,0.3493306040763855,0.9100000262260437
362,0.0023751298431307077,1.0,0.34796905517578125,0.9100000262260437
363,0.00012491481902543455,1.0,0.34869584441185,0.9100000262260437
364,0.00030006683664396405,1.0,0.3492961823940277,0.9100000262260437
365,8.074224751908332e-05,1.0,0.34944847226142883,0.9100000262260437
366,0.0015298727666959167,1.0,0.3474775552749634,0.9100000262260437
367,0.00013533019227907062,1.0,0.33981263637542725,0.9200000166893005
368,0.00015667972911614925,1.0,0.33810707926750183,0.9200000166893005
369,0.00014679381274618208,1.0,0.3383537232875824,0.9200000166893005
370,0.0004689350607804954,1.0,0.339706689119339,0.9200000166893005
371,0.00014576790272258222,1.0,0.3406168222427368,0.9200000166893005
372,9.550477261655033e-05,1.0,0.3419467508792877,0.9200000166893005
373,0.00027264945674687624,1.0,0.3435356914997101,0.9200000166893005
374,0.00022537440236192197,1.0,0.3451615571975708,0.9200000166893005
375,0.00022672265185974538,1.0,0.3469375669956207,0.9200000166893005
376,0.00013033382128924131,1.0,0.3483906686306,0.9100000262260437
377,0.0007555534830316901,1.0,0.3490206003189087,0.9100000262260437
378,0.00043849568464793265,1.0,0.3497883677482605,0.9100000262260437
379,0.00019591752788983285,1.0,0.3509308695793152,0.9100000262260437
380,0.0004013935977127403,1.0,0.35100266337394714,0.9100000262260437
381,0.0003177696489728987,1.0,0.35164856910705566,0.9100000262260437
382,5.266903099254705e-05,1.0,0.352402925491333,0.9100000262260437
383,0.0010158044751733541,1.0,0.35395312309265137,0.9100000262260437
384,0.00015260718646459281,1.0,0.3570837378501892,0.9100000262260437
385,0.0003501018218230456,1.0,0.35865768790245056,0.9100000262260437
386,0.0004951956798322499,1.0,0.35812923312187195,0.9100000262260437
387,0.00010801964526763186,1.0,0.35805484652519226,0.9100000262260437
388,0.0005225983331911266,1.0,0.35813575983047485,0.9100000262260437
389,0.00015493454702664167,1.0,0.35826000571250916,0.9100000262260437
390,0.0002771782747004181,1.0,0.3586551547050476,0.9100000262260437
391,0.00029467983404174447,1.0,0.35881519317626953,0.9100000262260437
392,0.0006847442709840834,1.0,0.3582066595554352,0.9100000262260437
393,0.00043651662417687476,1.0,0.3579453229904175,0.9100000262260437
394,0.00018104664923157543,1.0,0.35846468806266785,0.9100000262260437
395,5.812830204376951e-05,1.0,0.3590523898601532,0.9100000262260437
396,0.00017793002189137042,1.0,0.3601534366607666,0.9100000262260437
397,0.00042581261368468404,1.0,0.3617166578769684,0.9100000262260437
398,0.0001304811448790133,1.0,0.3629959225654602,0.9100000262260437
399,0.00022532652656082064,1.0,0.3633274734020233,0.9100000262260437
400,7.73229548940435e-05,1.0,0.3635860085487366,0.9100000262260437
401,0.0012872214429080486,1.0,0.36575981974601746,0.9100000262260437
402,0.0015783741837367415,1.0,0.36954718828201294,0.9100000262260437
403,0.00014220787852536887,1.0,0.3705637454986572,0.9100000262260437
404,0.001809010631404817,1.0,0.3634073734283447,0.9100000262260437
405,9.406059689354151e-05,1.0,0.3571230173110962,0.9100000262260437
406,0.00018628817633725703,1.0,0.3559018075466156,0.9100000262260437
407,0.00010775096598081291,1.0,0.35600823163986206,0.9100000262260437
408,8.448369044344872e-05,1.0,0.35694557428359985,0.9100000262260437
409,0.0002794518950395286,1.0,0.3578522503376007,0.9100000262260437
410,0.00021598329476546496,1.0,0.3590414524078369,0.9100000262260437
411,0.000250053039053455,1.0,0.35858672857284546,0.9100000262260437
412,0.00019176867499481887,1.0,0.35924026370048523,0.9100000262260437
413,0.0001813768467400223,1.0,0.3603006601333618,0.9100000262260437
414,0.0016703992150723934,1.0,0.3546615540981293,0.9200000166893005
415,0.0003754282370209694,1.0,0.35499313473701477,0.9200000166893005
416,0.00017422741802874953,1.0,0.35572555661201477,0.9200000166893005
417,0.0001957332860911265,1.0,0.3565155863761902,0.9200000166893005
418,0.00023086696455720812,1.0,0.35808616876602173,0.9200000166893005
419,7.403880590572953e-05,1.0,0.35910019278526306,0.9200000166893005
420,0.00016530128777958453,1.0,0.35970649123191833,0.9200000166893005
421,7.958651258377358e-05,1.0,0.36056381464004517,0.9200000166893005
422,6.411619688151404e-05,1.0,0.36124667525291443,0.9200000166893005
423,0.00011660611926345155,1.0,0.3619094789028168,0.9200000166893005
424,0.0009063176112249494,1.0,0.364437073469162,0.9200000166893005
425,0.00036753099993802607,1.0,0.3684605360031128,0.9200000166893005
426,0.00016627326840534806,1.0,0.3692680597305298,0.9200000166893005
427,4.5596654672408476e-05,1.0,0.3695579469203949,0.9200000166893005
428,0.00013150426093488932,1.0,0.37004661560058594,0.9200000166893005
429,0.00019488450197968632,1.0,0.3702232241630554,0.9200000166893005
430,0.00010658903192961589,1.0,0.3700074851512909,0.9200000166893005
431,0.0001526728883618489,1.0,0.3705507516860962,0.9100000262260437
432,0.0006144424551166594,1.0,0.37193307280540466,0.9100000262260437
433,0.0007165555725805461,1.0,0.37309005856513977,0.9100000262260437
434,0.00016218723612837493,1.0,0.3735010027885437,0.9100000262260437
435,0.00022065627854317427,1.0,0.373712420463562,0.9100000262260437
436,0.0003676271880976856,1.0,0.3736620247364044,0.9100000262260437
437,0.0001401236222591251,1.0,0.3742256462574005,0.9100000262260437
438,0.00011679218005156144,1.0,0.374469518661499,0.9100000262260437
439,3.874624235322699e-05,1.0,0.3741220235824585,0.9100000262260437
440,0.001119971158914268,1.0,0.37453246116638184,0.9100000262260437
441,0.00028455047868192196,1.0,0.37640801072120667,0.9100000262260437
442,0.00015405287558678538,1.0,0.3775976598262787,0.9100000262260437
443,0.00010242851567454636,1.0,0.3772932291030884,0.9100000262260437
444,8.886790601536632e-05,1.0,0.37694457173347473,0.9100000262260437
445,0.0001553578331368044,1.0,0.3770413100719452,0.9100000262260437
446,0.00013143981050234288,1.0,0.3775556683540344,0.9100000262260437
447,0.0004448966355994344,1.0,0.3784727454185486,0.9100000262260437
448,0.00011041673133149743,1.0,0.3789037764072418,0.9100000262260437
449,0.0005036190268583596,1.0,0.37774980068206787,0.9100000262260437
450,9.18388832360506e-05,1.0,0.37715280055999756,0.9100000262260437
451,4.42383206973318e-05,1.0,0.3770868182182312,0.9100000262260437
452,7.65424410928972e-05,1.0,0.3764991760253906,0.9100000262260437
453,0.00023175656679086387,1.0,0.37776556611061096,0.9100000262260437
454,7.826306682545692e-05,1.0,0.37864699959754944,0.9100000262260437
455,0.00011395056935725734,1.0,0.37919381260871887,0.9100000262260437
456,6.585241499124095e-05,1.0,0.3796271085739136,0.9100000262260437
457,6.823628791607916e-05,1.0,0.37989485263824463,0.9100000262260437
458,8.896688086679205e-05,1.0,0.3804547190666199,0.9100000262260437
459,0.00010351098899263889,1.0,0.38081586360931396,0.9100000262260437
460,3.19225036946591e-05,1.0,0.38048237562179565,0.9100000262260437
461,0.0009688150021247566,1.0,0.37874099612236023,0.9100000262260437
462,0.0002190813102060929,1.0,0.3725310266017914,0.9100000262260437
463,0.00010663866851245984,1.0,0.37125855684280396,0.9100000262260437
464,0.00023967641755007207,1.0,0.3718230128288269,0.9100000262260437
465,6.279160879785195e-05,1.0,0.37323224544525146,0.9100000262260437
466,4.697571421274915e-05,1.0,0.37434637546539307,0.9100000262260437
467,0.00040339186671189964,1.0,0.37588804960250854,0.9100000262260437
468,0.00030539880390278995,1.0,0.3767753839492798,0.9100000262260437
469,6.748463783878833e-05,1.0,0.37829330563545227,0.9100000262260437
470,0.0005893013440072536,1.0,0.37524735927581787,0.9100000262260437
471,0.0001234417431987822,1.0,0.3753906190395355,0.9100000262260437
472,3.1570343708153814e-05,1.0,0.3758884370326996,0.9100000262260437
473,7.964222459122539e-05,1.0,0.3765389621257782,0.9100000262260437
474,0.0001039753551594913,1.0,0.3775821030139923,0.9100000262260437
475,0.0001441262720618397,1.0,0.3788186013698578,0.9100000262260437
476,9.622185461921617e-05,1.0,0.3797856867313385,0.9100000262260437
477,5.2653453167295083e-05,1.0,0.38029006123542786,0.9100000262260437
478,8.427614375250414e-05,1.0,0.3808301091194153,0.9100000262260437
479,0.0003765469300560653,1.0,0.3819679319858551,0.9100000262260437
480,6.543423660332337e-05,1.0,0.3829798996448517,0.9100000262260437
481,0.0001389433309668675,1.0,0.38415732979774475,0.9100000262260437
482,0.00019073883595410734,1.0,0.38493889570236206,0.9100000262260437
483,0.00010562095849309117,1.0,0.3849183917045593,0.9100000262260437
484,0.0008205532212741673,1.0,0.3849901556968689,0.9100000262260437
485,5.029428211855702e-05,1.0,0.38586074113845825,0.9100000262260437
486,0.00021988652588333935,1.0,0.3879276216030121,0.8999999761581421
487,0.00011751977581297979,1.0,0.3895901143550873,0.8999999761581421
488,9.949695959221572e-05,1.0,0.39073026180267334,0.8999999761581421
489,0.00010724964522523805,1.0,0.39217689633369446,0.8999999761581421
490,0.0031357407569885254,1.0,0.3549526333808899,0.9200000166893005
491,0.00019942205108236521,1.0,0.3490360379219055,0.9200000166893005
492,0.00019901091582141817,1.0,0.3496440649032593,0.9300000071525574
493,7.457243191311136e-05,1.0,0.35068047046661377,0.9300000071525574
494,0.00027884833980351686,1.0,0.3520546853542328,0.9300000071525574
495,0.0022092305589467287,1.0,0.34291359782218933,0.9200000166893005
496,0.00033934827661141753,1.0,0.336986780166626,0.9200000166893005
497,0.00023723980120848864,1.0,0.3397540748119354,0.9200000166893005
498,0.0004236575623508543,1.0,0.34358081221580505,0.9200000166893005
499,8.769410487730056e-05,1.0,0.34885162115097046,0.9200000166893005
500,0.00021911405201535672,1.0,0.3527379631996155,0.9200000166893005
501,0.00022652048210147768,1.0,0.35717982053756714,0.9200000166893005
502,0.00034763047005981207,1.0,0.3552604615688324,0.9200000166893005
503,0.00027120308368466794,1.0,0.3570789694786072,0.9200000166893005
504,2.675518589967396e-05,1.0,0.35883408784866333,0.9200000166893005
505,0.0003369474143255502,1.0,0.36099758744239807,0.9200000166893005
506,0.0004170699103269726,1.0,0.3624703288078308,0.9200000166893005
507,0.0005842529353685677,1.0,0.3632955849170685,0.9200000166893005
508,0.00019263083231635392,1.0,0.36615362763404846,0.9200000166893005
509,5.794466414954513e-05,1.0,0.368000864982605,0.9200000166893005
510,5.160304863238707e-05,1.0,0.3691505193710327,0.9200000166893005
511,6.990110705373809e-05,1.0,0.37005814909935,0.9200000166893005
512,3.677244603750296e-05,1.0,0.370805025100708,0.9200000166893005
513,0.0001319154107477516,1.0,0.37162768840789795,0.9200000166893005
514,0.0005225419299677014,1.0,0.37364834547042847,0.9200000166893005
515,0.0005034504574723542,1.0,0.377061665058136,0.9200000166893005
516,0.00013841716281604022,1.0,0.3763773441314697,0.9200000166893005
517,9.464614413445815e-05,1.0,0.37632980942726135,0.9200000166893005
518,0.00012389215407893062,1.0,0.3769463300704956,0.9200000166893005
519,6.136489537311718e-05,1.0,0.37740689516067505,0.9200000166893005
520,6.946303619770333e-05,1.0,0.3775538504123688,0.9100000262260437
521,0.0005237641744315624,1.0,0.3794690668582916,0.9100000262260437
522,0.0002896072110161185,1.0,0.3817768096923828,0.9100000262260437
523,0.00018018495757132769,1.0,0.38329875469207764,0.9100000262260437
524,0.0003008714411407709,1.0,0.38520386815071106,0.9100000262260437
525,4.6426877815974876e-05,1.0,0.38614174723625183,0.9100000262260437
526,9.982946357922629e-05,1.0,0.3875431418418884,0.9100000262260437
527,0.0005914665525779128,1.0,0.3916719853878021,0.9100000262260437
528,5.181001324672252e-05,1.0,0.39517295360565186,0.9100000262260437
529,6.732610199833289e-05,1.0,0.3962879478931427,0.9100000262260437
530,0.0002012079203268513,1.0,0.39736518263816833,0.9100000262260437
531,0.0026134434156119823,1.0,0.3899872303009033,0.9100000262260437
532,0.00010414727876195684,1.0,0.34674084186553955,0.9200000166893005
533,0.0002475714427419007,1.0,0.3396429419517517,0.9200000166893005
534,0.00022863013145979494,1.0,0.34005436301231384,0.9200000166893005
535,0.00018748182628769428,1.0,0.34172484278678894,0.9200000166893005
536,0.0007283234735950828,1.0,0.3466438055038452,0.9200000166893005
537,8.64188841660507e-05,1.0,0.3517207205295563,0.9200000166893005
538,0.00017342479259241372,1.0,0.3570655882358551,0.9100000262260437
539,4.6723005652893335e-05,1.0,0.36058589816093445,0.9100000262260437
540,0.00030565026099793613,1.0,0.3624277412891388,0.8999999761581421
541,3.7450328818522394e-05,1.0,0.36402812600135803,0.8999999761581421
542,6.702233076794073e-05,1.0,0.3666441738605499,0.8999999761581421
543,0.000249778910074383,1.0,0.37048760056495667,0.8999999761581421
544,8.442595571978018e-05,1.0,0.3733026385307312,0.8999999761581421
545,0.0001052411098498851,1.0,0.3759484589099884,0.8999999761581421
546,0.00010036814637714997,1.0,0.3779149651527405,0.8999999761581421
547,3.405456664040685e-05,1.0,0.37939444184303284,0.8999999761581421
548,0.0005255089490674436,1.0,0.37611493468284607,0.8999999761581421
549,0.00038487109122797847,1.0,0.37390005588531494,0.8999999761581421
550,0.0007113971514627337,1.0,0.3773243725299835,0.8999999761581421
551,7.036329043330625e-05,1.0,0.38754895329475403,0.8999999761581421
552,0.0001432368444511667,1.0,0.39130187034606934,0.8999999761581421
553,4.8814872570801526e-05,1.0,0.39220306277275085,0.8999999761581421
554,9.247600246453658e-05,1.0,0.392474889755249,0.8999999761581421
555,0.00010599195229588076,1.0,0.3916996121406555,0.8999999761581421
556,0.000513845297973603,1.0,0.39311522245407104,0.8999999761581421
557,0.00041772733675315976,1.0,0.4037889242172241,0.8999999761581421
558,5.732220597565174e-05,1.0,0.40811142325401306,0.8999999761581421
559,0.00040564045775681734,1.0,0.4064696431159973,0.8999999761581421
560,0.0007193628698587418,1.0,0.40592053532600403,0.8999999761581421
561,6.020164073561318e-05,1.0,0.40149325132369995,0.8999999761581421
562,2.672915070434101e-05,1.0,0.39933860301971436,0.8999999761581421
563,6.52006347081624e-05,1.0,0.39896777272224426,0.8999999761581421
564,0.00041216620593331754,1.0,0.4008760154247284,0.8999999761581421
565,0.00026667179190553725,1.0,0.4030185639858246,0.8999999761581421
566,4.278901178622618e-05,1.0,0.403532475233078,0.8999999761581421
567,5.590968794422224e-05,1.0,0.4028193950653076,0.8999999761581421
568,5.636908099404536e-05,1.0,0.40243762731552124,0.8999999761581421
569,1.999630876525771e-05,1.0,0.4021227955818176,0.8999999761581421
570,5.273674469208345e-05,1.0,0.4023348093032837,0.8999999761581421
571,0.00032690263469703496,1.0,0.4043324589729309,0.8999999761581421
572,3.2343661587219685e-05,1.0,0.40561676025390625,0.8999999761581421
573,0.002068045549094677,1.0,0.4101303517818451,0.8999999761581421
574,4.213901411276311e-05,1.0,0.4209432303905487,0.8999999761581421
575,0.00011317063035676256,1.0,0.42106643319129944,0.9100000262260437
576,0.00014088075840845704,1.0,0.4181845188140869,0.9100000262260437
577,0.0001244138547917828,1.0,0.41465675830841064,0.9100000262260437
578,6.613989535253495e-05,1.0,0.4102163016796112,0.9100000262260437
579,0.0003518721496220678,1.0,0.40811848640441895,0.9100000262260437
580,0.00012758768571075052,1.0,0.4067012667655945,0.9100000262260437
581,0.00010872252460103482,1.0,0.40478038787841797,0.9100000262260437
582,5.260294346953742e-05,1.0,0.4028114378452301,0.9100000262260437
583,3.089085657848045e-05,1.0,0.4006507992744446,0.9100000262260437
584,0.0003043267352040857,1.0,0.39955079555511475,0.9100000262260437
585,0.00011871811148012057,1.0,0.39944106340408325,0.9100000262260437
586,0.000271075899945572,1.0,0.4013206362724304,0.9100000262260437
587,3.425741306273267e-05,1.0,0.4014621078968048,0.9100000262260437
588,0.00014799664495512843,1.0,0.4014497995376587,0.9100000262260437
589,1.3216234947321936e-05,1.0,0.4008721113204956,0.9100000262260437
590,5.284844519337639e-05,1.0,0.4005185067653656,0.9100000262260437
591,0.00022699475812260062,1.0,0.4017940163612366,0.9100000262260437
592,0.0006709961453452706,1.0,0.4094381630420685,0.9100000262260437
593,3.1389223295263946e-05,1.0,0.41150107979774475,0.9100000262260437
594,2.6622257792041637e-05,1.0,0.41185206174850464,0.9100000262260437
595,3.609884879551828e-05,1.0,0.4119681119918823,0.9100000262260437
596,0.0001744658366078511,1.0,0.4130629599094391,0.9100000262260437
597,0.0003483501204755157,1.0,0.4150807559490204,0.9100000262260437
598,3.2412925065727904e-05,1.0,0.4153870642185211,0.9100000262260437
599,3.551522604539059e-05,1.0,0.4149250388145447,0.9100000262260437
600,4.8883823183132336e-05,1.0,0.4141503572463989,0.9100000262260437
601,2.9658809580723755e-05,1.0,0.41386252641677856,0.9100000262260437
602,3.1658044463256374e-05,1.0,0.41360723972320557,0.9100000262260437
603,2.31770991376834e-05,1.0,0.41330504417419434,0.9100000262260437
604,0.0004835904692299664,1.0,0.41339123249053955,0.9100000262260437
605,5.393926039687358e-05,1.0,0.41194626688957214,0.9100000262260437
606,0.0001929359568748623,1.0,0.41263526678085327,0.9100000262260437
607,2.3599399355589412e-05,1.0,0.413737952709198,0.9100000262260437
608,6.534964632010087e-05,1.0,0.4143518805503845,0.9100000262260437
609,6.196284084580839e-05,1.0,0.41402721405029297,0.9100000262260437
610,0.0005161879817023873,1.0,0.41331589221954346,0.9100000262260437
611,3.0029896151972935e-05,1.0,0.4129190444946289,0.9100000262260437
612,0.0004874595324508846,1.0,0.41685622930526733,0.9100000262260437
613,4.521615483099595e-05,1.0,0.418167382478714,0.9100000262260437
614,0.00013719194976147264,1.0,0.41913682222366333,0.9100000262260437
615,2.1422099962364882e-05,1.0,0.4196152091026306,0.9100000262260437
616,6.16856777924113e-05,1.0,0.42022567987442017,0.9100000262260437
617,1.4013706277182791e-05,1.0,0.4199976623058319,0.9100000262260437
618,0.00021028857736382633,1.0,0.4203902781009674,0.9100000262260437
619,2.2590071239392273e-05,1.0,0.42030999064445496,0.9100000262260437
620,7.323345198528841e-05,1.0,0.4212721288204193,0.9100000262260437
621,4.902263026451692e-05,1.0,0.4217359125614166,0.9100000262260437
622,0.0009438182460144162,1.0,0.4196411073207855,0.8999999761581421
623,7.49933087718091e-06,1.0,0.4189896881580353,0.8999999761581421
624,0.00041443551890552044,1.0,0.42571449279785156,0.8999999761581421
625,8.18592743598856e-05,1.0,0.42808571457862854,0.8999999761581421
626,9.774361387826502e-05,1.0,0.4285368323326111,0.8999999761581421
627,1.9479177353787236e-05,1.0,0.42736098170280457,0.8999999761581421
628,6.320730608422309e-05,1.0,0.4267411530017853,0.8999999761581421
629,3.739225576282479e-05,1.0,0.42635059356689453,0.8999999761581421
630,2.168965329474304e-05,1.0,0.42626723647117615,0.8999999761581421
631,3.2525942515349016e-05,1.0,0.42572373151779175,0.8999999761581421
632,4.070895738550462e-05,1.0,0.4257931411266327,0.8999999761581421
633,0.00024224643129855394,1.0,0.4270462095737457,0.8999999761581421
634,0.00023777602473273873,1.0,0.4285723567008972,0.8999999761581421
635,1.5948784493957646e-05,1.0,0.42788490653038025,0.9100000262260437
636,3.025206933671143e-05,1.0,0.4270845651626587,0.9100000262260437
637,6.423544982681051e-05,1.0,0.4268377721309662,0.9100000262260437
638,3.0204299036995508e-05,1.0,0.4252666234970093,0.9100000262260437
639,7.514909520978108e-05,1.0,0.4243634343147278,0.9100000262260437
640,0.0002959406119771302,1.0,0.42519593238830566,0.9100000262260437
641,0.00033016400993801653,1.0,0.42840811610221863,0.9100000262260437
642,0.0008462566765956581,1.0,0.4222409129142761,0.9100000262260437
643,6.22339139226824e-05,1.0,0.41685405373573303,0.9200000166893005
644,4.477808761294e-05,1.0,0.4159473776817322,0.9200000166893005
645,0.00016484972729813308,1.0,0.4157150685787201,0.9200000166893005
646,0.00017725203360896558,1.0,0.4167281985282898,0.9200000166893005
647,2.6231287847622298e-05,1.0,0.4169948697090149,0.9200000166893005
648,7.780615305819083e-06,1.0,0.41716060042381287,0.9200000166893005
649,7.082007505232468e-05,1.0,0.4176127314567566,0.9200000166893005
650,1.4461820683209226e-05,1.0,0.4177197515964508,0.9200000166893005
651,0.00010242432472296059,1.0,0.418346643447876,0.9200000166893005
652,4.561072637443431e-05,1.0,0.41851887106895447,0.9200000166893005
653,1.528379652881995e-05,1.0,0.41888660192489624,0.9200000166893005
654,0.0002537191321607679,1.0,0.42197468876838684,0.9100000262260437
655,4.4277243432588875e-05,1.0,0.4275994896888733,0.9100000262260437
656,1.112312929762993e-05,1.0,0.42939290404319763,0.9100000262260437
657,7.803060725564137e-05,1.0,0.4309734106063843,0.9100000262260437
658,0.000390105094993487,1.0,0.43474745750427246,0.9100000262260437
659,5.242204133537598e-05,1.0,0.4399183392524719,0.9100000262260437
660,1.0773816939035896e-05,1.0,0.44164857268333435,0.9100000262260437
661,3.803758227149956e-05,1.0,0.44297218322753906,0.9100000262260437
662,0.0004939428181387484,1.0,0.45422694087028503,0.8999999761581421
663,4.628522947314195e-05,1.0,0.4594132900238037,0.8999999761581421
664,0.00010236288653686643,1.0,0.4626484215259552,0.8999999761581421
665,4.726764382212423e-05,1.0,0.462355375289917,0.8999999761581421
666,1.2226090802869294e-05,1.0,0.4619133770465851,0.8999999761581421
667,0.00048751558642834425,1.0,0.4557451605796814,0.8999999761581421
668,2.7841131668537855e-05,1.0,0.43864497542381287,0.9100000262260437
669,0.00014732449199073017,1.0,0.43545135855674744,0.9100000262260437
670,2.822320493578445e-05,1.0,0.43430787324905396,0.9100000262260437
671,2.7064232199336402e-05,1.0,0.4350332021713257,0.9100000262260437
672,1.3293427400640212e-05,1.0,0.43581414222717285,0.9100000262260437
673,0.00017138173279818147,1.0,0.4352901577949524,0.9100000262260437
674,8.874530612956733e-05,1.0,0.43564799427986145,0.9100000262260437
675,5.949025216978043e-05,1.0,0.4368179440498352,0.9100000262260437
676,1.4832301530987024e-05,1.0,0.4363571107387543,0.9100000262260437
677,3.4682947443798184e-05,1.0,0.4367493689060211,0.9100000262260437
678,0.00018243782687932253,1.0,0.4382668435573578,0.9100000262260437
679,0.0002759007620625198,1.0,0.43107929825782776,0.9100000262260437
680,0.00012626386887859553,1.0,0.43061500787734985,0.9100000262260437
681,0.00011620517761912197,1.0,0.43219515681266785,0.9100000262260437
682,4.613670171238482e-05,1.0,0.4343937933444977,0.9100000262260437
683,2.6030978915514424e-05,1.0,0.4358997344970703,0.9100000262260437
684,4.508290294324979e-05,1.0,0.43788158893585205,0.9100000262260437
685,4.446356251719408e-05,1.0,0.44003933668136597,0.9100000262260437
686,1.0355433914810419e-05,1.0,0.4411846101284027,0.9100000262260437
687,5.50052136532031e-05,1.0,0.4420536756515503,0.9100000262260437
688,3.1178060453385115e-05,1.0,0.44299688935279846,0.9100000262260437
689,0.00040544685907661915,1.0,0.4419766962528229,0.9100000262260437
690,1.840901495597791e-05,1.0,0.441133588552475,0.9100000262260437
691,0.00021997677686158568,1.0,0.44259482622146606,0.9100000262260437
692,2.1864512746105902e-05,1.0,0.4423889219760895,0.9100000262260437
693,6.74232160235988e-06,1.0,0.44325029850006104,0.9100000262260437
694,4.455145972315222e-05,1.0,0.4444325566291809,0.9100000262260437
695,2.1378569726948626e-05,1.0,0.44578251242637634,0.9100000262260437
696,6.080426828702912e-05,1.0,0.4475755989551544,0.9100000262260437
697,5.6021337513811886e-05,1.0,0.44950535893440247,0.9100000262260437
698,1.3751429833064321e-05,1.0,0.4504295587539673,0.9100000262260437
699,2.8090989871998318e-05,1.0,0.45100945234298706,0.9100000262260437
700,5.649471495416947e-05,1.0,0.45299607515335083,0.9100000262260437
701,8.918961611925624e-06,1.0,0.4538746178150177,0.9100000262260437
702,9.379712719237432e-05,1.0,0.45492023229599,0.9100000262260437
703,9.072812645172235e-06,1.0,0.4557804763317108,0.9100000262260437
704,1.5665866158087738e-05,1.0,0.45615154504776,0.9100000262260437
705,3.1873561965767294e-05,1.0,0.4571385681629181,0.9100000262260437
706,4.118353535886854e-05,1.0,0.4587872326374054,0.8999999761581421
707,0.00012709795555565506,1.0,0.4575508236885071,0.9100000262260437
708,2.067577588604763e-05,1.0,0.45698311924934387,0.8999999761581421
709,2.8335291062830947e-05,1.0,0.4573270082473755,0.8999999761581421
710,0.00014179178106132895,1.0,0.45727962255477905,0.8999999761581421
711,3.4314354707021266e-05,1.0,0.459769070148468,0.8999999761581421
712,7.033189467620105e-05,1.0,0.4617839455604553,0.8999999761581421
713,1.9930586859118193e-05,1.0,0.46275681257247925,0.8999999761581421
714,4.807462028111331e-05,1.0,0.4639798402786255,0.8999999761581421
715,5.751795106334612e-05,1.0,0.4644765555858612,0.8999999761581421
716,0.00011806313705164939,1.0,0.460082471370697,0.8999999761581421
717,1.9942226572311483e-05,1.0,0.45847633481025696,0.8999999761581421
718,3.213959644199349e-05,1.0,0.4589942991733551,0.8999999761581421
719,0.0003352299681864679,1.0,0.4638651907444,0.8999999761581421
720,0.00022328671184368432,1.0,0.4670405685901642,0.8999999761581421
721,2.5747089239303023e-05,1.0,0.4669181704521179,0.8999999761581421
722,2.2243591956794262e-05,1.0,0.4672054350376129,0.8999999761581421
723,0.00014100660337135196,1.0,0.4677671194076538,0.8999999761581421
724,0.00028670960455201566,1.0,0.4505963921546936,0.9100000262260437
725,2.108054468408227e-05,1.0,0.4367554783821106,0.9100000262260437
726,5.915098427067278e-06,1.0,0.4337238073348999,0.9100000262260437
727,5.3543892136076465e-05,1.0,0.4345109462738037,0.9100000262260437
728,8.179875294445083e-06,1.0,0.4356539845466614,0.9100000262260437
729,2.4597711671958677e-05,1.0,0.4377383291721344,0.9100000262260437
730,0.0001233961374964565,1.0,0.44265201687812805,0.9100000262260437
731,2.834976839949377e-05,1.0,0.4472613036632538,0.9100000262260437
732,6.891371413075831e-06,1.0,0.44966915249824524,0.9100000262260437
733,1.018728107737843e-05,1.0,0.4508710503578186,0.8999999761581421
734,2.610894625831861e-05,1.0,0.45197704434394836,0.8999999761581421
735,7.384874152194243e-06,1.0,0.45302456617355347,0.8999999761581421
736,0.00016958148626144975,1.0,0.45635607838630676,0.8999999761581421
737,5.8961417380487546e-05,1.0,0.4605861008167267,0.8999999761581421
738,5.458038140204735e-05,1.0,0.4646376073360443,0.8999999761581421
739,1.3818321349390317e-05,1.0,0.4680236876010895,0.8999999761581421
740,1.7112588466261514e-05,1.0,0.47027453780174255,0.8999999761581421
741,6.315599421213847e-06,1.0,0.4718634784221649,0.8999999761581421
742,9.128201782004908e-05,1.0,0.47419750690460205,0.8999999761581421
743,5.3304331231629476e-05,1.0,0.47692668437957764,0.8999999761581421
744,9.394586413691286e-06,1.0,0.47817328572273254,0.8999999761581421
745,8.247879304690287e-05,1.0,0.48096969723701477,0.8999999761581421
746,4.684901796281338e-05,1.0,0.4825810492038727,0.8999999761581421
747,9.35029675019905e-06,1.0,0.48239022493362427,0.8999999761581421
748,7.207272574305534e-06,1.0,0.4820973873138428,0.8999999761581421
749,0.0015953576657921076,1.0,0.49536705017089844,0.8999999761581421
750,7.945024117361754e-05,1.0,0.517493486404419,0.9100000262260437
751,2.4498871425748803e-05,1.0,0.5181170701980591,0.9100000262260437
752,8.800598152447492e-05,1.0,0.5164242386817932,0.9100000262260437
753,0.00016267724276985973,1.0,0.49710848927497864,0.8999999761581421
754,3.810165071627125e-05,1.0,0.48621615767478943,0.8999999761581421
755,3.173062941641547e-05,1.0,0.47921058535575867,0.9100000262260437
756,2.8064225261914544e-05,1.0,0.47379666566848755,0.9100000262260437
757,2.1437854229588993e-05,1.0,0.47107842564582825,0.9100000262260437
758,5.0143917178502306e-05,1.0,0.46818527579307556,0.9200000166893005
759,1.3318375749804545e-05,1.0,0.4658080041408539,0.9200000166893005
760,2.2145817638374865e-05,1.0,0.46356678009033203,0.9200000166893005
761,1.5579460523440503e-05,1.0,0.4608433246612549,0.9200000166893005
762,7.453728176187724e-05,1.0,0.4596519470214844,0.9200000166893005
763,2.291258715558797e-05,1.0,0.4566282629966736,0.9200000166893005
764,4.8161902668653056e-05,1.0,0.45508304238319397,0.9200000166893005
765,4.538027860689908e-05,1.0,0.45250824093818665,0.9200000166893005
766,8.714677096577361e-05,1.0,0.45175811648368835,0.9200000166893005
767,5.777513433713466e-05,1.0,0.4530268907546997,0.9200000166893005
768,3.199789716745727e-05,1.0,0.4541565775871277,0.9200000166893005
769,1.7076890799216926e-05,1.0,0.45397359132766724,0.9200000166893005
770,1.6594009139225818e-05,1.0,0.453489750623703,0.9200000166893005
771,3.8837912143208086e-05,1.0,0.4544014632701874,0.9200000166893005
772,1.4276476576924324e-05,1.0,0.45519500970840454,0.9200000166893005
773,9.431396392756142e-06,1.0,0.4549471139907837,0.9200000166893005
774,4.226195960654877e-05,1.0,0.454525351524353,0.9200000166893005
775,3.3257208997383714e-05,1.0,0.4550350308418274,0.9200000166893005
776,3.5945904528489336e-05,1.0,0.4554310142993927,0.9200000166893005
777,4.772030661115423e-05,1.0,0.4536592960357666,0.9200000166893005
778,1.2789329048246145e-05,1.0,0.4499875009059906,0.9200000166893005
779,2.350519207539037e-05,1.0,0.4496634304523468,0.9200000166893005
780,1.1347046893206425e-05,1.0,0.4496082365512848,0.9200000166893005
781,2.4023505829973146e-05,1.0,0.4501739740371704,0.9200000166893005
782,4.87421675643418e-05,1.0,0.4514599144458771,0.9200000166893005
783,1.7717857190291397e-05,1.0,0.4522382318973541,0.9200000166893005
784,5.710563709726557e-05,1.0,0.45329025387763977,0.9200000166893005
785,6.271481106523424e-05,1.0,0.45562446117401123,0.9200000166893005
786,2.0901006791973487e-05,1.0,0.45696812868118286,0.9200000166893005
787,0.00020285409118514508,1.0,0.4716915488243103,0.9100000262260437
788,1.160683314083144e-05,1.0,0.475911945104599,0.9100000262260437
789,1.074018200597493e-05,1.0,0.47650468349456787,0.8999999761581421
790,1.689823875494767e-05,1.0,0.4768243432044983,0.8999999761581421
791,2.7127407520310953e-05,1.0,0.4763938784599304,0.9100000262260437
792,1.9321048966958188e-05,1.0,0.4754773676395416,0.9100000262260437
793,3.5085788113065064e-05,1.0,0.47443512082099915,0.9100000262260437
794,4.8564943426754326e-06,1.0,0.47375744581222534,0.9100000262260437
795,4.0400951547781006e-05,1.0,0.4741784930229187,0.9100000262260437
796,1.9167195205227472e-05,1.0,0.47368666529655457,0.9100000262260437
797,2.0583049263223074e-05,1.0,0.4729113280773163,0.9100000262260437
798,2.608058821351733e-05,1.0,0.47274312376976013,0.9100000262260437
799,0.00014118515537120402,1.0,0.47246086597442627,0.9100000262260437
