,loss,recall,val_loss,val_recall
0,0.6722654700279236,0.5481029810298103,0.6663476228713989,0.32
1,0.5334832072257996,0.8070652173913043,0.6628099083900452,0.32
2,0.46034544706344604,0.8791208791208791,0.6591363549232483,0.32
3,0.4114092290401459,0.7854954034729316,0.6551464200019836,0.32
4,0.37062734365463257,0.852981029810298,0.6505267024040222,0.32
5,0.33466964960098267,0.884032634032634,0.6448401212692261,0.32
6,0.30321910977363586,0.9066666666666667,0.6384679079055786,0.32
7,0.2771921157836914,0.9130645944633318,0.6319658756256104,0.32
8,0.25667181611061096,0.8924632352941176,0.6255190372467041,0.32
9,0.23950693011283875,0.8924632352941176,0.6192671656608582,0.32
10,0.2226787954568863,0.9018543645409317,0.6128248572349548,0.8232323232323233
11,0.2051994502544403,0.9154411764705883,0.6063646674156189,0.8368421052631578
12,0.1885078251361847,0.9384191176470589,0.5999038219451904,0.8478260869565217
13,0.17348217964172363,0.9384191176470589,0.5930707454681396,0.8902439024390244
14,0.15998965501785278,0.9532491818606825,0.5861414074897766,0.8873517786561265
15,0.1474277675151825,0.9532491818606825,0.5792556405067444,0.836884830035515
16,0.13537923991680145,0.9859154929577465,0.5726110935211182,0.8235156615240766
17,0.1236228346824646,0.9928571428571429,0.5664464235305786,0.8193125282677521
18,0.11227956414222717,0.9928571428571429,0.5603806376457214,0.8148863148863149
19,0.10188059508800507,0.9928571428571429,0.5537917613983154,0.8148863148863149
20,0.09234673529863358,0.9928571428571429,0.5460182428359985,0.8354350567465322
21,0.08329682052135468,0.9928571428571429,0.536170244216919,0.8458333333333333
22,0.07470152527093887,0.9928571428571429,0.5231677889823914,0.8464696223316912
23,0.06670190393924713,1.0,0.5074969530105591,0.8482142857142857
24,0.05954285338521004,1.0,0.48986127972602844,0.8482142857142857
25,0.053210172802209854,1.0,0.4714938998222351,0.8482142857142857
26,0.04746497422456741,1.0,0.45297759771347046,0.827922077922078
27,0.04218651354312897,1.0,0.43486639857292175,0.827922077922078
28,0.0374862365424633,1.0,0.41726911067962646,0.8076298701298701
29,0.03336077556014061,1.0,0.4008091986179352,0.827922077922078
30,0.029757890850305557,1.0,0.3851330578327179,0.827922077922078
31,0.02652290277183056,1.0,0.37012597918510437,0.8370053039575683
32,0.023617416620254517,1.0,0.3558885157108307,0.8464696223316912
33,0.021057400852441788,1.0,0.34296566247940063,0.8464696223316912
34,0.01883113384246826,1.0,0.33198508620262146,0.8464696223316912
35,0.016912108287215233,1.0,0.32293447852134705,0.8464696223316912
36,0.015226294286549091,1.0,0.3154737055301666,0.8464696223316912
37,0.013735477812588215,1.0,0.30953776836395264,0.8458333333333333
38,0.012425484135746956,1.0,0.30480527877807617,0.8458333333333333
39,0.011281556449830532,1.0,0.301277756690979,0.8354350567465322
40,0.010279587469995022,1.0,0.2984775900840759,0.8577863577863578
41,0.0093897245824337,1.0,0.296162486076355,0.8577863577863578
42,0.008590883575379848,1.0,0.29430580139160156,0.8577863577863578
43,0.007875669747591019,1.0,0.29314324259757996,0.8480902777777778
44,0.007241942919790745,1.0,0.2924392521381378,0.8480902777777778
45,0.006680154707282782,1.0,0.292190283536911,0.8480902777777778
46,0.006179948803037405,1.0,0.29242458939552307,0.8480902777777778
47,0.005735023412853479,1.0,0.2928510308265686,0.8604395604395605
48,0.005336131434887648,1.0,0.2933720052242279,0.8511586452762923
49,0.004977565258741379,1.0,0.2940412759780884,0.8511586452762923
50,0.004654101096093655,1.0,0.29492759704589844,0.8511586452762923
51,0.0043639009818434715,1.0,0.29595836997032166,0.8511586452762923
52,0.004101264756172895,1.0,0.2970871329307556,0.8511586452762923
53,0.0038647770415991545,1.0,0.2983928322792053,0.8645409317051108
54,0.00365156470797956,1.0,0.2997693419456482,0.8645409317051108
55,0.0034590375144034624,1.0,0.3013018071651459,0.8645409317051108
56,0.0032841747161000967,1.0,0.30311381816864014,0.8645409317051108
57,0.0031250284519046545,1.0,0.30506670475006104,0.8645409317051108
58,0.0029791828710585833,1.0,0.30720776319503784,0.8786764705882353
59,0.002845603274181485,1.0,0.30940350890159607,0.8786764705882353
60,0.0027230142150074244,1.0,0.31166860461235046,0.8936418887330528
61,0.002609765389934182,1.0,0.3138384222984314,0.8936418887330528
62,0.002505125245079398,1.0,0.3160964250564575,0.8936418887330528
63,0.0024083422031253576,1.0,0.3183285892009735,0.8936418887330528
64,0.0023187182378023863,1.0,0.32072263956069946,0.8936418887330528
65,0.002235681051388383,1.0,0.3231453597545624,0.8936418887330528
66,0.002158587798476219,1.0,0.3254774808883667,0.8936418887330528
67,0.0020868941210210323,1.0,0.32776549458503723,0.8936418887330528
68,0.002020137384533882,1.0,0.33001503348350525,0.8936418887330528
69,0.0019577275961637497,1.0,0.3321168124675751,0.8936418887330528
70,0.0018992186523973942,1.0,0.3340769112110138,0.8936418887330528
71,0.0018442332511767745,1.0,0.3358200490474701,0.8936418887330528
72,0.0017923039849847555,1.0,0.33738672733306885,0.8936418887330528
73,0.0017432703170925379,1.0,0.33884355425834656,0.8936418887330528
74,0.001696864957921207,1.0,0.34022125601768494,0.8936418887330528
75,0.0016530206194147468,1.0,0.3415125906467438,0.8936418887330528
76,0.0016115023754537106,1.0,0.34275802969932556,0.8936418887330528
77,0.0015721323434263468,1.0,0.34393835067749023,0.8936418887330528
78,0.001534762093797326,1.0,0.34505051374435425,0.8936418887330528
79,0.001499202218838036,1.0,0.34614238142967224,0.8936418887330528
80,0.0014653712278231978,1.0,0.34718218445777893,0.8936418887330528
81,0.0014331082347780466,1.0,0.3481779396533966,0.8936418887330528
82,0.0014023963594809175,1.0,0.3491327464580536,0.8936418887330528
83,0.0013730227947235107,1.0,0.350059449672699,0.8936418887330528
84,0.0013448353856801987,1.0,0.35093921422958374,0.8936418887330528
85,0.0013177992077544332,1.0,0.3517727553844452,0.8936418887330528
86,0.0012918594293296337,1.0,0.3525910973548889,0.8936418887330528
87,0.0012669569114223123,1.0,0.35338202118873596,0.8936418887330528
88,0.0012430347269400954,1.0,0.35412517189979553,0.8936418887330528
89,0.001220046659000218,1.0,0.3548336625099182,0.8936418887330528
90,0.001197914476506412,1.0,0.35550597310066223,0.8936418887330528
91,0.0011765096569433808,1.0,0.35613012313842773,0.8936418887330528
92,0.001155820325948298,1.0,0.35674238204956055,0.8936418887330528
93,0.0011358013143762946,1.0,0.3573477864265442,0.8936418887330528
94,0.001116413390263915,1.0,0.3579162061214447,0.8936418887330528
95,0.0010976660996675491,1.0,0.358458548784256,0.8936418887330528
96,0.0010795448906719685,1.0,0.35899338126182556,0.8936418887330528
97,0.0010619963286444545,1.0,0.3595345914363861,0.8936418887330528
98,0.0010449622059240937,1.0,0.36007818579673767,0.8936418887330528
99,0.0010284176096320152,1.0,0.36062416434288025,0.8936418887330528
100,0.0010123444953933358,1.0,0.361189603805542,0.8936418887330528
101,0.0009967598598450422,1.0,0.361745685338974,0.8936418887330528
102,0.0009815982775762677,1.0,0.3622799515724182,0.8936418887330528
103,0.0009668515413068235,1.0,0.3628089427947998,0.8936418887330528
104,0.0009525043424218893,1.0,0.36333128809928894,0.8936418887330528
105,0.0009385528974235058,1.0,0.36385494470596313,0.8936418887330528
106,0.0009249533759430051,1.0,0.36437171697616577,0.8936418887330528
107,0.0009116856381297112,1.0,0.36487776041030884,0.8936418887330528
108,0.0008987534092739224,1.0,0.365365207195282,0.8936418887330528
109,0.0008861206006258726,1.0,0.3658409118652344,0.8936418887330528
110,0.0008737900643609464,1.0,0.36632075905799866,0.8936418887330528
111,0.000861775828525424,1.0,0.3668014109134674,0.8936418887330528
112,0.0008500471012666821,1.0,0.36727067828178406,0.8936418887330528
113,0.0008386025438085198,1.0,0.36772748827934265,0.8936418887330528
114,0.0008274114225059748,1.0,0.3681718409061432,0.8936418887330528
115,0.0008164710598066449,1.0,0.36860451102256775,0.8936418887330528
116,0.0008057567174546421,1.0,0.3690066337585449,0.8936418887330528
117,0.0007952886517159641,1.0,0.3694063425064087,0.8936418887330528
118,0.0007850369438529015,1.0,0.36980459094047546,0.9095238095238095
119,0.0007749791257083416,1.0,0.37020233273506165,0.9095238095238095
120,0.0007651472697034478,1.0,0.37059178948402405,0.9095238095238095
121,0.0007555140182375908,1.0,0.3709671199321747,0.9095238095238095
122,0.0007460983470082283,1.0,0.37136027216911316,0.9095238095238095
123,0.0007368671940639615,1.0,0.37175437808036804,0.9095238095238095
124,0.0007278213743120432,1.0,0.372159868478775,0.9095238095238095
125,0.0007189528550952673,1.0,0.3725617229938507,0.9095238095238095
126,0.0007102616946212947,1.0,0.3729515075683594,0.9095238095238095
127,0.0007017143652774394,1.0,0.37335047125816345,0.9095238095238095
128,0.0006933562108315527,1.0,0.3737391233444214,0.9095238095238095
129,0.0006851456710137427,1.0,0.37411803007125854,0.9095238095238095
130,0.0006770981126464903,1.0,0.37450096011161804,0.9095238095238095
131,0.0006691979942843318,1.0,0.37486910820007324,0.9095238095238095
132,0.0006614382145926356,1.0,0.37523162364959717,0.9095238095238095
133,0.0006538177258335054,1.0,0.37557658553123474,0.9095238095238095
134,0.0006463386816903949,1.0,0.3759353458881378,0.9095238095238095
135,0.000638993049506098,1.0,0.37628528475761414,0.9095238095238095
136,0.0006317770457826555,1.0,0.3766191005706787,0.9095238095238095
137,0.0006246751872822642,1.0,0.3769493103027344,0.9095238095238095
138,0.000617713900282979,1.0,0.3772829473018646,0.9095238095238095
139,0.0006108798552304506,1.0,0.3776061236858368,0.9095238095238095
140,0.0006041540764272213,1.0,0.3779255151748657,0.9095238095238095
141,0.000597558100707829,1.0,0.37824738025665283,0.9095238095238095
142,0.0005910690524615347,1.0,0.37857770919799805,0.9095238095238095
143,0.0005846741260029376,1.0,0.3789050281047821,0.9095238095238095
144,0.0005784029490314424,1.0,0.37922585010528564,0.9095238095238095
145,0.0005722400383092463,1.0,0.37954506278038025,0.9095238095238095
146,0.000566164031624794,1.0,0.3798539340496063,0.9095238095238095
147,0.0005601831362582743,1.0,0.3801685869693756,0.9095238095238095
148,0.0005543153965845704,1.0,0.3804999589920044,0.9095238095238095
149,0.0005485250148922205,1.0,0.3808298110961914,0.9095238095238095
150,0.0005428405711427331,1.0,0.38115373253822327,0.9095238095238095
151,0.0005372179439291358,1.0,0.38148078322410583,0.9095238095238095
152,0.0005317000905051827,1.0,0.3818260729312897,0.9095238095238095
153,0.0005262619233690202,1.0,0.38218867778778076,0.9095238095238095
154,0.000520913046784699,1.0,0.3825396001338959,0.9095238095238095
155,0.0005156308179721236,1.0,0.3828836977481842,0.9095238095238095
156,0.0005104438168928027,1.0,0.38321584463119507,0.9095238095238095
157,0.000505330681335181,1.0,0.3835235834121704,0.9095238095238095
158,0.0005002936813980341,1.0,0.3838362693786621,0.9095238095238095
159,0.0004953317111358047,1.0,0.3841223418712616,0.9095238095238095
160,0.0004904518718831241,1.0,0.3843950629234314,0.9095238095238095
161,0.0004856279701925814,1.0,0.3846743702888489,0.9095238095238095
162,0.00048088858602568507,1.0,0.3849453926086426,0.9095238095238095
163,0.00047622065176256,1.0,0.38521629571914673,0.9095238095238095
164,0.0004716276889666915,1.0,0.3854900896549225,0.9095238095238095
165,0.0004671025963034481,1.0,0.3857686519622803,0.9095238095238095
166,0.00046263463445939124,1.0,0.3860384225845337,0.9095238095238095
167,0.0004582393157761544,1.0,0.38631221652030945,0.9095238095238095
168,0.00045390112791210413,1.0,0.3865744173526764,0.9095238095238095
169,0.0004496260662563145,1.0,0.3868362605571747,0.9095238095238095
170,0.0004454223671928048,1.0,0.3870965242385864,0.9095238095238095
171,0.00044128901208750904,1.0,0.3873620629310608,0.9095238095238095
172,0.0004372067633084953,1.0,0.38761821389198303,0.9095238095238095
173,0.00043316982919350266,1.0,0.38787010312080383,0.9095238095238095
174,0.00042921266867779195,1.0,0.3881315588951111,0.9095238095238095
175,0.00042529357597231865,1.0,0.38839834928512573,0.9095238095238095
176,0.0004214435466565192,1.0,0.388662725687027,0.9095238095238095
177,0.00041763283661566675,1.0,0.3889272212982178,0.9095238095238095
178,0.00041388513636775315,1.0,0.3891957402229309,0.9095238095238095
179,0.0004101815866306424,1.0,0.38945505023002625,0.9095238095238095
180,0.00040654942858964205,1.0,0.389713317155838,0.9095238095238095
181,0.00040294701466336846,1.0,0.38996702432632446,0.9095238095238095
182,0.00039941249997355044,1.0,0.39020949602127075,0.9095238095238095
183,0.0003959090099669993,1.0,0.3904416561126709,0.9095238095238095
184,0.0003924542688764632,1.0,0.39067497849464417,0.9095238095238095
185,0.00038906268309801817,1.0,0.3909243643283844,0.9095238095238095
186,0.0003856889088638127,1.0,0.3911706507205963,0.9095238095238095
187,0.0003823830047622323,1.0,0.39142075181007385,0.9095238095238095
188,0.0003791176131926477,1.0,0.3916674852371216,0.9095238095238095
189,0.0003758986131288111,1.0,0.3919186294078827,0.9095238095238095
190,0.00037271660403348505,1.0,0.39217501878738403,0.9095238095238095
191,0.0003695762425195426,1.0,0.39243084192276,0.9095238095238095
192,0.0003664703981485218,1.0,0.392691045999527,0.9095238095238095
193,0.0003634181630332023,1.0,0.39294669032096863,0.9095238095238095
194,0.00036038970574736595,1.0,0.3931952118873596,0.9095238095238095
195,0.0003574137226678431,1.0,0.3934358060359955,0.9095238095238095
196,0.0003544710634741932,1.0,0.39368823170661926,0.9095238095238095
197,0.000351565278833732,1.0,0.39395254850387573,0.9095238095238095
198,0.00034869523369707167,1.0,0.3942098617553711,0.9095238095238095
199,0.00034586212132126093,1.0,0.39445433020591736,0.9095238095238095
200,0.0003430634969845414,1.0,0.39469602704048157,0.9095238095238095
201,0.00034030305687338114,1.0,0.3949449956417084,0.9095238095238095
202,0.00033757713390514255,1.0,0.3951937258243561,0.9095238095238095
203,0.000334882119204849,1.0,0.3954450786113739,0.9095238095238095
204,0.00033221571356989443,1.0,0.39569059014320374,0.9095238095238095
205,0.00032958746305666864,1.0,0.3959236145019531,0.9095238095238095
206,0.0003269877634011209,1.0,0.39616474509239197,0.9095238095238095
207,0.00032444167300127447,1.0,0.39640310406684875,0.9095238095238095
208,0.0003219122299924493,1.0,0.3966394066810608,0.9095238095238095
209,0.00031940898043103516,1.0,0.39688247442245483,0.9095238095238095
210,0.0003169391129631549,1.0,0.39712491631507874,0.9095238095238095
211,0.0003145049558952451,1.0,0.39736610651016235,0.9095238095238095
212,0.0003120827313978225,1.0,0.39760956168174744,0.9095238095238095
213,0.00030970931402407587,1.0,0.3978346288204193,0.9095238095238095
214,0.000307360925944522,1.0,0.39805689454078674,0.9095238095238095
215,0.00030503395828418434,1.0,0.3982822299003601,0.9095238095238095
216,0.0003027308266609907,1.0,0.3985169529914856,0.9095238095238095
217,0.0003004705940838903,1.0,0.3987542390823364,0.9095238095238095
218,0.0002982305595651269,1.0,0.39899030327796936,0.9095238095238095
219,0.0002960060373879969,1.0,0.3992246091365814,0.9095238095238095
220,0.00029381841886788607,1.0,0.399448424577713,0.9095238095238095
221,0.00029165821615606546,1.0,0.3996681272983551,0.9095238095238095
222,0.000289517076453194,1.0,0.39988866448402405,0.9095238095238095
223,0.00028740213019773364,1.0,0.40011268854141235,0.9095238095238095
224,0.0002853193727787584,1.0,0.40034765005111694,0.9095238095238095
225,0.00028324968297965825,1.0,0.40059036016464233,0.9095238095238095
226,0.00028121095965616405,1.0,0.40083232522010803,0.9095238095238095
227,0.0002791925217024982,1.0,0.40107405185699463,0.9095238095238095
228,0.00027718953788280487,1.0,0.40131527185440063,0.9095238095238095
229,0.0002752151631284505,1.0,0.40156471729278564,0.9095238095238095
230,0.00027325746486894786,1.0,0.40180858969688416,0.9095238095238095
231,0.00027133189723826945,1.0,0.4020298421382904,0.9095238095238095
232,0.0002694230352062732,1.0,0.4022563695907593,0.9095238095238095
233,0.00026753320707939565,1.0,0.4024864733219147,0.9095238095238095
234,0.0002656588621903211,1.0,0.4027150571346283,0.9095238095238095
235,0.0002638071891851723,1.0,0.4029398262500763,0.9095238095238095
236,0.00026198290288448334,1.0,0.40315648913383484,0.9095238095238095
237,0.00026017168420366943,1.0,0.4033851623535156,0.9095238095238095
238,0.0002583819441497326,1.0,0.40361669659614563,0.9095238095238095
239,0.0002566089096944779,1.0,0.40383872389793396,0.9095238095238095
240,0.00025485249352641404,1.0,0.4040662348270416,0.9095238095238095
241,0.00025312587968073785,1.0,0.4042886197566986,0.9095238095238095
242,0.00025140639627352357,1.0,0.4045146107673645,0.9095238095238095
243,0.00024970719823613763,1.0,0.404742032289505,0.9095238095238095
244,0.00024803419364616275,1.0,0.4049507677555084,0.9095238095238095
245,0.0002463707060087472,1.0,0.4051657021045685,0.9095238095238095
246,0.0002447203441988677,1.0,0.40537765622138977,0.9095238095238095
247,0.00024309498257935047,1.0,0.4055793285369873,0.9095238095238095
248,0.00024149584351107478,1.0,0.4057934880256653,0.9095238095238095
249,0.00023989907640498132,1.0,0.4060201942920685,0.9095238095238095
250,0.0002383309038123116,1.0,0.4062492251396179,0.9095238095238095
251,0.00023677106946706772,1.0,0.406471848487854,0.9095238095238095
252,0.00023522195988334715,1.0,0.4067111611366272,0.9095238095238095
253,0.00023369427071884274,1.0,0.4069432020187378,0.9095238095238095
254,0.00023218330170493573,1.0,0.4071803092956543,0.9095238095238095
255,0.00023067943402566016,1.0,0.40741756558418274,0.9095238095238095
256,0.0002291994314873591,1.0,0.40765735507011414,0.9095238095238095
257,0.00022773488308303058,1.0,0.40788617730140686,0.9095238095238095
258,0.00022628228180110455,1.0,0.408111572265625,0.9095238095238095
259,0.0002248403907287866,1.0,0.4083414375782013,0.9095238095238095
260,0.00022341278963722289,1.0,0.40858253836631775,0.9095238095238095
261,0.00022199949307832867,1.0,0.40883269906044006,0.9095238095238095
262,0.00022060405171941966,1.0,0.4090666174888611,0.9095238095238095
263,0.00021921812731307,1.0,0.40929022431373596,0.9095238095238095
264,0.00021784892305731773,1.0,0.4095018208026886,0.9095238095238095
265,0.00021649041445925832,1.0,0.4097151756286621,0.9095238095238095
266,0.00021514143736567348,1.0,0.40992429852485657,0.9095238095238095
267,0.0002138139243470505,1.0,0.41013553738594055,0.9095238095238095
268,0.00021248757548164576,1.0,0.410357266664505,0.9095238095238095
269,0.00021118151198606938,1.0,0.4105807840824127,0.9095238095238095
270,0.00020988733740523458,1.0,0.4108009934425354,0.9095238095238095
271,0.00020860269432887435,1.0,0.4110102653503418,0.9095238095238095
272,0.0002073347568511963,1.0,0.4112136662006378,0.9095238095238095
273,0.0002060787082882598,1.0,0.41141456365585327,0.9095238095238095
274,0.00020482864056248218,1.0,0.41162413358688354,0.9095238095238095
275,0.00020359284826554358,1.0,0.4118364155292511,0.9095238095238095
276,0.0002023701526923105,1.0,0.4120432138442993,0.9095238095238095
277,0.0002011522592511028,1.0,0.4122447371482849,0.9095238095238095
278,0.0001999522210098803,1.0,0.412454217672348,0.9095238095238095
279,0.00019876169972121716,1.0,0.41266393661499023,0.9095238095238095
280,0.0001975819031940773,1.0,0.41286855936050415,0.9095238095238095
281,0.00019640687969513237,1.0,0.41308093070983887,0.9095238095238095
282,0.0001952556922333315,1.0,0.41328829526901245,0.9095238095238095
283,0.00019410329696256667,1.0,0.41348886489868164,0.9095238095238095
284,0.00019296284881420434,1.0,0.41369205713272095,0.9095238095238095
285,0.00019183669064659625,1.0,0.4138946533203125,0.9095238095238095
286,0.00019071764836553484,1.0,0.4140913188457489,0.9095238095238095
287,0.00018960816669277847,1.0,0.41429808735847473,0.9095238095238095
288,0.00018850820197258145,1.0,0.41451141238212585,0.9095238095238095
289,0.00018741896201390773,1.0,0.4147128164768219,0.9095238095238095
290,0.00018633688159752637,1.0,0.4149080514907837,0.9095238095238095
291,0.00018526430358178914,1.0,0.4151034355163574,0.9095238095238095
292,0.00018420486594550312,1.0,0.41529226303100586,0.9095238095238095
293,0.00018316329806111753,1.0,0.41549375653266907,0.9095238095238095
294,0.0001821098121581599,1.0,0.41569846868515015,0.9095238095238095
295,0.00018108609947375953,1.0,0.4159058928489685,0.9095238095238095
296,0.00018005285528488457,1.0,0.4161004424095154,0.9095238095238095
297,0.00017904583364725113,1.0,0.4162991940975189,0.9095238095238095
298,0.00017804119852371514,1.0,0.41649115085601807,0.9095238095238095
299,0.00017704132187645882,1.0,0.4166853129863739,0.9095238095238095
300,0.000176055749761872,1.0,0.4168813228607178,0.9095238095238095
301,0.00017507135635241866,1.0,0.41706931591033936,0.9095238095238095
302,0.0001741000742185861,1.0,0.41725486516952515,0.9095238095238095
303,0.00017313953139819205,1.0,0.41743627190589905,0.9095238095238095
304,0.00017218373250216246,1.0,0.4176240563392639,0.9095238095238095
305,0.0001712291268631816,1.0,0.41780203580856323,0.9095238095238095
306,0.0001702959998510778,1.0,0.41798463463783264,0.9095238095238095
307,0.00016936044266913086,1.0,0.41817423701286316,0.9095238095238095
308,0.00016843683260958642,1.0,0.4183602035045624,0.9095238095238095
309,0.00016752273950260133,1.0,0.41854026913642883,0.9095238095238095
310,0.00016662178677506745,1.0,0.4187251925468445,0.9095238095238095
311,0.00016571722517255694,1.0,0.41889768838882446,0.9095238095238095
312,0.0001648233737796545,1.0,0.4190731644630432,0.9095238095238095
313,0.00016393788973800838,1.0,0.4192573130130768,0.9095238095238095
314,0.0001630583719816059,1.0,0.4194430112838745,0.9095238095238095
315,0.00016218956443481147,1.0,0.41961538791656494,0.9095238095238095
316,0.0001613326749065891,1.0,0.41978883743286133,0.9095238095238095
317,0.00016048054385464638,1.0,0.41995370388031006,0.9095238095238095
318,0.00015962723409757018,1.0,0.42012831568717957,0.9095238095238095
319,0.00015877748955972493,1.0,0.42030978202819824,0.9095238095238095
320,0.00015794920909684151,1.0,0.42049628496170044,0.9095238095238095
321,0.00015711018932051957,1.0,0.4206713140010834,0.9095238095238095
322,0.00015629976405762136,1.0,0.4208410680294037,0.9095238095238095
323,0.0001554798218421638,1.0,0.4210209548473358,0.9095238095238095
324,0.00015467178309336305,1.0,0.42120254039764404,0.9095238095238095
325,0.00015386135783046484,1.0,0.4213715195655823,0.9095238095238095
326,0.00015307239664252847,1.0,0.42154884338378906,0.9095238095238095
327,0.0001522846141597256,1.0,0.42173537611961365,0.9095238095238095
328,0.00015149444516282529,1.0,0.4219212234020233,0.9095238095238095
329,0.00015072217502165586,1.0,0.42210716009140015,0.9095238095238095
330,0.00014995463425293565,1.0,0.42228779196739197,0.9095238095238095
331,0.0001491871225880459,1.0,0.4224584102630615,0.9095238095238095
332,0.00014842674136161804,1.0,0.4226318895816803,0.9095238095238095
333,0.00014766876120120287,1.0,0.4228040277957916,0.9095238095238095
334,0.00014692029799334705,1.0,0.4229779839515686,0.9095238095238095
335,0.00014617899432778358,1.0,0.4231503903865814,0.9095238095238095
336,0.00014544365694746375,1.0,0.4233231544494629,0.9095238095238095
337,0.00014471306349150836,1.0,0.4234914779663086,0.9095238095238095
338,0.00014397890481632203,1.0,0.4236559271812439,0.9095238095238095
339,0.00014326977543532848,1.0,0.4238339960575104,0.9095238095238095
340,0.00014255827409215271,1.0,0.42401328682899475,0.9095238095238095
341,0.00014184317842591554,1.0,0.4241982698440552,0.9095238095238095
342,0.00014114356599748135,1.0,0.42437759041786194,0.9095238095238095
343,0.00014044278941582888,1.0,0.424547404050827,0.9095238095238095
344,0.0001397527230437845,1.0,0.42471662163734436,0.9095238095238095
345,0.00013906265667174011,1.0,0.42488813400268555,0.9095238095238095
346,0.00013838568702340126,1.0,0.4250621795654297,0.9095238095238095
347,0.00013770873192697763,1.0,0.4252379536628723,0.9095238095238095
348,0.0001370329555356875,1.0,0.4254121780395508,0.9095238095238095
349,0.00013637151278089732,1.0,0.42557546496391296,0.9095238095238095
350,0.00013570526789408177,1.0,0.4257383942604065,0.9095238095238095
351,0.00013505334209185094,1.0,0.4259065091609955,0.9095238095238095
352,0.0001344025949947536,1.0,0.4260672330856323,0.9095238095238095
353,0.00013375660637393594,1.0,0.42623090744018555,0.9095238095238095
354,0.00013311661314219236,1.0,0.42639365792274475,0.9095238095238095
355,0.00013247776951175183,1.0,0.42655760049819946,0.9095238095238095
356,0.00013184371346142143,1.0,0.4267219305038452,0.9095238095238095
357,0.00013121799565851688,1.0,0.4268866777420044,0.9095238095238095
358,0.00013060182391200215,1.0,0.4270630180835724,0.9095238095238095
359,0.00012997609155718237,1.0,0.4272420406341553,0.9095238095238095
360,0.00012936945131514221,1.0,0.42742323875427246,0.9095238095238095
361,0.0001287544728256762,1.0,0.42759692668914795,0.9095238095238095
362,0.00012815733498428017,1.0,0.42776229977607727,0.9095238095238095
363,0.00012755308125633746,1.0,0.42792776226997375,0.9095238095238095
364,0.00012696071644313633,1.0,0.4280988276004791,0.9095238095238095
365,0.0001263755257241428,1.0,0.4282722473144531,0.9095238095238095
366,0.00012578674068208784,1.0,0.4284380376338959,0.9095238095238095
367,0.00012520630843937397,1.0,0.42861053347587585,0.9095238095238095
368,0.00012462708400562406,1.0,0.4287792146205902,0.9095238095238095
369,0.0001240573765244335,1.0,0.42895010113716125,0.9095238095238095
370,0.0001234817027579993,1.0,0.4291200637817383,0.9095238095238095
371,0.00012291675375308841,1.0,0.42928436398506165,0.9095238095238095
372,0.00012235181930009276,1.0,0.42944571375846863,0.9095238095238095
373,0.00012180117482785136,1.0,0.4296044409275055,0.9095238095238095
374,0.00012124935165047646,1.0,0.4297598898410797,0.9095238095238095
375,0.00012070348020642996,1.0,0.42990294098854065,0.9095238095238095
376,0.0001201552149723284,1.0,0.430042028427124,0.9095238095238095
377,0.00011961173004237935,1.0,0.43018850684165955,0.9095238095238095
378,0.00011906823056051508,1.0,0.4303319454193115,0.9095238095238095
379,0.0001185330911539495,1.0,0.4304746091365814,0.9095238095238095
380,0.00011800746869994327,1.0,0.4306171238422394,0.9095238095238095
381,0.00011747947428375483,1.0,0.430766224861145,0.9095238095238095
382,0.00011695743887685239,1.0,0.43091344833374023,0.9095238095238095
383,0.00011643658945104107,1.0,0.4310571253299713,0.9095238095238095
384,0.00011592408554861322,1.0,0.43121641874313354,0.9095238095238095
385,0.00011540324339875951,1.0,0.43138426542282104,0.9095238095238095
386,0.00011489787721075118,1.0,0.4315473735332489,0.9095238095238095
387,0.00011439014633651823,1.0,0.43170401453971863,0.9095238095238095
388,0.00011389552673790604,1.0,0.43186384439468384,0.9095238095238095
389,0.00011339732009219006,1.0,0.4320252239704132,0.9095238095238095
390,0.00011289672693237662,1.0,0.43218931555747986,0.9095238095238095
391,0.00011240925232414156,1.0,0.43235862255096436,0.9095238095238095
392,0.0001119181833928451,1.0,0.43253082036972046,0.9095238095238095
393,0.00011143786832690239,1.0,0.432705283164978,0.9095238095238095
394,0.00011095158697571605,1.0,0.43288061022758484,0.9095238095238095
395,0.00011046409053960815,1.0,0.43305301666259766,0.9095238095238095
396,0.00010999687947332859,1.0,0.43322280049324036,0.9095238095238095
397,0.00010952608135994524,1.0,0.43338605761528015,0.9095238095238095
398,0.00010905768431257457,1.0,0.4335527718067169,0.9095238095238095
399,0.00010858211317099631,1.0,0.4337175786495209,0.9095238095238095
400,0.00010812203981913626,1.0,0.4338856339454651,0.9095238095238095
401,0.00010765959450509399,1.0,0.43404272198677063,0.9095238095238095
402,0.00010721024591475725,1.0,0.43420058488845825,0.9095238095238095
403,0.00010675137309590355,1.0,0.43435701727867126,0.9095238095238095
404,0.0001063008385244757,1.0,0.434516966342926,0.9095238095238095
405,0.00010585030395304784,1.0,0.4346837103366852,0.9095238095238095
406,0.00010540334187680855,1.0,0.4348328411579132,0.9095238095238095
407,0.00010497068433323875,1.0,0.4349828362464905,0.9095238095238095
408,0.00010452015703776851,1.0,0.4351334571838379,0.9095238095238095
409,0.00010409345850348473,1.0,0.435281902551651,0.9095238095238095
410,0.00010365364869358018,1.0,0.4354341924190521,0.9095238095238095
411,0.00010321621812181547,1.0,0.43559256196022034,0.9095238095238095
412,0.00010278712579747662,1.0,0.43576017022132874,0.9095238095238095
413,0.00010236520756734535,1.0,0.4359247386455536,0.9095238095238095
414,0.00010194208152825013,1.0,0.43607985973358154,0.9095238095238095
415,0.00010152252798434347,1.0,0.43623843789100647,0.9095238095238095
416,0.00010110894072568044,1.0,0.43638846278190613,0.9095238095238095
417,0.00010068701521959156,1.0,0.43652620911598206,0.9095238095238095
418,0.00010026745439972728,1.0,0.43665817379951477,0.9095238095238095
419,9.986220538849011e-05,1.0,0.43679115176200867,0.9095238095238095
420,9.945814963430166e-05,1.0,0.43692007660865784,0.9095238095238095
421,9.904933540383354e-05,1.0,0.4370448887348175,0.9095238095238095
422,9.865242464002222e-05,1.0,0.43717238306999207,0.9095238095238095
423,9.82447963906452e-05,1.0,0.43730080127716064,0.9095238095238095
424,9.78526659309864e-05,1.0,0.4374249577522278,0.9095238095238095
425,9.745694842422381e-05,1.0,0.43754181265830994,0.9095238095238095
426,9.706123819341883e-05,1.0,0.43766534328460693,0.9095238095238095
427,9.667623817222193e-05,1.0,0.4377981126308441,0.9095238095238095
428,9.628410043660551e-05,1.0,0.43793708086013794,0.9095238095238095
429,9.59015087573789e-05,1.0,0.43807467818260193,0.9095238095238095
430,9.550936374580488e-05,1.0,0.43821531534194946,0.9095238095238095
431,9.51303300098516e-05,1.0,0.43834957480430603,0.9095238095238095
432,9.47489170357585e-05,1.0,0.4384903609752655,0.9095238095238095
433,9.438180859433487e-05,1.0,0.4386255443096161,0.9095238095238095
434,9.400516864843667e-05,1.0,0.4387531280517578,0.9095238095238095
435,9.362971468362957e-05,1.0,0.4388919770717621,0.9095238095238095
436,9.326141298515722e-05,1.0,0.4390447437763214,0.9095238095238095
437,9.289907029597089e-05,1.0,0.4391990602016449,0.9095238095238095
438,9.25283893593587e-05,1.0,0.4393390417098999,0.9095238095238095
439,9.216603939421475e-05,1.0,0.43948209285736084,0.9095238095238095
440,9.180608321912587e-05,1.0,0.43962234258651733,0.9095238095238095
441,9.144491923507303e-05,1.0,0.439767450094223,0.9095238095238095
442,9.108615631703287e-05,1.0,0.43991225957870483,0.9095238095238095
443,9.07321518752724e-05,1.0,0.4400518238544464,0.9095238095238095
444,9.038292773766443e-05,1.0,0.4401891529560089,0.9095238095238095
445,9.003249579109251e-05,1.0,0.4403268098831177,0.9095238095238095
446,8.968446491053328e-05,1.0,0.4404621124267578,0.9095238095238095
447,8.933641947805882e-05,1.0,0.440612256526947,0.9095238095238095
448,8.899313979782164e-05,1.0,0.440762996673584,0.9095238095238095
449,8.864867413649336e-05,1.0,0.44090536236763,0.9095238095238095
450,8.830897422740236e-05,1.0,0.44104111194610596,0.9095238095238095
451,8.797404734650627e-05,1.0,0.4411705434322357,0.9095238095238095
452,8.763672667555511e-05,1.0,0.4413032829761505,0.9095238095238095
453,8.73017925187014e-05,1.0,0.4414381980895996,0.9095238095238095
454,8.696328586665913e-05,1.0,0.44157758355140686,0.9095238095238095
455,8.664266351843253e-05,1.0,0.44171109795570374,0.9095238095238095
456,8.630772936157882e-05,1.0,0.44184592366218567,0.9095238095238095
457,8.59918727655895e-05,1.0,0.44198375940322876,0.9095238095238095
458,8.56628903420642e-05,1.0,0.4421170651912689,0.9095238095238095
459,8.533510845154524e-05,1.0,0.44224050641059875,0.9095238095238095
460,8.501090633217245e-05,1.0,0.44236135482788086,0.9095238095238095
461,8.469862950732931e-05,1.0,0.44248464703559875,0.9095238095238095
462,8.437560609309003e-05,1.0,0.44261103868484497,0.9095238095238095
463,8.406212145928293e-05,1.0,0.4427446722984314,0.9095238095238095
464,8.375222387257963e-05,1.0,0.4428804814815521,0.9095238095238095
465,8.343875379068777e-05,1.0,0.4430133104324341,0.9095238095238095
466,8.312884892802685e-05,1.0,0.4431403875350952,0.9095238095238095
467,8.282608905574307e-05,1.0,0.4432704746723175,0.9095238095238095
468,8.25137976789847e-05,1.0,0.4434022307395935,0.9095238095238095
469,8.22098518256098e-05,1.0,0.4435391128063202,0.9095238095238095
470,8.191187953343615e-05,1.0,0.4436757564544678,0.9095238095238095
471,8.160793368006125e-05,1.0,0.44380873441696167,0.9095238095238095
472,8.130280184559524e-05,1.0,0.4439483880996704,0.9095238095238095
473,8.101313869701698e-05,1.0,0.44409704208374023,0.9095238095238095
474,8.07080214144662e-05,1.0,0.4442421495914459,0.9095238095238095
475,8.041837281780317e-05,1.0,0.4443851411342621,0.9095238095238095
476,8.012395846890286e-05,1.0,0.4445178806781769,0.9095238095238095
477,7.98367036622949e-05,1.0,0.4446460008621216,0.9095238095238095
478,7.954229658935219e-05,1.0,0.4447832405567169,0.9095238095238095
479,7.925742102088407e-05,1.0,0.44492995738983154,0.9095238095238095
480,7.896897295722738e-05,1.0,0.4450782239437103,0.9095238095238095
481,7.86864766268991e-05,1.0,0.4452156722545624,0.9095238095238095
482,7.840040780138224e-05,1.0,0.4453507959842682,0.9095238095238095
483,7.812030526110902e-05,1.0,0.4454821050167084,0.9095238095238095
484,7.784138870192692e-05,1.0,0.44561856985092163,0.9095238095238095
485,7.756009290460497e-05,1.0,0.44575926661491394,0.9095238095238095
486,7.729190110694617e-05,1.0,0.4459003210067749,0.9095238095238095
487,7.700702553847805e-05,1.0,0.44603797793388367,0.9095238095238095
488,7.67364472267218e-05,1.0,0.44617316126823425,0.9095238095238095
489,7.645634468644857e-05,1.0,0.4463025629520416,0.9095238095238095
490,7.61893461458385e-05,1.0,0.44642889499664307,0.9095238095238095
491,7.592234760522842e-05,1.0,0.4465509355068207,0.9095238095238095
492,7.564939005533233e-05,1.0,0.446676105260849,0.9095238095238095
493,7.538001227658242e-05,1.0,0.44681158661842346,0.9095238095238095
494,7.511898002121598e-05,1.0,0.44694089889526367,0.9095238095238095
495,7.485674723284319e-05,1.0,0.447076678276062,0.9095238095238095
496,7.459808693965897e-05,1.0,0.4472144544124603,0.9095238095238095
497,7.432751590386033e-05,1.0,0.4473530948162079,0.9095238095238095
498,7.407124212477356e-05,1.0,0.4474881589412689,0.9095238095238095
499,7.381259638350457e-05,1.0,0.44762641191482544,0.9095238095238095
500,7.355751586146653e-05,1.0,0.4477611184120178,0.9095238095238095
501,7.329648360610008e-05,1.0,0.4478927552700043,0.9095238095238095
502,7.304854807443917e-05,1.0,0.44802847504615784,0.9095238095238095
503,7.279824058059603e-05,1.0,0.44817420840263367,0.9095238095238095
504,7.25383943063207e-05,1.0,0.44831374287605286,0.9095238095238095
505,7.229523180285469e-05,1.0,0.44844865798950195,0.9095238095238095
506,7.204015128081664e-05,1.0,0.448578417301178,0.9095238095238095
507,7.179580279625952e-05,1.0,0.4487152397632599,0.9095238095238095
508,7.15419155312702e-05,1.0,0.4488554298877716,0.9095238095238095
509,7.129994628485292e-05,1.0,0.4489942193031311,0.9095238095238095
510,7.106274279067293e-05,1.0,0.4491209387779236,0.9095238095238095
511,7.081600779201835e-05,1.0,0.44924911856651306,0.9095238095238095
512,7.057642505969852e-05,1.0,0.44938576221466064,0.9095238095238095
513,7.033922884147614e-05,1.0,0.449515700340271,0.9095238095238095
514,7.009845285210758e-05,1.0,0.44965213537216187,0.9095238095238095
515,6.985291111050174e-05,1.0,0.4497814476490021,0.9095238095238095
516,6.96288188919425e-05,1.0,0.44990819692611694,0.9095238095238095
517,6.938922888366506e-05,1.0,0.45004087686538696,0.9095238095238095
518,6.91484528942965e-05,1.0,0.4501745402812958,0.9095238095238095
519,6.892316741868854e-05,1.0,0.4503082036972046,0.9095238095238095
520,6.86835846863687e-05,1.0,0.45043808221817017,0.9095238095238095
521,6.845234020147473e-05,1.0,0.45056888461112976,0.9095238095238095
522,6.822587602073327e-05,1.0,0.45070919394493103,0.9095238095238095
523,6.80005905451253e-05,1.0,0.45085418224334717,0.9095238095238095
524,6.777054659323767e-05,1.0,0.4509876072406769,0.9095238095238095
525,6.754764035576954e-05,1.0,0.4511096775531769,0.9095238095238095
526,6.732474139425904e-05,1.0,0.4512370824813843,0.9095238095238095
527,6.710065645165741e-05,1.0,0.45137327909469604,0.9095238095238095
528,6.68777574901469e-05,1.0,0.45151472091674805,0.9095238095238095
529,6.665366527158767e-05,1.0,0.4516490697860718,0.9095238095238095
530,6.643315282417461e-05,1.0,0.45176976919174194,0.9095238095238095
531,6.621740612899885e-05,1.0,0.4518935978412628,0.9095238095238095
532,6.599093467229977e-05,1.0,0.45202603936195374,0.9095238095238095
533,6.577756721526384e-05,1.0,0.452161580324173,0.9095238095238095
534,6.556420703418553e-05,1.0,0.45229360461235046,0.9095238095238095
535,6.535322609124705e-05,1.0,0.45242583751678467,0.9095238095238095
536,6.513390690088272e-05,1.0,0.4525555968284607,0.9095238095238095
537,6.492530519608408e-05,1.0,0.45268216729164124,0.9095238095238095
538,6.471194501500577e-05,1.0,0.45281240344047546,0.9095238095238095
539,6.449977809097618e-05,1.0,0.45294296741485596,0.9095238095238095
540,6.428760389098898e-05,1.0,0.4530665874481201,0.9095238095238095
541,6.408019544323906e-05,1.0,0.4531902074813843,0.9095238095238095
542,6.387756002368405e-05,1.0,0.45331671833992004,0.9095238095238095
543,6.366777961375192e-05,1.0,0.4534395933151245,0.9095238095238095
544,6.346633745124564e-05,1.0,0.453562468290329,0.9095238095238095
545,6.326369475573301e-05,1.0,0.45368412137031555,0.9095238095238095
546,6.305868009803817e-05,1.0,0.4538017511367798,0.9095238095238095
547,6.28536581643857e-05,1.0,0.4539192020893097,0.9095238095238095
548,6.265578849706799e-05,1.0,0.4540453553199768,0.9095238095238095
549,6.244958058232442e-05,1.0,0.45417097210884094,0.9095238095238095
550,6.225766992429271e-05,1.0,0.4542968273162842,0.9095238095238095
551,6.205622776178643e-05,1.0,0.45442649722099304,0.9095238095238095
552,6.185597885632887e-05,1.0,0.4545538127422333,0.9095238095238095
553,6.166406819829717e-05,1.0,0.45467856526374817,0.9095238095238095
554,6.146500527393073e-05,1.0,0.4548003375530243,0.9095238095238095
555,6.127071537775919e-05,1.0,0.4549209475517273,0.9095238095238095
556,6.107641820563003e-05,1.0,0.45504850149154663,0.9095238095238095
557,6.0874972405144945e-05,1.0,0.4551730751991272,0.9095238095238095
558,6.069617666071281e-05,1.0,0.4553004801273346,0.9095238095238095
559,6.0499500250443816e-05,1.0,0.4554290771484375,0.9095238095238095
560,6.0309976106509566e-05,1.0,0.455553263425827,0.9095238095238095
561,6.011806908645667e-05,1.0,0.45567813515663147,0.9095238095238095
562,5.993212107568979e-05,1.0,0.45580726861953735,0.9095238095238095
563,5.9743782912846655e-05,1.0,0.45593342185020447,0.9095238095238095
564,5.956260429229587e-05,1.0,0.45605307817459106,0.9095238095238095
565,5.9376656281528994e-05,1.0,0.45617353916168213,0.9095238095238095
566,5.9187132137594745e-05,1.0,0.45629850029945374,0.9095238095238095
567,5.90083327551838e-05,1.0,0.45642340183258057,0.9095238095238095
568,5.8821191487368196e-05,1.0,0.4565461575984955,0.9095238095238095
569,5.863523983862251e-05,1.0,0.45667189359664917,0.9095238095238095
570,5.84576373512391e-05,1.0,0.45679816603660583,0.9095238095238095
571,5.8277637435821816e-05,1.0,0.45692747831344604,0.9095238095238095
572,5.809884532936849e-05,1.0,0.4570523798465729,0.8936418887330528
573,5.79176630708389e-05,1.0,0.4571819305419922,0.8936418887330528
574,5.774244709755294e-05,1.0,0.45731043815612793,0.8936418887330528
575,5.756484097219072e-05,1.0,0.4574373960494995,0.8936418887330528
576,5.73872312088497e-05,1.0,0.45756179094314575,0.8936418887330528
577,5.721677734982222e-05,1.0,0.4576806426048279,0.8936418887330528
578,5.7039171224460006e-05,1.0,0.4578031003475189,0.8936418887330528
579,5.686275471816771e-05,1.0,0.45792409777641296,0.8936418887330528
580,5.670183600159362e-05,1.0,0.4580440819263458,0.8936418887330528
581,5.6523036619182676e-05,1.0,0.45816680788993835,0.8936418887330528
582,5.6353779655182734e-05,1.0,0.4582903981208801,0.8936418887330528
583,5.618213617708534e-05,1.0,0.45841899514198303,0.8936418887330528
584,5.6009292165981606e-05,1.0,0.4585481584072113,0.8936418887330528
585,5.584241807810031e-05,1.0,0.45867156982421875,0.8936418887330528
586,5.568149208556861e-05,1.0,0.4587875306606293,0.8936418887330528
587,5.551104186451994e-05,1.0,0.4589012861251831,0.8936418887330528
588,5.533939111046493e-05,1.0,0.4590146541595459,0.8936418887330528
589,5.517489626072347e-05,1.0,0.45912954211235046,0.8936418887330528
590,5.501279156305827e-05,1.0,0.45924535393714905,0.8936418887330528
591,5.4839951189933345e-05,1.0,0.45936134457588196,0.8936418887330528
592,5.467902883538045e-05,1.0,0.4594808518886566,0.8936418887330528
593,5.4524072766071185e-05,1.0,0.45959678292274475,0.8936418887330528
594,5.4365533287636936e-05,1.0,0.4597112238407135,0.8936418887330528
595,5.419270019046962e-05,1.0,0.45982155203819275,0.8936418887330528
596,5.403893010225147e-05,1.0,0.4599422216415405,0.8936418887330528
597,5.387920464272611e-05,1.0,0.4600721001625061,0.8936418887330528
598,5.371828592615202e-05,1.0,0.46020087599754333,0.8936418887330528
599,5.3562129323836416e-05,1.0,0.46032238006591797,0.8936418887330528
600,5.340717689250596e-05,1.0,0.4604369103908539,0.8936418887330528
601,5.324863741407171e-05,1.0,0.46055182814598083,0.8936418887330528
602,5.3092491725692526e-05,1.0,0.46066588163375854,0.8936418887330528
603,5.293872163747437e-05,1.0,0.4607781767845154,0.8936418887330528
604,5.2787334425374866e-05,1.0,0.4608931541442871,0.8936418887330528
605,5.262522245175205e-05,1.0,0.4610041081905365,0.8936418887330528
606,5.2471456001512706e-05,1.0,0.4611165225505829,0.8936418887330528
607,5.231769318925217e-05,1.0,0.4612269103527069,0.8936418887330528
608,5.216869249125011e-05,1.0,0.46133294701576233,0.8936418887330528
609,5.201730891712941e-05,1.0,0.46144136786460876,0.8936418887330528
610,5.1869497838197276e-05,1.0,0.4615568518638611,0.8936418887330528
611,5.1720493502216414e-05,1.0,0.4616621434688568,0.8936418887330528
612,5.157150371815078e-05,1.0,0.461761474609375,0.8936418887330528
613,5.1415347115835175e-05,1.0,0.4618662893772125,0.8936418887330528
614,5.127230906509794e-05,1.0,0.4619668424129486,0.8936418887330528
615,5.112808139529079e-05,1.0,0.4620664417743683,0.8936418887330528
616,5.097431130707264e-05,1.0,0.4621626138687134,0.8936418887330528
617,5.082888310425915e-05,1.0,0.46226462721824646,0.8936418887330528
618,5.0689424824668095e-05,1.0,0.46236857771873474,0.8936418887330528
619,5.053326822235249e-05,1.0,0.4624783992767334,0.8936418887330528
620,5.0394999561831355e-05,1.0,0.46258047223091125,0.8936418887330528
621,5.025076461606659e-05,1.0,0.46268150210380554,0.8936418887330528
622,5.010772292735055e-05,1.0,0.4627855718135834,0.8936418887330528
623,4.996707139071077e-05,1.0,0.4628920257091522,0.8936418887330528
624,4.982402970199473e-05,1.0,0.46300020813941956,0.8936418887330528
625,4.968575376551598e-05,1.0,0.4631064534187317,0.8936418887330528
626,4.954390897182748e-05,1.0,0.463214248418808,0.8936418887330528
627,4.9402060540160164e-05,1.0,0.4633255898952484,0.8936418887330528
628,4.92578255943954e-05,1.0,0.46343085169792175,0.8936418887330528
629,4.9124322686111555e-05,1.0,0.4635356366634369,0.8936418887330528
630,4.898724364466034e-05,1.0,0.46364811062812805,0.8936418887330528
631,4.884658847004175e-05,1.0,0.4637592136859894,0.8936418887330528
632,4.8711888666730374e-05,1.0,0.4638679325580597,0.8936418887330528
633,4.857600652030669e-05,1.0,0.4639784097671509,0.8936418887330528
634,4.84353477077093e-05,1.0,0.46408510208129883,0.8936418887330528
635,4.8301841161446646e-05,1.0,0.464192271232605,0.8936418887330528
636,4.817191438633017e-05,1.0,0.4643056392669678,0.8936418887330528
637,4.80372182209976e-05,1.0,0.4644147455692291,0.8936418887330528
638,4.7902518417686224e-05,1.0,0.4645189046859741,0.8936418887330528
639,4.776782225235365e-05,1.0,0.46461766958236694,0.8936418887330528
640,4.7634315706091e-05,1.0,0.46472448110580444,0.8936418887330528
641,4.75031956739258e-05,1.0,0.4648314416408539,0.8936418887330528
642,4.7370882384711877e-05,1.0,0.4649384617805481,0.8936418887330528
643,4.723976235254668e-05,1.0,0.4650398790836334,0.8936418887330528
644,4.7109835577430204e-05,1.0,0.4651385247707367,0.8936418887330528
645,4.6981102059362456e-05,1.0,0.4652429223060608,0.8936418887330528
646,4.685116800828837e-05,1.0,0.4653460681438446,0.8936418887330528
647,4.671885471907444e-05,1.0,0.46544963121414185,0.8936418887330528
648,4.659608021029271e-05,1.0,0.46554774045944214,0.8936418887330528
649,4.6464956540148705e-05,1.0,0.4656413197517395,0.8936418887330528
650,4.63386058981996e-05,1.0,0.4657372534275055,0.8936418887330528
651,4.620867548510432e-05,1.0,0.46583616733551025,0.8936418887330528
652,4.608947710948996e-05,1.0,0.4659416973590851,0.8936418887330528
653,4.595835707732476e-05,1.0,0.4660451412200928,0.8936418887330528
654,4.583677218761295e-05,1.0,0.4661400616168976,0.8936418887330528
655,4.570922828861512e-05,1.0,0.4662335216999054,0.8936418887330528
656,4.558406726573594e-05,1.0,0.4663345217704773,0.8936418887330528
657,4.5464861614163965e-05,1.0,0.46643751859664917,0.8936418887330528
658,4.5342087105382234e-05,1.0,0.46653661131858826,0.8936418887330528
659,4.521692608250305e-05,1.0,0.4666306972503662,0.8936418887330528
660,4.509414793574251e-05,1.0,0.4667230248451233,0.8936418887330528
661,4.4974945922149345e-05,1.0,0.46682044863700867,0.8936418887330528
662,4.485813042265363e-05,1.0,0.4669235944747925,0.8936418887330528
663,4.473773515201174e-05,1.0,0.46702849864959717,0.8936418887330528
664,4.461019125301391e-05,1.0,0.46713218092918396,0.8936418887330528
665,4.44886063633021e-05,1.0,0.46723777055740356,0.8936418887330528
666,4.4374177377903834e-05,1.0,0.4673434793949127,0.8936418887330528
667,4.4260930735617876e-05,1.0,0.4674539864063263,0.8936418887330528
668,4.414292561705224e-05,1.0,0.4675622582435608,0.8936418887330528
669,4.401776459417306e-05,1.0,0.4676595628261566,0.8936418887330528
670,4.3910480599151924e-05,1.0,0.46775445342063904,0.8936418887330528
671,4.378651283332147e-05,1.0,0.467853844165802,0.8936418887330528
672,4.367327346699312e-05,1.0,0.4679526388645172,0.8936418887330528
673,4.355526471044868e-05,1.0,0.46805769205093384,0.8936418887330528
674,4.34455978393089e-05,1.0,0.46815943717956543,0.8936418887330528
675,4.3327585444785655e-05,1.0,0.46825742721557617,0.8936418887330528
676,4.321434607845731e-05,1.0,0.4683580696582794,0.8936418887330528
677,4.309395080781542e-05,1.0,0.4684644341468811,0.8936418887330528
678,4.298428393667564e-05,1.0,0.4685664176940918,0.8936418887330528
679,4.288058335077949e-05,1.0,0.46867215633392334,0.8936418887330528
680,4.2756611946970224e-05,1.0,0.4687773883342743,0.8936418887330528
681,4.264813833287917e-05,1.0,0.46887457370758057,0.8936418887330528
682,4.25384750997182e-05,1.0,0.46897751092910767,0.8936418887330528
683,4.2425235733389854e-05,1.0,0.46908658742904663,0.8936418887330528
684,4.231437560520135e-05,1.0,0.4691890478134155,0.8936418887330528
685,4.2207091610180214e-05,1.0,0.4692869484424591,0.8936418887330528
686,4.2096235119970515e-05,1.0,0.4693770110607147,0.8936418887330528
687,4.19841890106909e-05,1.0,0.46947741508483887,0.8936418887330528
688,4.1872135625453666e-05,1.0,0.46957701444625854,0.8936418887330528
689,4.176366201136261e-05,1.0,0.4696688652038574,0.8936418887330528
690,4.165518839727156e-05,1.0,0.46976178884506226,0.8936418887330528
691,4.1546714783180505e-05,1.0,0.4698556661605835,0.8936418887330528
692,4.144181730225682e-05,1.0,0.46995359659194946,0.8936418887330528
693,4.1335726564284414e-05,1.0,0.4700431823730469,0.8936418887330528
694,4.1232025978388265e-05,1.0,0.4701261818408966,0.8936418887330528
695,4.1121169488178566e-05,1.0,0.4702140688896179,0.8936418887330528
696,4.101507147424854e-05,1.0,0.470306396484375,0.8936418887330528
697,4.0914947021519765e-05,1.0,0.4704030156135559,0.8936418887330528
698,4.080647340742871e-05,1.0,0.4704967737197876,0.8936418887330528
699,4.0707534935791045e-05,1.0,0.47059446573257446,0.8936418887330528
700,4.059548518853262e-05,1.0,0.47069457173347473,0.8936418887330528
701,4.0488201193511486e-05,1.0,0.47078773379325867,0.8936418887330528
702,4.039045961690135e-05,1.0,0.47087958455085754,0.8936418887330528
703,4.028794865007512e-05,1.0,0.4709753394126892,0.8936418887330528
704,4.018900654045865e-05,1.0,0.47107619047164917,0.8936418887330528
705,4.008530231658369e-05,1.0,0.47117963433265686,0.8936418887330528
706,3.9980401197681203e-05,1.0,0.47127029299736023,0.8936418887330528
707,3.98790834879037e-05,1.0,0.4713551104068756,0.8936418887330528
708,3.978133463533595e-05,1.0,0.47144439816474915,0.8936418887330528
709,3.968001328757964e-05,1.0,0.47154685854911804,0.8936418887330528
710,3.9575119444634765e-05,1.0,0.47164711356163025,0.8936418887330528
711,3.947498771594837e-05,1.0,0.4717389643192291,0.8936418887330528
712,3.937485598726198e-05,1.0,0.4718315899372101,0.8936418887330528
713,3.927830402972177e-05,1.0,0.471927672624588,0.8936418887330528
714,3.91841349483002e-05,1.0,0.472024530172348,0.8936418887330528
715,3.907565769623034e-05,1.0,0.47211953997612,0.8936418887330528
716,3.898745126207359e-05,1.0,0.4722078740596771,0.8936418887330528
717,3.889328218065202e-05,1.0,0.47229644656181335,0.8936418887330528
718,3.8790767575846985e-05,1.0,0.4723878800868988,0.8936418887330528
719,3.869301872327924e-05,1.0,0.4724839925765991,0.8936418887330528
720,3.860123615595512e-05,1.0,0.4725762903690338,0.8936418887330528
721,3.850110078928992e-05,1.0,0.47266578674316406,0.8936418887330528
722,3.840216595563106e-05,1.0,0.47276365756988525,0.8936418887330528
723,3.830919013125822e-05,1.0,0.4728643596172333,0.8936418887330528
724,3.82126345357392e-05,1.0,0.47295916080474854,0.8936418887330528
725,3.811488932115026e-05,1.0,0.47305044531822205,0.8936418887330528
726,3.802548599196598e-05,1.0,0.47314345836639404,0.8936418887330528
727,3.7932510167593136e-05,1.0,0.4732394218444824,0.8936418887330528
728,3.783714782912284e-05,1.0,0.47332891821861267,0.8936418887330528
729,3.774297874770127e-05,1.0,0.4734136164188385,0.8936418887330528
730,3.764761640923098e-05,1.0,0.4734943211078644,0.8936418887330528
731,3.75582130800467e-05,1.0,0.473583847284317,0.8936418887330528
732,3.74628507415764e-05,1.0,0.47367703914642334,0.8936418887330528
733,3.737941005965695e-05,1.0,0.4737689793109894,0.8936418887330528
734,3.729000673047267e-05,1.0,0.4738573431968689,0.8936418887330528
735,3.720298991538584e-05,1.0,0.4739442467689514,0.8936418887330528
736,3.7100475310580805e-05,1.0,0.47403639554977417,0.8936418887330528
737,3.7006306229159236e-05,1.0,0.47412967681884766,0.8936418887330528
738,3.692286190926097e-05,1.0,0.4742193818092346,0.8936418887330528
739,3.683584509417415e-05,1.0,0.47430720925331116,0.8936418887330528
740,3.673571700346656e-05,1.0,0.47439512610435486,0.8936418887330528
741,3.66522726835683e-05,1.0,0.4744814932346344,0.8936418887330528
742,3.657002525869757e-05,1.0,0.4745663106441498,0.8936418887330528
743,3.64710867870599e-05,1.0,0.4746552109718323,0.8936418887330528
744,3.638645284809172e-05,1.0,0.4747415781021118,0.8936418887330528
745,3.6295856261858717e-05,1.0,0.47483038902282715,0.8936418887330528
746,3.621360519900918e-05,1.0,0.4749230444431305,0.8936418887330528
747,3.611943975556642e-05,1.0,0.47501140832901,0.8936418887330528
748,3.603003278840333e-05,1.0,0.4750986397266388,0.8936418887330528
749,3.5948982258560136e-05,1.0,0.47518953680992126,0.8936418887330528
750,3.5861958167515695e-05,1.0,0.4752753973007202,0.8936418887330528
751,3.5776134609477594e-05,1.0,0.47535955905914307,0.8936418887330528
752,3.569150067050941e-05,1.0,0.47545045614242554,0.8936418887330528
753,3.5605673474492505e-05,1.0,0.47554686665534973,0.8936418887330528
754,3.551746340235695e-05,1.0,0.4756394028663635,0.8936418887330528
755,3.543282946338877e-05,1.0,0.4757286310195923,0.8936418887330528
756,3.5349388781469315e-05,1.0,0.47582224011421204,0.8936418887330528
757,3.5264751204522327e-05,1.0,0.47591230273246765,0.8936418887330528
758,3.518846642691642e-05,1.0,0.47600242495536804,0.8936418887330528
759,3.5094293707516044e-05,1.0,0.4760948717594147,0.8936418887330528
760,3.5008470149477944e-05,1.0,0.476186603307724,0.8936418887330528
761,3.492860196274705e-05,1.0,0.4762725234031677,0.8936418887330528
762,3.485112029011361e-05,1.0,0.47635722160339355,0.8936418887330528
763,3.476409983704798e-05,1.0,0.47644561529159546,0.8936418887330528
764,3.468542854534462e-05,1.0,0.4765389859676361,0.8936418887330528
765,3.4599597711348906e-05,1.0,0.4766291081905365,0.8936418887330528
766,3.4522119676694274e-05,1.0,0.4767160415649414,0.8936418887330528
767,3.4441061870893463e-05,1.0,0.4767976403236389,0.8936418887330528
768,3.4355234674876556e-05,1.0,0.4768844544887543,0.8936418887330528
769,3.428490163059905e-05,1.0,0.4769715666770935,0.8936418887330528
770,3.4196695196442306e-05,1.0,0.47705724835395813,0.8936418887330528
771,3.411444413359277e-05,1.0,0.4771449565887451,0.8936418887330528
772,3.4034579584840685e-05,1.0,0.47723281383514404,0.8936418887330528
773,3.395948078832589e-05,1.0,0.47732099890708923,0.8936418887330528
774,3.3879616239573807e-05,1.0,0.47740665078163147,0.8936418887330528
775,3.3803324186010286e-05,1.0,0.4774921238422394,0.8936418887330528
776,3.37234596372582e-05,1.0,0.4775824546813965,0.8936418887330528
777,3.3641208574408665e-05,1.0,0.47767171263694763,0.8936418887330528
778,3.3561340387677774e-05,1.0,0.477760910987854,0.8936418887330528
779,3.348862810526043e-05,1.0,0.47785016894340515,0.8936418887330528
780,3.341233968967572e-05,1.0,0.4779426157474518,0.8936418887330528
781,3.33312782458961e-05,1.0,0.4780385196208954,0.8936418887330528
782,3.325380021124147e-05,1.0,0.4781225621700287,0.8936418887330528
783,3.3175125281559303e-05,1.0,0.47820404171943665,0.8936418887330528
784,3.309645035187714e-05,1.0,0.47828710079193115,0.8936418887330528
785,3.3028503821697086e-05,1.0,0.47837433218955994,0.8936418887330528
786,3.294982889201492e-05,1.0,0.478454053401947,0.8936418887330528
787,3.2874730095500126e-05,1.0,0.4785338342189789,0.8936418887330528
788,3.2805593946250156e-05,1.0,0.47861671447753906,0.8936418887330528
789,3.2729301892686635e-05,1.0,0.4787044823169708,0.8936418887330528
790,3.2647054467815906e-05,1.0,0.4787878394126892,0.8936418887330528
791,3.25767214235384e-05,1.0,0.47886374592781067,0.8936418887330528
792,3.249685687478632e-05,1.0,0.47894155979156494,0.8936418887330528
793,3.242175807827152e-05,1.0,0.4790275990962982,0.8936418887330528
794,3.234904579585418e-05,1.0,0.4791134297847748,0.8936418887330528
795,3.2275136618409306e-05,1.0,0.4791966378688812,0.8936418887330528
796,3.220003782189451e-05,1.0,0.4792736768722534,0.8936418887330528
797,3.2133284548763186e-05,1.0,0.479349821805954,0.8936418887330528
798,3.2055806514108554e-05,1.0,0.4794347286224365,0.8936418887330528
799,3.198428021278232e-05,1.0,0.4795239269733429,0.8936418887330528
800,3.19127575494349e-05,1.0,0.47960928082466125,0.8936418887330528
801,3.184004526701756e-05,1.0,0.47968581318855286,0.8936418887330528
802,3.177090547978878e-05,1.0,0.4797675907611847,0.8936418887330528
803,3.169461706420407e-05,1.0,0.4798489212989807,0.8936418887330528
804,3.162547727697529e-05,1.0,0.47992804646492004,0.8936418887330528
805,3.155991726089269e-05,1.0,0.4800141751766205,0.8936418887330528
806,3.148601172142662e-05,1.0,0.48010244965553284,0.8936418887330528
807,3.141091292491183e-05,1.0,0.48018333315849304,0.8936418887330528
808,3.133819700451568e-05,1.0,0.48026278614997864,0.8936418887330528
809,3.127144373138435e-05,1.0,0.4803485870361328,0.8936418887330528
810,3.12082665914204e-05,1.0,0.48043617606163025,0.8936418887330528
811,3.113197453785688e-05,1.0,0.48051929473876953,0.8936418887330528
812,3.106164513155818e-05,1.0,0.48059892654418945,0.8936418887330528
813,3.0991312087280676e-05,1.0,0.480678915977478,0.8936418887330528
814,3.09269453282468e-05,1.0,0.4807628095149994,0.8936418887330528
815,3.085899879806675e-05,1.0,0.4808514416217804,0.8936418887330528
816,3.078509325860068e-05,1.0,0.4809328615665436,0.8936418887330528
817,3.0723105737706646e-05,1.0,0.4810103476047516,0.8936418887330528
818,3.064681732212193e-05,1.0,0.4810895323753357,0.8936418887330528
819,3.058244692510925e-05,1.0,0.4811716079711914,0.8936418887330528
820,3.0510922442772426e-05,1.0,0.4812518060207367,0.8936418887330528
821,3.0441786293522455e-05,1.0,0.48133566975593567,0.8936418887330528
822,3.0382183467736468e-05,1.0,0.4814114272594452,0.8936418887330528
823,3.0309469366329722e-05,1.0,0.48148810863494873,0.8936418887330528
824,3.0240331398090348e-05,1.0,0.48157262802124023,0.8936418887330528
825,3.0171195248840377e-05,1.0,0.4816613793373108,0.8936418887330528
826,3.0110399166005664e-05,1.0,0.4817456007003784,0.8936418887330528
827,3.004126119776629e-05,1.0,0.48182761669158936,0.8936418887330528
828,2.998046693392098e-05,1.0,0.48190993070602417,0.8936418887330528
829,2.9908944270573556e-05,1.0,0.4819895029067993,0.8936418887330528
830,2.98505365208257e-05,1.0,0.48206886649131775,0.8936418887330528
831,2.978139673359692e-05,1.0,0.4821561276912689,0.8936418887330528
832,2.971941103169229e-05,1.0,0.4822392165660858,0.8936418887330528
833,2.964669511129614e-05,1.0,0.4823158085346222,0.8936418887330528
834,2.9582326533272862e-05,1.0,0.4823903441429138,0.8936418887330528
835,2.952034083136823e-05,1.0,0.4824705719947815,0.8936418887330528
836,2.9448818168020807e-05,1.0,0.48255661129951477,0.8936418887330528
837,2.939517617051024e-05,1.0,0.4826396405696869,0.8936418887330528
838,2.9331999030546285e-05,1.0,0.4827185571193695,0.8936418887330528
839,2.9260478186188266e-05,1.0,0.48279815912246704,0.8936418887330528
840,2.9199682103353553e-05,1.0,0.48288482427597046,0.8936418887330528
841,2.9138887839508243e-05,1.0,0.4829746186733246,0.8936418887330528
842,2.9069748052279465e-05,1.0,0.48305544257164,0.8936418887330528
843,2.9013724997639656e-05,1.0,0.48313263058662415,0.8936418887330528
844,2.89457766484702e-05,1.0,0.4832112491130829,0.8936418887330528
845,2.8882599508506246e-05,1.0,0.4832918345928192,0.8936418887330528
846,2.882180706365034e-05,1.0,0.4833674430847168,0.8936418887330528
847,2.8759819542756304e-05,1.0,0.4834407567977905,0.8936418887330528
848,2.8691873012576252e-05,1.0,0.4835194945335388,0.8936418887330528
849,2.8635846319957636e-05,1.0,0.4836009740829468,0.8936418887330528
850,2.8573860618053004e-05,1.0,0.4836781620979309,0.8936418887330528
851,2.8513066354207695e-05,1.0,0.48374736309051514,0.8936418887330528
852,2.8459424356697127e-05,1.0,0.48382678627967834,0.8936418887330528
853,2.8393862521625124e-05,1.0,0.4839077591896057,0.8936418887330528
854,2.8324722734396346e-05,1.0,0.48398733139038086,0.8936418887330528
855,2.826631498464849e-05,1.0,0.484066903591156,0.8936418887330528
856,2.820790177793242e-05,1.0,0.48414579033851624,0.8936418887330528
857,2.8149494028184563e-05,1.0,0.48422035574913025,0.8936418887330528
858,2.8089891202398576e-05,1.0,0.4842977821826935,0.8936418887330528
859,2.8032673071720637e-05,1.0,0.48437580466270447,0.8936418887330528
860,2.7969497750746086e-05,1.0,0.48445409536361694,0.8936418887330528
861,2.791466067719739e-05,1.0,0.48453131318092346,0.8936418887330528
862,2.7851485356222838e-05,1.0,0.4846052825450897,0.8936418887330528
863,2.778830639726948e-05,1.0,0.4846831262111664,0.8936418887330528
864,2.7729893190553412e-05,1.0,0.4847566783428192,0.8936418887330528
865,2.767148362181615e-05,1.0,0.4848312735557556,0.8936418887330528
866,2.760949791991152e-05,1.0,0.4849102795124054,0.8936418887330528
867,2.7553473046282306e-05,1.0,0.48499220609664917,0.8936418887330528
868,2.7503405362949707e-05,1.0,0.48507335782051086,0.8936418887330528
869,2.7433074137661606e-05,1.0,0.4851517379283905,0.8936418887330528
870,2.737347131187562e-05,1.0,0.48523199558258057,0.8936418887330528
871,2.7326983399689198e-05,1.0,0.4853149950504303,0.8936418887330528
872,2.7261421564617194e-05,1.0,0.48539602756500244,0.8936418887330528
873,2.7210162443225272e-05,1.0,0.4854736328125,0.8936418887330528
874,2.7152946131536737e-05,1.0,0.485552042722702,0.8936418887330528
875,2.7099302315036766e-05,1.0,0.4856293797492981,0.8936418887330528
876,2.704208600334823e-05,1.0,0.4857076406478882,0.8936418887330528
877,2.698844218684826e-05,1.0,0.48578357696533203,0.8936418887330528
878,2.6931225875159726e-05,1.0,0.485863596200943,0.8936418887330528
879,2.6871621230384335e-05,1.0,0.48593825101852417,0.8936418887330528
880,2.6806061214301735e-05,1.0,0.486012727022171,0.8936418887330528
881,2.6758378226077184e-05,1.0,0.48609328269958496,0.8936418887330528
882,2.6699970476329327e-05,1.0,0.4861738979816437,0.8936418887330528
883,2.664274870767258e-05,1.0,0.48624828457832336,0.8936418887330528
884,2.659387610037811e-05,1.0,0.48632049560546875,0.8936418887330528
885,2.6533083655522205e-05,1.0,0.48639801144599915,0.8936418887330528
886,2.6481826353119686e-05,1.0,0.4864717721939087,0.8936418887330528
887,2.6425797841511667e-05,1.0,0.48654401302337646,0.8936418887330528
888,2.6374540539109148e-05,1.0,0.48661360144615173,0.8936418887330528
889,2.631493771332316e-05,1.0,0.4866863787174225,0.8936418887330528
890,2.626010427775327e-05,1.0,0.48676198720932007,0.8936418887330528
891,2.6206462280242704e-05,1.0,0.48683738708496094,0.8936418887330528
892,2.615639823488891e-05,1.0,0.48691368103027344,0.8936418887330528
893,2.609917828522157e-05,1.0,0.48698484897613525,0.8936418887330528
894,2.6037192583316937e-05,1.0,0.48705747723579407,0.8936418887330528
895,2.598712671897374e-05,1.0,0.4871310293674469,0.8936418887330528
896,2.5938252292689867e-05,1.0,0.48720335960388184,0.8936418887330528
897,2.5883418857119977e-05,1.0,0.487272709608078,0.8936418887330528
898,2.58345426118467e-05,1.0,0.4873453378677368,0.8936418887330528
899,2.5780900614336133e-05,1.0,0.4874197244644165,0.8936418887330528
900,2.572129960753955e-05,1.0,0.48749542236328125,0.8936418887330528
901,2.5668849048088305e-05,1.0,0.48757392168045044,0.8936418887330528
902,2.561878318374511e-05,1.0,0.4876483082771301,0.8936418887330528
903,2.5572293452569284e-05,1.0,0.48772329092025757,0.8936418887330528
904,2.552222940721549e-05,1.0,0.48779943585395813,0.8936418887330528
905,2.546620089560747e-05,1.0,0.48787519335746765,0.8936418887330528
906,2.5416135031264275e-05,1.0,0.48794981837272644,0.8936418887330528
907,2.5361301595694385e-05,1.0,0.4880218803882599,0.8936418887330528
908,2.530527490307577e-05,1.0,0.4880965054035187,0.8936418887330528
909,2.5256400476791896e-05,1.0,0.48817479610443115,0.8936418887330528
910,2.5208717488567345e-05,1.0,0.48825088143348694,0.8936418887330528
911,2.515507731004618e-05,1.0,0.4883247911930084,0.8936418887330528
912,2.510381818865426e-05,1.0,0.4883960485458374,0.8936418887330528
913,2.5053752324311063e-05,1.0,0.4884709119796753,0.8936418887330528
914,2.4997725631692447e-05,1.0,0.4885394275188446,0.8936418887330528
915,2.495600529073272e-05,1.0,0.4886110723018646,0.8936418887330528
916,2.49047479883302e-05,1.0,0.4886845648288727,0.8936418887330528
917,2.4849910914781503e-05,1.0,0.4887576997280121,0.8936418887330528
918,2.4804616259643808e-05,1.0,0.4888288080692291,0.8936418887330528
919,2.4750972443143837e-05,1.0,0.48890167474746704,0.8936418887330528
920,2.470686740707606e-05,1.0,0.4889724552631378,0.8936418887330528
921,2.4655610104673542e-05,1.0,0.4890414774417877,0.8936418887330528
922,2.4604349164292216e-05,1.0,0.48910799622535706,0.8936418887330528
923,2.4548324290663004e-05,1.0,0.4891766309738159,0.8936418887330528
924,2.4504219254595228e-05,1.0,0.4892524182796478,0.8936418887330528
925,2.4455344828311354e-05,1.0,0.4893239140510559,0.8936418887330528
926,2.4400511392741464e-05,1.0,0.48939383029937744,0.8936418887330528
927,2.4357595975743607e-05,1.0,0.4894648492336273,0.8936418887330528
928,2.430753011140041e-05,1.0,0.48953792452812195,0.8936418887330528
929,2.426342325634323e-05,1.0,0.48961442708969116,0.8936418887330528
930,2.4212167772930115e-05,1.0,0.4896917939186096,0.8936418887330528
931,2.416090683254879e-05,1.0,0.48976048827171326,0.8936418887330528
932,2.412157118669711e-05,1.0,0.48982763290405273,0.8936418887330528
933,2.4070310246315785e-05,1.0,0.4898999035358429,0.8936418887330528
934,2.4016668248805217e-05,1.0,0.48997586965560913,0.8936418887330528
935,2.3966604203451425e-05,1.0,0.49005362391471863,0.8936418887330528
936,2.392726491962094e-05,1.0,0.4901241064071655,0.8936418887330528
937,2.3873624741099775e-05,1.0,0.49018731713294983,0.8936418887330528
938,2.3829517886042595e-05,1.0,0.4902518391609192,0.8936418887330528
939,2.3779450202709995e-05,1.0,0.4903249144554138,0.8936418887330528
940,2.3738923118798994e-05,1.0,0.49040067195892334,0.8936418887330528
941,2.369243338762317e-05,1.0,0.4904720187187195,0.8936418887330528
942,2.364355714234989e-05,1.0,0.4905402660369873,0.8936418887330528
943,2.3604221496498212e-05,1.0,0.4906141459941864,0.8936418887330528
944,2.3552960556116886e-05,1.0,0.49069297313690186,0.8936418887330528
945,2.350527938688174e-05,1.0,0.4907638132572174,0.8936418887330528
946,2.345998291275464e-05,1.0,0.4908354878425598,0.8936418887330528
947,2.3412298105540685e-05,1.0,0.4909061789512634,0.8936418887330528
948,2.3365812012343667e-05,1.0,0.4909761846065521,0.8936418887330528
949,2.3318129024119116e-05,1.0,0.4910466969013214,0.8936418887330528
950,2.3278791559278034e-05,1.0,0.4911125898361206,0.8936418887330528
951,2.3228723875945434e-05,1.0,0.4911747872829437,0.8936418887330528
952,2.318938641110435e-05,1.0,0.49123889207839966,0.8936418887330528
953,2.3142896679928526e-05,1.0,0.49130699038505554,0.8936418887330528
954,2.3096405129763298e-05,1.0,0.4913801848888397,0.8936418887330528
955,2.304872396052815e-05,1.0,0.4914509057998657,0.8936418887330528
956,2.3003425667411648e-05,1.0,0.4915156066417694,0.8936418887330528
957,2.2965279640629888e-05,1.0,0.49158206582069397,0.8936418887330528
958,2.2916407033335418e-05,1.0,0.4916544258594513,0.8936418887330528
959,2.286753078806214e-05,1.0,0.4917289614677429,0.8936418887330528
960,2.2829388399259187e-05,1.0,0.491800457239151,0.8936418887330528
961,2.2787666239310056e-05,1.0,0.4918725788593292,0.8936418887330528
962,2.273760037496686e-05,1.0,0.4919481575489044,0.8936418887330528
963,2.2692302081850357e-05,1.0,0.49202048778533936,0.8936418887330528
964,2.265296279801987e-05,1.0,0.49208709597587585,0.8936418887330528
965,2.261720146634616e-05,1.0,0.4921528398990631,0.8936418887330528
966,2.2564750906894915e-05,1.0,0.4922264814376831,0.8936418887330528
967,2.2523030565935187e-05,1.0,0.49229612946510315,0.8936418887330528
968,2.248011514893733e-05,1.0,0.49236318469047546,0.8936418887330528
969,2.2436011931858957e-05,1.0,0.4924286901950836,0.8936418887330528
970,2.2389520381693728e-05,1.0,0.4924992322921753,0.8936418887330528
971,2.2350181097863242e-05,1.0,0.4925658404827118,0.8936418887330528
972,2.2302499928628094e-05,1.0,0.4926251769065857,0.8936418887330528
973,2.2266738596954383e-05,1.0,0.4926913380622864,0.8936418887330528
974,2.2222631741897203e-05,1.0,0.4927583932876587,0.8936418887330528
975,2.2177331629791297e-05,1.0,0.49282729625701904,0.8936418887330528
976,2.2137995983939618e-05,1.0,0.49289819598197937,0.8936418887330528
977,2.209627564297989e-05,1.0,0.49296683073043823,0.8936418887330528
978,2.2053360225982033e-05,1.0,0.4930340349674225,0.8936418887330528
979,2.200567723775748e-05,1.0,0.4930998980998993,0.8936418887330528
980,2.1972302420181222e-05,1.0,0.4931719899177551,0.8936418887330528
981,2.19210432987893e-05,1.0,0.49324390292167664,0.8936418887330528
982,2.189481892855838e-05,1.0,0.49331289529800415,0.8936418887330528
983,2.1847134121344425e-05,1.0,0.49338504672050476,0.8936418887330528
984,2.1798261514049955e-05,1.0,0.4934590756893158,0.8936418887330528
985,2.1763689801446162e-05,1.0,0.4935266673564911,0.8936418887330528
986,2.1719584765378386e-05,1.0,0.4935946464538574,0.8936418887330528
987,2.1680249119526707e-05,1.0,0.4936623275279999,0.8936418887330528
988,2.163733370252885e-05,1.0,0.49373680353164673,0.8936418887330528
989,2.1594418285530992e-05,1.0,0.49381205439567566,0.8936418887330528
990,2.155508082068991e-05,1.0,0.49388396739959717,0.8936418887330528
991,2.1515743355848826e-05,1.0,0.4939536154270172,0.8936418887330528
992,2.1474021195899695e-05,1.0,0.49402692914009094,0.8936418887330528
993,2.1438259864225984e-05,1.0,0.494093656539917,0.8936418887330528
994,2.1406076484709047e-05,1.0,0.49416449666023254,0.8936418887330528
995,2.134766327799298e-05,1.0,0.4942343831062317,0.8936418887330528
996,2.1321437088772655e-05,1.0,0.4943031072616577,0.8936418887330528
997,2.127614243363496e-05,1.0,0.49436941742897034,0.8936418887330528
998,2.123561171174515e-05,1.0,0.49443620443344116,0.8936418887330528
999,2.1202233256190084e-05,1.0,0.49450719356536865,0.8936418887330528
