,loss,recall,val_loss,val_recall
0,0.5915945768356323,0.6547444618873189,0.5792425870895386,0.4622023809523809
1,0.5080839395523071,0.6193812140240712,0.4682762920856476,0.7831763474620617
2,0.41318342089653015,0.7987528344671201,0.4213300347328186,0.8086734693877551
3,0.3515934944152832,0.862981066552495,0.385530948638916,0.8566893424036282
4,0.3235876262187958,0.8488636363636363,0.36803433299064636,0.867511853226139
5,0.3222205936908722,0.843073593073593,0.35367918014526367,0.8515873015873016
6,0.3301277756690979,0.7843176664605236,0.35398799180984497,0.8269557823129252
7,0.26526299118995667,0.8877499484642343,0.3517901301383972,0.8661100803957947
8,0.26284077763557434,0.8760152545866832,0.33778977394104004,0.8553004535147393
9,0.2671714425086975,0.8416666666666666,0.3204123079776764,0.8664399092970522
10,0.2574283182621002,0.8718820861678005,0.32572218775749207,0.8636904761904762
11,0.23158232867717743,0.8715367965367965,0.3105145990848541,0.8708333333333333
12,0.21021172404289246,0.8876623376623376,0.3017282485961914,0.8708333333333333
13,0.22487960755825043,0.8743567939996513,0.325236976146698,0.8755952380952381
14,0.21337270736694336,0.8852813852813853,0.45545512437820435,0.8598068598068599
15,0.20114710927009583,0.9005875077303649,0.41924354434013367,0.8267857142857142
16,0.18423619866371155,0.9257369614512473,0.3348402976989746,0.8493480725623582
17,0.1997377872467041,0.8962585034013605,0.30713677406311035,0.8908008658008658
18,0.149285227060318,0.9387445887445888,0.3117671012878418,0.8577380952380952
19,0.14901317656040192,0.9316017316017315,0.3241494596004486,0.8911358482787054
20,0.19933483004570007,0.9099947671376242,0.33429840207099915,0.8612528344671201
21,0.14519846439361572,0.9458874458874459,0.7876662015914917,0.6230442176870747
22,0.20665612816810608,0.9136904761904762,0.30551740527153015,0.8708333333333333
23,0.1766131967306137,0.8921459492888063,0.5386301875114441,0.8122861265718407
24,0.16504621505737305,0.8952380952380953,0.5648984909057617,0.7797782574568288
25,0.1395152509212494,0.9367346938775512,0.30298885703086853,0.8431122448979592
26,0.13432109355926514,0.9261904761904762,0.40998512506484985,0.878968253968254
27,0.17427322268486023,0.9095238095238095,0.28818270564079285,0.8803133374561946
28,0.11866090446710587,0.9571428571428572,0.3771437108516693,0.8803854875283447
29,0.11854089796543121,0.9336734693877551,0.5161712169647217,0.7984238975310404
30,0.11780150979757309,0.9438775510204083,0.5800394415855408,0.7289527932385075
31,0.09928398579359055,0.9577922077922078,0.34649139642715454,0.9004329004329004
32,0.11112659424543381,0.9577922077922079,0.3194305896759033,0.860969387755102
33,0.0873507484793663,0.9571428571428572,0.29408177733421326,0.8827380952380952
34,0.06720352917909622,0.9696969696969697,0.2927819788455963,0.8886904761904761
35,0.07457059621810913,1.0,0.2893697917461395,0.8772108843537415
36,0.08818236738443375,0.9642857142857143,0.3603500425815582,0.8922077922077923
37,0.08199620246887207,0.9571428571428572,0.40312570333480835,0.8789115646258504
38,0.09667657315731049,0.9642857142857143,0.8373650312423706,0.6802459445316588
39,0.08665122091770172,0.9492888064316636,0.7078467607498169,0.7928571428571428
40,0.05232498422265053,0.9761904761904762,0.3147580027580261,0.8891156462585034
41,0.055335335433483124,0.9761904761904762,0.3047967553138733,0.9132034632034632
42,0.04580334946513176,0.9761904761904762,0.30532678961753845,0.8743480725623582
43,0.035172317177057266,0.9761904761904762,0.30223187804222107,0.8930839002267573
44,0.03533131629228592,1.0,0.3109092116355896,0.9039064110492683
45,0.03231886029243469,1.0,0.3094930648803711,0.8891156462585034
46,0.02032897248864174,1.0,0.4202885627746582,0.8922077922077923
47,0.02457260712981224,1.0,0.3363568186759949,0.8976190476190476
48,0.0220625102519989,1.0,0.344820111989975,0.9039064110492683
49,0.01755583845078945,1.0,0.34479910135269165,0.9039064110492683
50,0.01698649860918522,1.0,0.35531169176101685,0.9039064110492683
51,0.014190956950187683,1.0,0.33318886160850525,0.9084415584415585
52,0.014218508265912533,1.0,0.467048704624176,0.8871057513914656
53,0.013174186460673809,1.0,0.35481783747673035,0.9023809523809524
54,0.01295207254588604,1.0,0.43525490164756775,0.8922077922077923
55,0.014162363484501839,1.0,0.3408873975276947,0.9084415584415585
56,0.013314350508153439,1.0,0.40696921944618225,0.8950319521748094
57,0.015794090926647186,1.0,0.3575437664985657,0.9143939393939393
58,0.011138292960822582,1.0,0.35353508591651917,0.9084415584415585
59,0.009954378008842468,1.0,0.5797470808029175,0.8931913324770469
60,0.008630315773189068,1.0,0.37079358100891113,0.9023809523809524
61,0.008455855771899223,1.0,0.5373697876930237,0.8699229342086484
62,0.006034099031239748,1.0,0.3598831593990326,0.9084415584415585
63,0.005259397439658642,1.0,0.3670572340488434,0.9084415584415585
64,0.005699876695871353,1.0,0.48586925864219666,0.8871057513914656
65,0.005949105601757765,1.0,0.3980712294578552,0.9143939393939393
66,0.004930652212351561,1.0,0.41056016087532043,0.9143939393939393
67,0.004729398526251316,1.0,0.38391679525375366,0.9084415584415585
68,0.003760232124477625,1.0,0.39909490942955017,0.9143939393939393
69,0.003964900504797697,1.0,0.39734402298927307,0.9084415584415585
70,0.004257398657500744,1.0,0.41940218210220337,0.9143939393939393
71,0.0035134325735270977,1.0,0.4185294508934021,0.9143939393939393
72,0.003718398977071047,1.0,0.4316452145576477,0.9143939393939393
73,0.0041346256621181965,1.0,0.40238305926322937,0.9084415584415585
74,0.0032068868167698383,1.0,0.4452371895313263,0.9043290043290043
75,0.003270538058131933,1.0,0.4172629415988922,0.9143939393939393
76,0.002793811494484544,1.0,0.4353328347206116,0.9143939393939393
77,0.0036338672507554293,1.0,0.4300478398799896,0.9220470006184291
78,0.0032326574437320232,1.0,0.43477633595466614,0.9143939393939393
79,0.0029320050962269306,1.0,0.4171697795391083,0.9143939393939393
80,0.002934390911832452,1.0,0.40539994835853577,0.9084415584415585
81,0.0035330895334482193,1.0,0.6689136624336243,0.8931913324770469
82,0.005684249103069305,1.0,0.5966439247131348,0.8565759637188208
83,0.012482925318181515,1.0,0.5387884378433228,0.8838589981447124
84,0.010185503400862217,1.0,0.41721200942993164,0.8924886621315192
85,0.024399736896157265,0.9761904761904762,0.6284905672073364,0.8367604617604617
86,0.05251738056540489,0.9696969696969697,0.39855560660362244,0.8911358482787054
87,0.05525469779968262,0.9928571428571429,0.38703998923301697,0.8857142857142858
88,0.08477438986301422,0.9589285714285715,2.0076935291290283,0.46190476190476193
89,0.06987621635198593,1.0,0.7366867661476135,0.7837868480725624
90,0.06996095925569534,0.9642857142857143,0.4068048298358917,0.8922619047619047
91,0.06946440786123276,0.9761904761904762,1.2816829681396484,0.6129251700680272
92,0.049161944538354874,0.9761904761904762,0.8734316229820251,0.6933108558108557
93,0.04157552123069763,1.0,0.38328617811203003,0.9008658008658008
94,0.04109331592917442,1.0,0.6857866048812866,0.7864873222016079
95,0.014824675396084785,1.0,0.34166771173477173,0.8892290249433107
96,0.013296413235366344,1.0,0.7546136975288391,0.8406759906759907
97,0.014674121513962746,1.0,0.3967990279197693,0.871201814058957
98,0.006463244557380676,1.0,0.36589106917381287,0.8976190476190476
99,0.0064057642593979836,1.0,0.4807146489620209,0.8906093906093907
100,0.0045301527716219425,1.0,0.4001303017139435,0.9084415584415585
101,0.0037534129805862904,1.0,0.40486136078834534,0.9084415584415585
102,0.003045543795451522,1.0,0.4500981271266937,0.9132034632034632
103,0.0024470356293022633,1.0,0.4475204050540924,0.9132034632034632
104,0.0018888077465817332,1.0,0.43185338377952576,0.9084415584415585
105,0.002354071009904146,1.0,0.4612371027469635,0.9132034632034632
106,0.0026041013188660145,1.0,0.46962636709213257,0.9132034632034632
107,0.002097443211823702,1.0,0.4464132487773895,0.9084415584415585
108,0.0016310432692989707,1.0,0.4613783657550812,0.9132034632034632
109,0.001823913655243814,1.0,0.47497987747192383,0.9132034632034632
110,0.0019229224417358637,1.0,0.48893263936042786,0.9049783549783549
111,0.0015576715813949704,1.0,0.480300635099411,0.9049783549783549
112,0.0014645318733528256,1.0,0.4764106869697571,0.9049783549783549
113,0.0020173084922134876,1.0,0.4768695533275604,0.9143939393939393
114,0.0013470950070768595,1.0,0.4669618308544159,0.9084415584415585
115,0.0013322298182174563,1.0,0.46972188353538513,0.9084415584415585
116,0.0017607257468625903,1.0,0.5141283273696899,0.9049783549783549
117,0.001250781468115747,1.0,0.5438958406448364,0.8961038961038962
118,0.00144791544880718,1.0,0.47965094447135925,0.9143939393939393
119,0.0014562616124749184,1.0,0.46245649456977844,0.9084415584415585
120,0.001281952136196196,1.0,0.4739660322666168,0.9084415584415585
121,0.0010351731907576323,1.0,0.5006961822509766,0.9143939393939393
122,0.0010631763143464923,1.0,0.5085846781730652,0.9049783549783549
123,0.0008997643599286675,1.0,0.49524354934692383,0.9049783549783549
124,0.001124039525166154,1.0,0.4973192512989044,0.9049783549783549
125,0.000982901663519442,1.0,0.48018768429756165,0.9084415584415585
126,0.0008462098776362836,1.0,0.48801296949386597,0.9084415584415585
127,0.0008627500501461327,1.0,0.5048040747642517,0.9039064110492683
128,0.000806812138762325,1.0,0.5128515362739563,0.8941558441558443
129,0.0008068528259173036,1.0,0.5088368654251099,0.9039064110492683
130,0.000853939913213253,1.0,0.4899735748767853,0.9084415584415585
131,0.0009664887329563498,1.0,0.49706482887268066,0.9039064110492683
132,0.0007202295237220824,1.0,0.5004962086677551,0.9039064110492683
133,0.0007167580188252032,1.0,0.4911773204803467,0.9039064110492683
134,0.0008560276473872364,1.0,0.4956076443195343,0.9143939393939393
135,0.0007248845067806542,1.0,0.5131579637527466,0.9039064110492683
136,0.0008541365386918187,1.0,0.5141829252243042,0.9039064110492683
137,0.0005940035916864872,1.0,0.5236429572105408,0.8941558441558443
138,0.0007454847218468785,1.0,0.5130658745765686,0.9039064110492683
139,0.000790287449490279,1.0,0.49914172291755676,0.9039064110492683
140,0.0007318849093280733,1.0,0.49067801237106323,0.9084415584415585
141,0.0006269793957471848,1.0,0.5002968311309814,0.9084415584415585
142,0.0006580219487659633,1.0,0.5271373391151428,0.9049783549783549
143,0.0006634587771259248,1.0,0.5387670397758484,0.8961038961038962
144,0.0006013461970724165,1.0,0.5222683548927307,0.9049783549783549
145,0.0005312165012583137,1.0,0.5047489404678345,0.8965367965367965
146,0.0005763543886132538,1.0,0.5048540830612183,0.8965367965367965
147,0.0005747511750087142,1.0,0.5098156332969666,0.9039064110492683
148,0.0005765474052168429,1.0,0.5158955454826355,0.8941558441558443
149,0.0006112689152359962,1.0,0.5093802809715271,0.9039064110492683
150,0.0008541631395928562,1.0,0.4981369972229004,0.8965367965367965
151,0.0006521887262351811,1.0,0.4916262924671173,0.9084415584415585
152,0.000642946979496628,1.0,0.545443594455719,0.9049783549783549
153,0.0005685276119038463,1.0,0.56917405128479,0.8961038961038962
154,0.0006102321785874665,1.0,0.5161350965499878,0.9039064110492683
155,0.0005839258665218949,1.0,0.508330225944519,0.9084415584415585
156,0.0005994756356813014,1.0,0.5173827409744263,0.9039064110492683
157,0.0005571293295361102,1.0,0.5236856341362,0.9039064110492683
158,0.0006499026785604656,1.0,0.5224125385284424,0.9039064110492683
159,0.0005553768132813275,1.0,0.5096436142921448,0.8965367965367965
160,0.0004664491571020335,1.0,0.519561231136322,0.8965367965367965
161,0.00048657829756848514,1.0,0.5342445969581604,0.9039064110492683
162,0.0005064151482656598,1.0,0.5411331057548523,0.9049783549783549
163,0.0004582185938488692,1.0,0.5334404706954956,0.9039064110492683
164,0.0005010025925002992,1.0,0.5319247841835022,0.9039064110492683
165,0.0004614171921275556,1.0,0.5382301211357117,0.9039064110492683
166,0.000694957678206265,1.0,0.5148941874504089,0.8965367965367965
167,0.0004768854414578527,1.0,0.5085011124610901,0.8965367965367965
168,0.000539718137588352,1.0,0.5487436652183533,0.8961038961038962
169,0.0005276869051158428,1.0,0.5642312169075012,0.8961038961038962
170,0.00048170541413128376,1.0,0.5534977316856384,0.8961038961038962
171,0.00045345231774263084,1.0,0.5213379859924316,0.8965367965367965
172,0.0005247359513305128,1.0,0.5215619802474976,0.8965367965367965
173,0.00043831943185068667,1.0,0.5347024202346802,0.9039064110492683
174,0.0003671437152661383,1.0,0.5306922197341919,0.9039064110492683
175,0.0004694925155490637,1.0,0.5386804342269897,0.8950319521748094
176,0.000361763610271737,1.0,0.5464161038398743,0.8852813852813853
177,0.00041129914461635053,1.0,0.5409497022628784,0.8941558441558443
178,0.00047979122609831393,1.0,0.5372781157493591,0.9039064110492683
179,0.000464306038338691,1.0,0.5324369072914124,0.9039064110492683
180,0.0003930952225346118,1.0,0.5291891694068909,0.8965367965367965
181,0.00037176598561927676,1.0,0.5348445773124695,0.9039064110492683
182,0.00036429380998015404,1.0,0.5542390942573547,0.8852813852813853
183,0.00043593166628852487,1.0,0.5575554370880127,0.8852813852813853
184,0.0004641285922843963,1.0,0.5380528569221497,0.9039064110492683
185,0.00035312515683472157,1.0,0.5429062247276306,0.9039064110492683
186,0.0003381800197530538,1.0,0.5541086792945862,0.8950319521748094
187,0.00038659790880046785,1.0,0.5526060461997986,0.8950319521748094
188,0.00039822791586630046,1.0,0.5538163781166077,0.8950319521748094
189,0.00034337647957727313,1.0,0.5509194731712341,0.9039064110492683
190,0.00032193231163546443,1.0,0.5380384922027588,0.9039064110492683
191,0.00035637503606267273,1.0,0.533379852771759,0.8965367965367965
192,0.00036014101351611316,1.0,0.5461567044258118,0.9039064110492683
193,0.00033001351403072476,1.0,0.5622113347053528,0.8950319521748094
194,0.000399138021748513,1.0,0.5483339428901672,0.8941558441558443
195,0.0003561312914825976,1.0,0.5199819207191467,0.8965367965367965
196,0.00033798470394685864,1.0,0.5406237840652466,0.9039064110492683
197,0.00030583448824472725,1.0,0.579689085483551,0.8961038961038962
198,0.00033981059095822275,1.0,0.5812073349952698,0.8961038961038962
199,0.0002687279775273055,1.0,0.5486583709716797,0.9039064110492683
200,0.0003433719102758914,1.0,0.5324457287788391,0.8965367965367965
201,0.00031359141576103866,1.0,0.5340668559074402,0.8965367965367965
202,0.00032445386750623584,1.0,0.5516023635864258,0.9039064110492683
203,0.00028162478702142835,1.0,0.5577214360237122,0.8941558441558443
204,0.00028209295123815536,1.0,0.545796275138855,0.9039064110492683
205,0.0002825925184879452,1.0,0.5420007109642029,0.9039064110492683
206,0.0002470628824084997,1.0,0.5541452169418335,0.9039064110492683
207,0.0003159802290610969,1.0,0.5573732256889343,0.8941558441558443
208,0.00031983916414901614,1.0,0.5544454455375671,0.9039064110492683
209,0.00029270912637002766,1.0,0.5561891794204712,0.9039064110492683
210,0.0003200196661055088,1.0,0.559921145439148,0.8950319521748094
211,0.00024922960437834263,1.0,0.5615172386169434,0.9039064110492683
212,0.0002601310843601823,1.0,0.5582079887390137,0.9039064110492683
213,0.0003241328813601285,1.0,0.5472467541694641,0.9039064110492683
214,0.000225754949497059,1.0,0.5474940538406372,0.8965367965367965
215,0.00024279726494569331,1.0,0.5514720678329468,0.9039064110492683
216,0.00026725284988060594,1.0,0.5559934973716736,0.9039064110492683
217,0.00027966927154920995,1.0,0.5481265783309937,0.9039064110492683
218,0.00029827834805473685,1.0,0.5418272614479065,0.8965367965367965
219,0.00029083777917549014,1.0,0.5502939820289612,0.9039064110492683
220,0.000311027659336105,1.0,0.5707092881202698,0.8852813852813853
221,0.0004243642615620047,1.0,0.567897617816925,0.8941558441558443
222,0.000313704862492159,1.0,0.567667543888092,0.9039064110492683
223,0.00026063615223392844,1.0,0.5665805339813232,0.9039064110492683
224,0.00031806709012016654,1.0,0.5569222569465637,0.9039064110492683
225,0.00026058495859615505,1.0,0.5579559803009033,0.9039064110492683
226,0.00024863542057573795,1.0,0.5474454164505005,0.9039064110492683
227,0.0002509928017389029,1.0,0.5479393005371094,0.9039064110492683
228,0.000289272255031392,1.0,0.5626718997955322,0.9039064110492683
229,0.0002631453098729253,1.0,0.5798831582069397,0.8852813852813853
230,0.0002540122368372977,1.0,0.5620192289352417,0.9039064110492683
231,0.0002703552308958024,1.0,0.5495912432670593,0.9039064110492683
232,0.00022993037418927997,1.0,0.5532925724983215,0.9039064110492683
233,0.00022315129172056913,1.0,0.5550716519355774,0.9039064110492683
234,0.00020786754612345248,1.0,0.5565977692604065,0.9039064110492683
235,0.00033316732151433825,1.0,0.56099933385849,0.9039064110492683
236,0.0002394238399574533,1.0,0.5610858798027039,0.9039064110492683
237,0.0002721579803619534,1.0,0.5771719217300415,0.8852813852813853
238,0.0002323849912500009,1.0,0.5684502720832825,0.9039064110492683
239,0.0002602356835268438,1.0,0.5470366477966309,0.8965367965367965
240,0.0002527311444282532,1.0,0.5528296828269958,0.8965367965367965
241,0.000226468633627519,1.0,0.5846077799797058,0.8852813852813853
242,0.0002494629006832838,1.0,0.6086786389350891,0.8961038961038962
243,0.0002202369214501232,1.0,0.5780864357948303,0.8950319521748094
244,0.00019224158313591033,1.0,0.5497977137565613,0.9039064110492683
245,0.00018711076700128615,1.0,0.5603766441345215,0.9039064110492683
246,0.0002014155761571601,1.0,0.5769654512405396,0.8950319521748094
247,0.00021500700677279383,1.0,0.5791726112365723,0.8941558441558443
248,0.00021293980535119772,1.0,0.5678495168685913,0.9039064110492683
249,0.0002269949036417529,1.0,0.5507262945175171,0.8965367965367965
250,0.0002109542692778632,1.0,0.5587469935417175,0.9039064110492683
251,0.0002446064609102905,1.0,0.5743263959884644,0.9039064110492683
252,0.00017840135842561722,1.0,0.5761447548866272,0.9039064110492683
253,0.0002437724469928071,1.0,0.5713568925857544,0.9039064110492683
254,0.00017445914272684604,1.0,0.5833476185798645,0.9039064110492683
255,0.0002692030684556812,1.0,0.5665331482887268,0.9039064110492683
256,0.00019761521252803504,1.0,0.5526667237281799,0.9039064110492683
257,0.00019363360479474068,1.0,0.5663551688194275,0.9039064110492683
258,0.00020512436458375305,1.0,0.5783969163894653,0.9039064110492683
259,0.00021326895512174815,1.0,0.5962887406349182,0.8852813852813853
260,0.00019875737780239433,1.0,0.5976277589797974,0.8852813852813853
261,0.0001655274536460638,1.0,0.572701096534729,0.9039064110492683
262,0.0001845185470301658,1.0,0.5774713754653931,0.9039064110492683
263,0.00017493462655693293,1.0,0.5822101831436157,0.8950319521748094
264,0.00016645090363454074,1.0,0.5778394937515259,0.9039064110492683
265,0.00020061476971022785,1.0,0.5877813100814819,0.9039064110492683
266,0.00021986050705891103,1.0,0.5822142958641052,0.9039064110492683
267,0.00018510488735046238,1.0,0.55925053358078,0.8965367965367965
268,0.00018882127187680453,1.0,0.5677779316902161,0.9039064110492683
269,0.000215646592550911,1.0,0.5844247937202454,0.8950319521748094
270,0.00018669920973479748,1.0,0.6097718477249146,0.8852813852813853
271,0.00017853126337286085,1.0,0.6086549162864685,0.8852813852813853
272,0.00020053409389220178,1.0,0.573152482509613,0.9039064110492683
273,0.00016975196194835007,1.0,0.5500710010528564,0.8965367965367965
274,0.0001578676310600713,1.0,0.5585094094276428,0.8965367965367965
275,0.00018695056496653706,1.0,0.5787102580070496,0.8950319521748094
276,0.00014428886061068624,1.0,0.5934455990791321,0.8852813852813853
277,0.0001823269994929433,1.0,0.5882169604301453,0.8941558441558443
278,0.0001716554252197966,1.0,0.5704390406608582,0.9039064110492683
279,0.00016033032443374395,1.0,0.5767655968666077,0.9039064110492683
280,0.0001466889079893008,1.0,0.5922783613204956,0.8950319521748094
281,0.0001582293916726485,1.0,0.594194769859314,0.8950319521748094
282,0.00015748562873341143,1.0,0.5890704989433289,0.8950319521748094
283,0.00014727709640283138,1.0,0.5879672765731812,0.8950319521748094
284,0.00016631696780677885,1.0,0.5768319368362427,0.9039064110492683
285,0.00015887060726527125,1.0,0.578148365020752,0.9039064110492683
286,0.0001491921575507149,1.0,0.5883362889289856,0.8950319521748094
287,0.00016982371744234115,1.0,0.5829483866691589,0.9039064110492683
288,0.0001999439118662849,1.0,0.5671706795692444,0.9039064110492683
289,0.0001429711701348424,1.0,0.5675281882286072,0.9039064110492683
290,0.00012878880079369992,1.0,0.5812527537345886,0.9039064110492683
291,0.00014037874643690884,1.0,0.592459499835968,0.8950319521748094
292,0.0001836832525441423,1.0,0.6013291478157043,0.8950319521748094
293,0.00014949694741517305,1.0,0.6088657379150391,0.8950319521748094
294,0.0001491296134190634,1.0,0.5799091458320618,0.9039064110492683
295,0.00017075310461223125,1.0,0.5761207938194275,0.9039064110492683
296,0.00018061786249745637,1.0,0.5915217399597168,0.9039064110492683
297,0.00016269869229290634,1.0,0.5802258253097534,0.9039064110492683
298,0.00014067735173739493,1.0,0.579170286655426,0.9039064110492683
299,0.0001451014104532078,1.0,0.5837158560752869,0.9039064110492683
300,0.00012645241804420948,1.0,0.5779155492782593,0.9039064110492683
301,0.0001830879191402346,1.0,0.5880489945411682,0.8950319521748094
302,0.0001233507937286049,1.0,0.6307224631309509,0.8961038961038962
303,0.00016537045303266495,1.0,0.5925390124320984,0.8950319521748094
304,0.0001543856633361429,1.0,0.5704529881477356,0.9039064110492683
305,0.00015372401685453951,1.0,0.5687780976295471,0.9039064110492683
306,0.00017041925457306206,1.0,0.573067843914032,0.9039064110492683
307,0.00013282908184919506,1.0,0.578201949596405,0.9039064110492683
308,0.00016463901556562632,1.0,0.5866342782974243,0.9039064110492683
309,0.00012593787687364966,1.0,0.611312985420227,0.8961038961038962
310,0.00013158234651200473,1.0,0.5891391038894653,0.9039064110492683
311,0.0001324211189057678,1.0,0.5774368643760681,0.9039064110492683
312,0.00013111927546560764,1.0,0.5731150507926941,0.8965367965367965
313,0.00014358802582137287,1.0,0.5995374917984009,0.8950319521748094
314,0.00012165727093815804,1.0,0.6145497560501099,0.8852813852813853
315,0.0001180463659693487,1.0,0.6007171869277954,0.9039064110492683
316,0.0001195060831378214,1.0,0.5818595886230469,0.9039064110492683
317,0.00015680906653869897,1.0,0.580154538154602,0.9039064110492683
318,0.00014083037967793643,1.0,0.5988098978996277,0.8950319521748094
319,0.00012185606465209275,1.0,0.6155415177345276,0.8852813852813853
320,0.00012811381020583212,1.0,0.611382007598877,0.8950319521748094
321,0.00010669836774468422,1.0,0.5831471085548401,0.9039064110492683
322,9.458693239139393e-05,1.0,0.5807934403419495,0.9039064110492683
323,0.00016107047849800438,1.0,0.6018222570419312,0.8950319521748094
324,0.00014098055544309318,1.0,0.6087563633918762,0.8950319521748094
325,0.0001077139750123024,1.0,0.6087517142295837,0.8950319521748094
326,0.00011473561607999727,1.0,0.585814356803894,0.9039064110492683
327,0.00012205150414956734,1.0,0.5879799723625183,0.9039064110492683
328,0.00011799202911788598,1.0,0.5946481823921204,0.9039064110492683
329,0.0001071710794349201,1.0,0.6054388880729675,0.8950319521748094
330,0.00011406990233808756,1.0,0.6032696962356567,0.8950319521748094
331,0.00011811096192104742,1.0,0.5861621499061584,0.9039064110492683
332,0.00013875476724933833,1.0,0.5793291330337524,0.9039064110492683
333,0.00010519345960346982,1.0,0.5936406850814819,0.9039064110492683
334,0.00010939344792859629,1.0,0.6117400527000427,0.8950319521748094
335,9.275889169657603e-05,1.0,0.620302140712738,0.8950319521748094
336,0.00011200023436686024,1.0,0.6087193489074707,0.8950319521748094
337,8.783683006186038e-05,1.0,0.5891603231430054,0.9039064110492683
338,0.0001029508639476262,1.0,0.5896082520484924,0.9039064110492683
339,0.00011530927440617234,1.0,0.6028230786323547,0.9039064110492683
340,0.00010699232370825484,1.0,0.6109293699264526,0.8950319521748094
341,0.00010246982128592208,1.0,0.6048023104667664,0.9039064110492683
342,0.00012888085620943457,1.0,0.5889688730239868,0.9039064110492683
343,0.00012107838847441599,1.0,0.59454745054245,0.9039064110492683
344,0.0001213085706694983,1.0,0.6199309229850769,0.8950319521748094
345,0.00011735130101442337,1.0,0.6056966781616211,0.8950319521748094
346,9.84283396974206e-05,1.0,0.5994480848312378,0.9039064110492683
347,0.0001164691275334917,1.0,0.6064780950546265,0.9039064110492683
348,0.00010447350359754637,1.0,0.5914182066917419,0.9039064110492683
349,9.827181202126667e-05,1.0,0.589380145072937,0.9039064110492683
350,9.68496678979136e-05,1.0,0.6064404249191284,0.8950319521748094
351,0.00010175925126532093,1.0,0.6057950258255005,0.8950319521748094
352,9.911540109897032e-05,1.0,0.5914933085441589,0.9039064110492683
353,9.557937300996855e-05,1.0,0.591173529624939,0.9039064110492683
354,0.00011128683399874717,1.0,0.6050207018852234,0.8950319521748094
355,0.0001036227258737199,1.0,0.6158720850944519,0.8950319521748094
356,0.00011620872828643769,1.0,0.6073256134986877,0.8950319521748094
357,8.610584336565807e-05,1.0,0.5936778783798218,0.9039064110492683
358,0.0001215253651025705,1.0,0.6017622351646423,0.9039064110492683
359,9.242120722774416e-05,1.0,0.6263027191162109,0.8950319521748094
360,0.0001082488670363091,1.0,0.6075515747070312,0.8950319521748094
361,7.788957009324804e-05,1.0,0.5915188193321228,0.9039064110492683
362,9.851266077021137e-05,1.0,0.5956924557685852,0.9039064110492683
363,0.00010622166155371815,1.0,0.6037024855613708,0.9039064110492683
364,8.416400669375435e-05,1.0,0.6156697869300842,0.8950319521748094
365,9.898232383420691e-05,1.0,0.6071621179580688,0.9039064110492683
366,8.684255590196699e-05,1.0,0.5987016558647156,0.9039064110492683
367,8.552701183361933e-05,1.0,0.600134551525116,0.9039064110492683
368,8.005895506357774e-05,1.0,0.6004775762557983,0.9039064110492683
369,9.244895045412704e-05,1.0,0.6047541499137878,0.9039064110492683
370,8.769913983996958e-05,1.0,0.5978187322616577,0.9039064110492683
371,0.00010937473416561261,1.0,0.6005481481552124,0.9039064110492683
372,9.357527596876025e-05,1.0,0.6023262739181519,0.9039064110492683
373,8.058811363298446e-05,1.0,0.605522632598877,0.8950319521748094
374,8.29643031465821e-05,1.0,0.6118010878562927,0.8950319521748094
375,9.041524026542902e-05,1.0,0.6210153698921204,0.8950319521748094
376,7.537229976151139e-05,1.0,0.6164136528968811,0.8950319521748094
377,7.076690963003784e-05,1.0,0.6133404970169067,0.8950319521748094
378,9.689247963251546e-05,1.0,0.6156530380249023,0.8950319521748094
379,9.078400034923106e-05,1.0,0.6176605224609375,0.8950319521748094
380,0.00010080187348648906,1.0,0.6045393943786621,0.9039064110492683
381,9.640944335842505e-05,1.0,0.5860734581947327,0.8965367965367965
382,8.359173079952598e-05,1.0,0.6003509163856506,0.9039064110492683
383,8.747167885303497e-05,1.0,0.6451827883720398,0.8950319521748094
384,8.93945325515233e-05,1.0,0.6222652792930603,0.8950319521748094
385,7.772123353788629e-05,1.0,0.5986014008522034,0.9039064110492683
386,0.000123078134492971,1.0,0.6027930378913879,0.9039064110492683
387,8.439081284450367e-05,1.0,0.6179611086845398,0.9039064110492683
388,8.782087388681248e-05,1.0,0.6024236083030701,0.9039064110492683
389,7.476585597032681e-05,1.0,0.6071459650993347,0.9039064110492683
390,8.413225441472605e-05,1.0,0.6176543235778809,0.8950319521748094
391,9.881889127427712e-05,1.0,0.6211902499198914,0.8950319521748094
392,8.084573346422985e-05,1.0,0.6178176999092102,0.8950319521748094
393,8.174624963430688e-05,1.0,0.6051100492477417,0.8950319521748094
394,9.043241880135611e-05,1.0,0.5970592498779297,0.9039064110492683
395,7.003651990089566e-05,1.0,0.5970805883407593,0.9039064110492683
396,8.650382369523868e-05,1.0,0.5950412154197693,0.9039064110492683
397,7.034833106445149e-05,1.0,0.6081486344337463,0.8950319521748094
398,8.79435901879333e-05,1.0,0.6218134760856628,0.8950319521748094
399,7.409892714349553e-05,1.0,0.6221548914909363,0.8950319521748094
400,7.095252658473328e-05,1.0,0.6025617718696594,0.9039064110492683
401,8.326136594405398e-05,1.0,0.6021637320518494,0.9039064110492683
402,7.124758849386126e-05,1.0,0.6218681931495667,0.8950319521748094
403,6.470680091297254e-05,1.0,0.6190699934959412,0.9039064110492683
404,8.581774454796687e-05,1.0,0.5900741815567017,0.8965367965367965
405,7.175614882726222e-05,1.0,0.5980755686759949,0.8965367965367965
406,8.59803767525591e-05,1.0,0.6269908547401428,0.8950319521748094
407,7.14096095180139e-05,1.0,0.6270533800125122,0.8950319521748094
408,7.955097680678591e-05,1.0,0.6209151148796082,0.8950319521748094
409,7.105497206794098e-05,1.0,0.6143152117729187,0.9039064110492683
410,7.324251055251807e-05,1.0,0.6044986844062805,0.9039064110492683
411,6.860446592327207e-05,1.0,0.6141289472579956,0.9039064110492683
412,8.295424049720168e-05,1.0,0.6176560521125793,0.8950319521748094
413,7.646939775440842e-05,1.0,0.640322744846344,0.8950319521748094
414,6.819369446020573e-05,1.0,0.6369720697402954,0.8950319521748094
415,7.160287350416183e-05,1.0,0.6100494265556335,0.9039064110492683
416,7.31335676391609e-05,1.0,0.5967870354652405,0.9039064110492683
417,7.157301297411323e-05,1.0,0.6029170155525208,0.9039064110492683
418,6.70489898766391e-05,1.0,0.6167841553688049,0.8950319521748094
419,7.124744297470897e-05,1.0,0.6273139715194702,0.8950319521748094
420,5.72323078813497e-05,1.0,0.6234671473503113,0.8950319521748094
421,6.131964619271457e-05,1.0,0.6174158453941345,0.8950319521748094
422,7.028187246760353e-05,1.0,0.6190740466117859,0.8950319521748094
423,7.45603974792175e-05,1.0,0.6363335251808167,0.8950319521748094
424,7.055667083477601e-05,1.0,0.6223755478858948,0.8950319521748094
425,6.0021546232746914e-05,1.0,0.6118804216384888,0.9039064110492683
426,6.719977682223544e-05,1.0,0.6208604574203491,0.9039064110492683
427,5.0930560973938555e-05,1.0,0.6310041546821594,0.8950319521748094
428,7.763518806314096e-05,1.0,0.6152728199958801,0.9039064110492683
429,7.391830877168104e-05,1.0,0.6150333285331726,0.9039064110492683
430,8.266488293884322e-05,1.0,0.6400589346885681,0.8950319521748094
431,5.2325929573271424e-05,1.0,0.6600774526596069,0.9043290043290043
432,6.647237023571506e-05,1.0,0.6183038353919983,0.9039064110492683
433,5.9372388932388276e-05,1.0,0.5992551445960999,0.9039064110492683
434,7.948530401336029e-05,1.0,0.5957098603248596,0.8965367965367965
435,6.29787755315192e-05,1.0,0.6085850596427917,0.9039064110492683
436,5.723195499740541e-05,1.0,0.6412248015403748,0.8950319521748094
437,5.812133531435393e-05,1.0,0.6527787446975708,0.8950319521748094
438,6.357005622703582e-05,1.0,0.6340972781181335,0.8950319521748094
439,5.566925028688274e-05,1.0,0.6148884892463684,0.9039064110492683
440,6.42224185867235e-05,1.0,0.6156177520751953,0.8950319521748094
441,6.140783807495609e-05,1.0,0.6228890419006348,0.8950319521748094
442,7.375852146651596e-05,1.0,0.630933403968811,0.8950319521748094
443,4.955771510140039e-05,1.0,0.6310887336730957,0.8950319521748094
444,6.734203634550795e-05,1.0,0.622461199760437,0.9039064110492683
445,6.209512503119186e-05,1.0,0.6220459342002869,0.9039064110492683
446,6.843091250630096e-05,1.0,0.6332219839096069,0.8950319521748094
447,5.92147080169525e-05,1.0,0.6263914704322815,0.9039064110492683
448,7.16058857506141e-05,1.0,0.6204437613487244,0.9039064110492683
449,6.0677615692839026e-05,1.0,0.6193763017654419,0.9039064110492683
450,5.73216202610638e-05,1.0,0.617540180683136,0.9039064110492683
451,5.459459498524666e-05,1.0,0.6265658736228943,0.8950319521748094
452,7.28820959920995e-05,1.0,0.628960907459259,0.8950319521748094
453,6.27211484243162e-05,1.0,0.6340752840042114,0.8950319521748094
454,5.79144325456582e-05,1.0,0.6264500617980957,0.8950319521748094
455,5.0881739298347384e-05,1.0,0.6107553243637085,0.9039064110492683
456,6.209498678799719e-05,1.0,0.6201757192611694,0.9039064110492683
457,6.011778168613091e-05,1.0,0.6396202445030212,0.8950319521748094
458,5.723142749047838e-05,1.0,0.653134286403656,0.8950319521748094
459,6.274985207710415e-05,1.0,0.6429675817489624,0.8950319521748094
460,5.9074587625218555e-05,1.0,0.6282587647438049,0.8950319521748094
461,5.6118042266462e-05,1.0,0.6107360124588013,0.9039064110492683
462,4.608366361935623e-05,1.0,0.6175571084022522,0.9039064110492683
463,5.3542891691904515e-05,1.0,0.6261211633682251,0.8950319521748094
464,4.4700012949761e-05,1.0,0.6480127573013306,0.8950319521748094
465,4.9858888814924285e-05,1.0,0.6462545990943909,0.8950319521748094
466,5.604999387287535e-05,1.0,0.6298093795776367,0.8950319521748094
467,4.7014851588755846e-05,1.0,0.6296001672744751,0.8950319521748094
468,5.241963663138449e-05,1.0,0.6344866156578064,0.8950319521748094
469,5.5155676818685606e-05,1.0,0.6335665583610535,0.8950319521748094
470,6.122879130998626e-05,1.0,0.6275330781936646,0.9039064110492683
471,4.701406942331232e-05,1.0,0.6342970132827759,0.8950319521748094
472,5.9176236391067505e-05,1.0,0.6363219022750854,0.8950319521748094
473,5.715875158784911e-05,1.0,0.6242294311523438,0.9039064110492683
474,4.451301720109768e-05,1.0,0.6215745806694031,0.9039064110492683
475,4.1791954572545364e-05,1.0,0.626651406288147,0.9039064110492683
476,4.11441178584937e-05,1.0,0.6362152695655823,0.8950319521748094
477,4.8330573918065056e-05,1.0,0.6452137231826782,0.8950319521748094
478,5.6550121371401474e-05,1.0,0.6468344926834106,0.8950319521748094
479,4.4449294364312664e-05,1.0,0.6447221636772156,0.8950319521748094
480,4.3058367737103254e-05,1.0,0.6398425102233887,0.8950319521748094
481,4.667983375838958e-05,1.0,0.6290906071662903,0.9039064110492683
482,5.594801768893376e-05,1.0,0.6303089261054993,0.9039064110492683
483,4.3960964831057936e-05,1.0,0.6381345987319946,0.8950319521748094
484,5.612344102701172e-05,1.0,0.6219377517700195,0.9039064110492683
485,4.6327219024533406e-05,1.0,0.6279972195625305,0.8950319521748094
486,4.935561810270883e-05,1.0,0.6399036645889282,0.8950319521748094
487,5.2320312533993274e-05,1.0,0.6436411738395691,0.8950319521748094
488,4.9539707106305286e-05,1.0,0.624036431312561,0.9039064110492683
489,5.637848153128289e-05,1.0,0.6293349266052246,0.8950319521748094
490,4.146681749261916e-05,1.0,0.6503239870071411,0.8950319521748094
491,4.6903598558856174e-05,1.0,0.652509868144989,0.8950319521748094
492,4.48506252723746e-05,1.0,0.6443110108375549,0.8950319521748094
493,4.345765773905441e-05,1.0,0.6390708088874817,0.8950319521748094
494,4.104793697479181e-05,1.0,0.6464422345161438,0.8950319521748094
495,5.015503120375797e-05,1.0,0.6362101435661316,0.9039064110492683
496,3.47393834090326e-05,1.0,0.626354992389679,0.9039064110492683
497,4.428404645295814e-05,1.0,0.6200880408287048,0.9039064110492683
498,5.6722932640695944e-05,1.0,0.6599279046058655,0.8950319521748094
499,4.010368502349593e-05,1.0,0.6677989959716797,0.8950319521748094
500,5.303339639795013e-05,1.0,0.6489640474319458,0.8950319521748094
501,5.1221908506704494e-05,1.0,0.6310377717018127,0.9039064110492683
502,4.6618843043688685e-05,1.0,0.6452985405921936,0.8950319521748094
503,5.1627714128699154e-05,1.0,0.648084282875061,0.8950319521748094
504,4.4213058572495356e-05,1.0,0.6346129179000854,0.9039064110492683
505,4.781630195793696e-05,1.0,0.6240184903144836,0.9039064110492683
506,4.734428512165323e-05,1.0,0.6248220801353455,0.9039064110492683
507,5.3115672926651314e-05,1.0,0.6232201457023621,0.9039064110492683
508,3.892989479936659e-05,1.0,0.6458576917648315,0.8950319521748094
509,4.8019563109846786e-05,1.0,0.656228244304657,0.8950319521748094
510,5.527266694116406e-05,1.0,0.6672611832618713,0.8950319521748094
511,3.8664664316456765e-05,1.0,0.6706452369689941,0.8950319521748094
512,4.779479422722943e-05,1.0,0.6247368454933167,0.9039064110492683
513,5.3303079766919836e-05,1.0,0.6182743906974792,0.9039064110492683
514,4.6929442760301754e-05,1.0,0.6269022226333618,0.9039064110492683
515,4.625410292646848e-05,1.0,0.649438202381134,0.8950319521748094
516,3.6583303881343454e-05,1.0,0.6588671803474426,0.8950319521748094
517,3.857029878417961e-05,1.0,0.6456918716430664,0.8950319521748094
518,3.206470137229189e-05,1.0,0.6376715898513794,0.8950319521748094
519,3.779325561481528e-05,1.0,0.6390581130981445,0.8950319521748094
520,5.085203520138748e-05,1.0,0.6448078155517578,0.8950319521748094
521,3.835852839984e-05,1.0,0.6509522795677185,0.8950319521748094
522,2.9353062927839346e-05,1.0,0.6511773467063904,0.8950319521748094
523,4.7667334001744166e-05,1.0,0.6535298228263855,0.8950319521748094
524,3.549292523530312e-05,1.0,0.6471953988075256,0.8950319521748094
525,4.202601485303603e-05,1.0,0.6401970982551575,0.9039064110492683
526,4.5116285036783665e-05,1.0,0.6327694654464722,0.9039064110492683
527,4.276292384020053e-05,1.0,0.63360595703125,0.9039064110492683
528,4.4903568777954206e-05,1.0,0.635518491268158,0.8950319521748094
529,3.040930096176453e-05,1.0,0.6570792198181152,0.8950319521748094
530,3.052673855563626e-05,1.0,0.6612597703933716,0.8950319521748094
531,3.8823880458949134e-05,1.0,0.6440830230712891,0.8950319521748094
532,3.766507870750502e-05,1.0,0.640862762928009,0.8950319521748094
533,3.8130216125864536e-05,1.0,0.6416698098182678,0.8950319521748094
534,3.952987026423216e-05,1.0,0.6476308703422546,0.8950319521748094
535,3.6044679291080683e-05,1.0,0.6444944739341736,0.8950319521748094
536,3.5277374990982935e-05,1.0,0.6442155241966248,0.8950319521748094
537,3.5375735023990273e-05,1.0,0.6519773602485657,0.8950319521748094
538,3.167919931001961e-05,1.0,0.6513871550559998,0.8950319521748094
539,2.9817811082466505e-05,1.0,0.6434277296066284,0.8950319521748094
540,3.440068758209236e-05,1.0,0.6375263333320618,0.8950319521748094
541,3.89870438084472e-05,1.0,0.6408969759941101,0.8950319521748094
542,3.222185841877945e-05,1.0,0.6534015536308289,0.8950319521748094
543,3.360381742822938e-05,1.0,0.6553968787193298,0.8950319521748094
544,4.3154886952834204e-05,1.0,0.6534748673439026,0.8950319521748094
545,3.745811773114838e-05,1.0,0.6448419690132141,0.8950319521748094
546,3.054027911275625e-05,1.0,0.6589908003807068,0.8950319521748094
547,3.1220639357343316e-05,1.0,0.6510239243507385,0.8950319521748094
548,3.953080886276439e-05,1.0,0.6452401876449585,0.8950319521748094
549,3.070747334277257e-05,1.0,0.652805507183075,0.8950319521748094
550,3.172614742652513e-05,1.0,0.6487255096435547,0.8950319521748094
551,2.8546308385557495e-05,1.0,0.6496706008911133,0.8950319521748094
552,3.850701614283025e-05,1.0,0.643520176410675,0.8950319521748094
553,3.066841236432083e-05,1.0,0.6423651576042175,0.9039064110492683
554,3.693483449751511e-05,1.0,0.6381606459617615,0.9039064110492683
555,3.3884432923514396e-05,1.0,0.6534164547920227,0.8950319521748094
556,3.558920798241161e-05,1.0,0.6831158995628357,0.8950319521748094
557,2.7311683879815973e-05,1.0,0.6768712997436523,0.8950319521748094
558,3.741510590771213e-05,1.0,0.660401463508606,0.8950319521748094
559,3.4362026781309396e-05,1.0,0.6497658491134644,0.8950319521748094
560,3.806836684816517e-05,1.0,0.6446298360824585,0.9039064110492683
561,3.757398735615425e-05,1.0,0.6449387669563293,0.9039064110492683
562,3.513268893584609e-05,1.0,0.6434821486473083,0.9039064110492683
563,2.868971751013305e-05,1.0,0.6521857976913452,0.8950319521748094
564,4.8332851292798296e-05,1.0,0.6633273363113403,0.8950319521748094
565,3.115469735348597e-05,1.0,0.676235556602478,0.8950319521748094
566,3.1724805012345314e-05,1.0,0.6515100598335266,0.8950319521748094
567,2.5689523681649007e-05,1.0,0.6381641030311584,0.9039064110492683
568,2.9907312637078576e-05,1.0,0.6441282033920288,0.9039064110492683
569,2.6999556212103926e-05,1.0,0.6685386896133423,0.8950319521748094
570,2.6790134143084288e-05,1.0,0.6712654232978821,0.8950319521748094
571,3.475823541521095e-05,1.0,0.6578556299209595,0.8950319521748094
572,4.0690185414860025e-05,1.0,0.6607131958007812,0.8950319521748094
573,3.726696741068736e-05,1.0,0.6653912663459778,0.8950319521748094
574,2.8215028578415513e-05,1.0,0.6422170400619507,0.9039064110492683
575,3.10775067191571e-05,1.0,0.6384719014167786,0.9039064110492683
576,3.155148806399666e-05,1.0,0.6507207155227661,0.8950319521748094
577,2.777982081170194e-05,1.0,0.6393530964851379,0.9039064110492683
578,3.2174015359487385e-05,1.0,0.6664679646492004,0.8950319521748094
579,3.707924406626262e-05,1.0,0.6809952855110168,0.8950319521748094
580,2.7621203116723336e-05,1.0,0.6690674424171448,0.8950319521748094
581,4.462415381567553e-05,1.0,0.6858810782432556,0.8950319521748094
582,2.78487987088738e-05,1.0,0.7015620470046997,0.8950319521748094
583,2.717658026085701e-05,1.0,0.6532221436500549,0.9039064110492683
584,2.5161660232697614e-05,1.0,0.6417468190193176,0.9039064110492683
585,2.7742369638872333e-05,1.0,0.646795928478241,0.9039064110492683
586,3.167194518027827e-05,1.0,0.6531350016593933,0.8950319521748094
587,2.8418353394954465e-05,1.0,0.6660794615745544,0.8950319521748094
588,3.202829975634813e-05,1.0,0.6676384806632996,0.8950319521748094
589,2.9289625672390684e-05,1.0,0.6612615585327148,0.8950319521748094
590,2.7920961656491272e-05,1.0,0.6845054626464844,0.8950319521748094
591,2.6536770747043192e-05,1.0,0.6650933623313904,0.8950319521748094
592,3.0155506465234794e-05,1.0,0.6474040150642395,0.9039064110492683
593,3.053952968912199e-05,1.0,0.6504215598106384,0.9039064110492683
594,3.0825820431346074e-05,1.0,0.6658393144607544,0.8950319521748094
595,2.930748087237589e-05,1.0,0.6624615788459778,0.8950319521748094
596,3.507704968797043e-05,1.0,0.6645746231079102,0.8950319521748094
597,2.7180560209671967e-05,1.0,0.6848044395446777,0.8950319521748094
598,2.973419577756431e-05,1.0,0.6855291724205017,0.8950319521748094
599,2.568545278336387e-05,1.0,0.6654111742973328,0.8950319521748094
600,2.872939148801379e-05,1.0,0.6622007489204407,0.8950319521748094
601,2.6027466446976177e-05,1.0,0.667502760887146,0.8950319521748094
602,2.776666406134609e-05,1.0,0.6592196226119995,0.8950319521748094
603,2.4743552785366774e-05,1.0,0.6504064798355103,0.8950319521748094
604,2.6196124963462353e-05,1.0,0.6574306488037109,0.8950319521748094
605,1.967109892575536e-05,1.0,0.6647292375564575,0.8950319521748094
606,2.583129571576137e-05,1.0,0.6635130047798157,0.8950319521748094
607,2.3832344595575705e-05,1.0,0.6636880040168762,0.8950319521748094
608,2.3236414563143626e-05,1.0,0.670051097869873,0.8950319521748094
609,3.8763122574891895e-05,1.0,0.678510844707489,0.8950319521748094
610,2.8528553229989484e-05,1.0,0.6808665990829468,0.8950319521748094
611,2.6681474992074072e-05,1.0,0.6629970669746399,0.8950319521748094
612,2.629631126183085e-05,1.0,0.6563016772270203,0.8950319521748094
613,2.9322842237888835e-05,1.0,0.6499884724617004,0.9039064110492683
614,2.3589776901644655e-05,1.0,0.666691780090332,0.8950319521748094
615,3.62285427399911e-05,1.0,0.6798244118690491,0.8950319521748094
616,2.2807364075561054e-05,1.0,0.6889328956604004,0.8950319521748094
617,2.60630276898155e-05,1.0,0.6719006299972534,0.8950319521748094
618,2.3384249288938008e-05,1.0,0.6635105013847351,0.8950319521748094
619,2.8722777642542496e-05,1.0,0.6647487282752991,0.8950319521748094
620,1.9672199414344504e-05,1.0,0.6721771955490112,0.8950319521748094
621,2.3130103727453388e-05,1.0,0.6819340586662292,0.8950319521748094
622,2.2188036382431164e-05,1.0,0.679444432258606,0.8950319521748094
623,2.683387720026076e-05,1.0,0.6771069765090942,0.8950319521748094
624,2.5420204110560007e-05,1.0,0.6742495894432068,0.8950319521748094
625,1.8507662389311008e-05,1.0,0.6692942380905151,0.8950319521748094
626,1.7642532839090563e-05,1.0,0.6651031374931335,0.8950319521748094
627,2.4652666979818605e-05,1.0,0.6639117002487183,0.8950319521748094
628,1.987324867513962e-05,1.0,0.6721225380897522,0.8950319521748094
629,2.8793687306460924e-05,1.0,0.6838491559028625,0.8950319521748094
630,2.523101466067601e-05,1.0,0.676188051700592,0.8950319521748094
631,2.5477746021351777e-05,1.0,0.653488039970398,0.9039064110492683
632,2.4380484319408424e-05,1.0,0.6534109115600586,0.8950319521748094
633,2.2139969587442465e-05,1.0,0.6747980117797852,0.8950319521748094
634,2.1552705220528878e-05,1.0,0.6977484822273254,0.8950319521748094
635,2.268841490149498e-05,1.0,0.7025217413902283,0.8950319521748094
636,2.1956171622150578e-05,1.0,0.6768743395805359,0.8950319521748094
637,2.1477246264112182e-05,1.0,0.6618846654891968,0.8950319521748094
638,2.5110464775934815e-05,1.0,0.6679933667182922,0.8950319521748094
639,1.9976234398200177e-05,1.0,0.6786836385726929,0.8950319521748094
640,2.2913865905138664e-05,1.0,0.6662732362747192,0.8950319521748094
641,2.0720244719996117e-05,1.0,0.656071662902832,0.8950319521748094
642,2.9614502636832185e-05,1.0,0.6647037863731384,0.8950319521748094
643,2.0971685444237664e-05,1.0,0.6791862845420837,0.8950319521748094
644,2.639708145579789e-05,1.0,0.656006395816803,0.8950319521748094
645,2.228252196800895e-05,1.0,0.6551491618156433,0.8950319521748094
646,1.920661270560231e-05,1.0,0.6748338341712952,0.8950319521748094
647,2.207413490395993e-05,1.0,0.694667637348175,0.8950319521748094
648,2.295423109899275e-05,1.0,0.6838279366493225,0.8950319521748094
649,2.111506364599336e-05,1.0,0.671224057674408,0.8950319521748094
650,1.9876493752235547e-05,1.0,0.6617588996887207,0.8950319521748094
651,1.8845055819838308e-05,1.0,0.6688293814659119,0.8950319521748094
652,2.2622230972046964e-05,1.0,0.6751378774642944,0.8950319521748094
653,1.9900911865988746e-05,1.0,0.6787522435188293,0.8950319521748094
654,1.7921354810823686e-05,1.0,0.678419291973114,0.8950319521748094
655,1.737539605528582e-05,1.0,0.6713386178016663,0.8950319521748094
656,2.5790433937800117e-05,1.0,0.6758871078491211,0.8950319521748094
657,2.3729126041871496e-05,1.0,0.687648594379425,0.8950319521748094
658,2.108434091496747e-05,1.0,0.6676096320152283,0.8950319521748094
659,1.8333053958485834e-05,1.0,0.6647950410842896,0.8950319521748094
660,3.2058480428531766e-05,1.0,0.681632936000824,0.8950319521748094
661,2.1041907530161552e-05,1.0,0.6867471933364868,0.8950319521748094
662,2.0389497876749374e-05,1.0,0.6782758831977844,0.8950319521748094
663,1.577151306264568e-05,1.0,0.6698929071426392,0.9039064110492683
664,2.1346577341319062e-05,1.0,0.6839423775672913,0.8950319521748094
665,2.106521606037859e-05,1.0,0.6927414536476135,0.8950319521748094
666,1.9899665858247317e-05,1.0,0.6924750208854675,0.8950319521748094
667,2.213026709796395e-05,1.0,0.6950478553771973,0.8950319521748094
668,1.6900756236282177e-05,1.0,0.6683211922645569,0.8950319521748094
669,1.7821275832829997e-05,1.0,0.661657989025116,0.8954030096887239
670,1.8401318811811507e-05,1.0,0.6796340346336365,0.8950319521748094
671,1.9220840840716846e-05,1.0,0.6924692392349243,0.8950319521748094
672,1.936666558322031e-05,1.0,0.6932010054588318,0.8950319521748094
673,2.1434409063658677e-05,1.0,0.6924267411231995,0.8950319521748094
674,1.9945637177443132e-05,1.0,0.6777082681655884,0.8950319521748094
675,1.9150169464410283e-05,1.0,0.6911925673484802,0.8950319521748094
676,2.0272402252885513e-05,1.0,0.6964222192764282,0.8950319521748094
677,2.0620496798073873e-05,1.0,0.6814225316047668,0.8950319521748094
678,1.908984086185228e-05,1.0,0.6771654486656189,0.8950319521748094
679,2.16526987060206e-05,1.0,0.6812357902526855,0.8950319521748094
680,1.79703001776943e-05,1.0,0.6935882568359375,0.8950319521748094
681,1.8559938325779513e-05,1.0,0.678743839263916,0.8950319521748094
682,1.6335574400727637e-05,1.0,0.6735891699790955,0.8950319521748094
683,1.7315616787527688e-05,1.0,0.6810919046401978,0.8950319521748094
684,1.3975931324239355e-05,1.0,0.6889129877090454,0.8950319521748094
685,1.682297261140775e-05,1.0,0.6936108469963074,0.8950319521748094
686,1.9666829757625237e-05,1.0,0.6858104467391968,0.8950319521748094
687,1.7834934624261223e-05,1.0,0.6728922128677368,0.8950319521748094
688,1.6724023225833662e-05,1.0,0.6772295832633972,0.8950319521748094
689,2.003555891860742e-05,1.0,0.6840540170669556,0.8950319521748094
690,1.792130569810979e-05,1.0,0.6970637440681458,0.8950319521748094
691,1.776493627403397e-05,1.0,0.6980181932449341,0.8950319521748094
692,2.0044370103278197e-05,1.0,0.6882351636886597,0.8950319521748094
693,1.4400550753634889e-05,1.0,0.6812819242477417,0.8950319521748094
694,1.828327185648959e-05,1.0,0.6772803664207458,0.8950319521748094
695,1.443570636183722e-05,1.0,0.6906569600105286,0.8950319521748094
696,1.952810816874262e-05,1.0,0.6909373998641968,0.8950319521748094
697,1.6139720173669048e-05,1.0,0.6836613416671753,0.8950319521748094
698,1.4600734175473917e-05,1.0,0.6823831796646118,0.8950319521748094
699,1.3723670235776808e-05,1.0,0.6928677558898926,0.8950319521748094
700,1.791816066543106e-05,1.0,0.717970073223114,0.8950319521748094
701,1.665348645474296e-05,1.0,0.7040802836418152,0.8950319521748094
702,1.5240237189573236e-05,1.0,0.6652877926826477,0.9039064110492683
703,1.8238530174130574e-05,1.0,0.672358512878418,0.8950319521748094
704,1.3841860891261604e-05,1.0,0.709966242313385,0.8950319521748094
705,1.5460698705282994e-05,1.0,0.7249036431312561,0.8950319521748094
706,1.5359537428594194e-05,1.0,0.7024062871932983,0.8950319521748094
707,1.6876130757736973e-05,1.0,0.6841399073600769,0.8950319521748094
708,2.0705356291728094e-05,1.0,0.6692091822624207,0.8950319521748094
709,1.83736647159094e-05,1.0,0.6812170147895813,0.8950319521748094
710,1.4863592696201522e-05,1.0,0.6936876177787781,0.8950319521748094
711,1.5639439880033024e-05,1.0,0.6818556189537048,0.8950319521748094
712,1.8985572751262225e-05,1.0,0.6834898591041565,0.8950319521748094
713,1.631212217034772e-05,1.0,0.6811732649803162,0.8950319521748094
714,1.4643245776824187e-05,1.0,0.6906274557113647,0.8950319521748094
715,1.9305913156131282e-05,1.0,0.7035121917724609,0.8950319521748094
716,1.913576852530241e-05,1.0,0.7007077932357788,0.8950319521748094
717,1.5104046724445652e-05,1.0,0.689329206943512,0.8950319521748094
718,1.6535148461116478e-05,1.0,0.6885701417922974,0.8950319521748094
719,1.5871477444306947e-05,1.0,0.689530074596405,0.8950319521748094
720,1.301800239161821e-05,1.0,0.699410617351532,0.8950319521748094
721,1.6185456843231805e-05,1.0,0.7031526565551758,0.8950319521748094
722,1.7478303561802022e-05,1.0,0.6952022910118103,0.8950319521748094
723,1.4746436136192642e-05,1.0,0.6687142252922058,0.8950319521748094
724,1.5604089639964513e-05,1.0,0.6718700528144836,0.8950319521748094
725,1.953781429619994e-05,1.0,0.695732593536377,0.8950319521748094
726,1.5825686205062084e-05,1.0,0.7219079732894897,0.8950319521748094
727,1.3121259144099895e-05,1.0,0.6999834775924683,0.8950319521748094
728,1.6210588000831194e-05,1.0,0.6786507964134216,0.8848587920016493
729,1.4363380614668131e-05,1.0,0.6807201504707336,0.8950319521748094
730,1.5986241123755462e-05,1.0,0.7061194777488708,0.8950319521748094
731,1.6237539966823533e-05,1.0,0.7139714360237122,0.8950319521748094
732,1.4385672329808585e-05,1.0,0.6887767910957336,0.8950319521748094
733,1.7074175048037432e-05,1.0,0.6878900527954102,0.8950319521748094
734,1.659840563661419e-05,1.0,0.7020273208618164,0.8950319521748094
735,1.6990061340038665e-05,1.0,0.690862238407135,0.8950319521748094
736,1.4328157703857869e-05,1.0,0.6989976167678833,0.8950319521748094
737,1.1692931366269477e-05,1.0,0.7093843221664429,0.8950319521748094
738,1.2969095223525073e-05,1.0,0.7017889618873596,0.8950319521748094
739,1.614602115296293e-05,1.0,0.6919862627983093,0.8950319521748094
740,1.4365383322001435e-05,1.0,0.6810935735702515,0.8950319521748094
741,1.3831164324074052e-05,1.0,0.6945005059242249,0.8950319521748094
742,1.3705493074667174e-05,1.0,0.7296949625015259,0.8950319521748094
743,1.701548717392143e-05,1.0,0.6847671270370483,0.8950319521748094
744,1.3415041394182481e-05,1.0,0.6656541228294373,0.8954030096887239
745,1.4349434422911145e-05,1.0,0.6975937485694885,0.8950319521748094
746,1.2174016774224583e-05,1.0,0.7367458939552307,0.8911358482787054
747,1.2262365089554805e-05,1.0,0.7193583846092224,0.8950319521748094
748,1.1895176612597425e-05,1.0,0.6967172622680664,0.8950319521748094
749,1.1815320249297656e-05,1.0,0.686479926109314,0.8950319521748094
750,1.2212245565024205e-05,1.0,0.707869827747345,0.8950319521748094
751,1.5050872207211796e-05,1.0,0.7002053260803223,0.8950319521748094
752,1.3244788533484098e-05,1.0,0.6915069818496704,0.8950319521748094
753,1.1788362826337107e-05,1.0,0.6857233643531799,0.8950319521748094
754,1.5236068065860309e-05,1.0,0.6902883648872375,0.8950319521748094
755,1.4515395378111862e-05,1.0,0.695553183555603,0.8950319521748094
756,1.2872053957835305e-05,1.0,0.7155756950378418,0.8950319521748094
757,1.2659295862249564e-05,1.0,0.7183324098587036,0.8950319521748094
758,1.3193632184993476e-05,1.0,0.7039784789085388,0.8950319521748094
759,1.4065192772250157e-05,1.0,0.6928141713142395,0.8950319521748094
760,1.4902871953381691e-05,1.0,0.6995892524719238,0.8950319521748094
761,1.3609625057142694e-05,1.0,0.7067621946334839,0.8950319521748094
762,1.3459730325848795e-05,1.0,0.6870328187942505,0.8950319521748094
763,1.463777880417183e-05,1.0,0.7042827010154724,0.8950319521748094
764,1.2104811503377277e-05,1.0,0.70224529504776,0.8950319521748094
765,1.1330032066325657e-05,1.0,0.699020504951477,0.8950319521748094
766,1.5329744201153517e-05,1.0,0.7006450295448303,0.8950319521748094
767,1.2713600881397724e-05,1.0,0.7010615468025208,0.8950319521748094
768,1.2934962796862237e-05,1.0,0.6892451047897339,0.8950319521748094
769,1.249542401637882e-05,1.0,0.7040677666664124,0.8950319521748094
770,1.2038799468427896e-05,1.0,0.720794677734375,0.8950319521748094
771,1.5435054592671804e-05,1.0,0.6983708739280701,0.8950319521748094
772,1.0523176570131909e-05,1.0,0.6864587664604187,0.8950319521748094
773,1.0452998139953706e-05,1.0,0.6950540542602539,0.8950319521748094
774,1.4712445590703283e-05,1.0,0.7076421976089478,0.8950319521748094
775,1.3750271136814263e-05,1.0,0.7025113105773926,0.8950319521748094
776,8.36478102428373e-06,1.0,0.686383843421936,0.8950319521748094
777,1.3734271306020673e-05,1.0,0.7063543200492859,0.8950319521748094
778,1.0830788596649654e-05,1.0,0.724300742149353,0.8950319521748094
779,1.2990386494493578e-05,1.0,0.6972540616989136,0.8950319521748094
780,1.0279529305989854e-05,1.0,0.6902734041213989,0.8950319521748094
781,1.257625081052538e-05,1.0,0.6953677535057068,0.8950319521748094
782,1.2662524568440858e-05,1.0,0.707736074924469,0.8950319521748094
783,1.1121362149424385e-05,1.0,0.7016973495483398,0.8950319521748094
784,1.3008271707803942e-05,1.0,0.6876688003540039,0.8950319521748094
785,1.1588608685997315e-05,1.0,0.7099038362503052,0.8950319521748094
786,1.321810395893408e-05,1.0,0.7287154197692871,0.8950319521748094
787,1.3356455383473076e-05,1.0,0.7354611754417419,0.8950319521748094
788,1.3996095731272362e-05,1.0,0.7208089232444763,0.8950319521748094
789,1.2639099622901995e-05,1.0,0.6960267424583435,0.8950319521748094
790,1.8451073628966697e-05,1.0,0.7088422179222107,0.8950319521748094
791,1.8128561350749806e-05,1.0,0.704588770866394,0.8950319521748094
792,1.760606210154947e-05,1.0,0.6814396977424622,0.8848587920016493
793,1.1810004252765793e-05,1.0,0.6757784485816956,0.8950319521748094
794,1.0796715287142433e-05,1.0,0.6935240626335144,0.8950319521748094
795,1.2882788723800331e-05,1.0,0.7035287022590637,0.8950319521748094
796,1.2593316569109447e-05,1.0,0.7195568084716797,0.8950319521748094
797,1.1123530384793412e-05,1.0,0.7345097661018372,0.8950319521748094
798,1.0756289157143328e-05,1.0,0.7129080891609192,0.8950319521748094
799,9.343964848085307e-06,1.0,0.6950416564941406,0.8950319521748094
800,1.0913820915448014e-05,1.0,0.704878032207489,0.8950319521748094
801,9.574902833264787e-06,1.0,0.7060404419898987,0.8950319521748094
802,1.1705703400366474e-05,1.0,0.7026427984237671,0.8950319521748094
803,9.778201274457388e-06,1.0,0.7149208188056946,0.8950319521748094
804,9.275833690480795e-06,1.0,0.7227821946144104,0.8950319521748094
805,1.0661589840310626e-05,1.0,0.7275746464729309,0.8950319521748094
806,7.965655640873592e-06,1.0,0.7243911623954773,0.8950319521748094
807,8.410554073634557e-06,1.0,0.7104438543319702,0.8950319521748094
808,9.414182386535686e-06,1.0,0.6993552446365356,0.8950319521748094
809,1.4705916328239255e-05,1.0,0.7203730344772339,0.8950319521748094
810,1.17131548904581e-05,1.0,0.7342585325241089,0.8950319521748094
811,1.2486816558521241e-05,1.0,0.7073598504066467,0.8950319521748094
812,1.2922098903800361e-05,1.0,0.7078620791435242,0.8950319521748094
813,1.0434871910547372e-05,1.0,0.6865421533584595,0.8950319521748094
814,1.1603418897720985e-05,1.0,0.7038460373878479,0.8950319521748094
815,9.522753316559829e-06,1.0,0.7238848805427551,0.8950319521748094
816,9.757940460985992e-06,1.0,0.7110700607299805,0.8950319521748094
817,9.570511792844627e-06,1.0,0.7081087827682495,0.8950319521748094
818,9.137438610196114e-06,1.0,0.721373975276947,0.8950319521748094
819,8.747896572458558e-06,1.0,0.7202631831169128,0.8950319521748094
820,1.0223116078122985e-05,1.0,0.7026023864746094,0.8950319521748094
821,8.94483491720166e-06,1.0,0.7100580334663391,0.8950319521748094
822,9.981456059904303e-06,1.0,0.714296817779541,0.8950319521748094
823,8.233842891058885e-06,1.0,0.7163762450218201,0.8950319521748094
824,1.0770153494377155e-05,1.0,0.7173784375190735,0.8950319521748094
825,8.635097401565872e-06,1.0,0.7160094976425171,0.8950319521748094
826,8.254083695646841e-06,1.0,0.7022424936294556,0.8950319521748094
827,9.531205250823405e-06,1.0,0.7074748277664185,0.8950319521748094
828,1.06094566945103e-05,1.0,0.7251242995262146,0.8950319521748094
829,9.136397238762584e-06,1.0,0.7407647371292114,0.8950319521748094
830,8.685145076015033e-06,1.0,0.7213574051856995,0.8950319521748094
831,9.749450327944942e-06,1.0,0.707539975643158,0.8950319521748094
832,8.271090337075293e-06,1.0,0.7062622904777527,0.8950319521748094
833,1.0666902198863681e-05,1.0,0.7041090726852417,0.8950319521748094
834,8.99166025192244e-06,1.0,0.7219213247299194,0.8950319521748094
835,8.771356078796089e-06,1.0,0.7526072263717651,0.8950319521748094
836,8.27214080345584e-06,1.0,0.7346121668815613,0.8950319521748094
837,1.1296909178781789e-05,1.0,0.7038367390632629,0.8950319521748094
838,8.86606540007051e-06,1.0,0.7003911137580872,0.8848587920016493
839,1.0397602636658121e-05,1.0,0.7275730967521667,0.8950319521748094
840,9.778204002941493e-06,1.0,0.7387599945068359,0.8950319521748094
841,8.117826837406028e-06,1.0,0.7166478037834167,0.8950319521748094
842,8.468017767881975e-06,1.0,0.7034564018249512,0.8950319521748094
843,1.114795759349363e-05,1.0,0.7154114842414856,0.8950319521748094
844,1.0599859706417192e-05,1.0,0.7188385725021362,0.8950319521748094
845,8.740478733670898e-06,1.0,0.7263067364692688,0.8950319521748094
846,1.3232906894700136e-05,1.0,0.7255163788795471,0.8950319521748094
847,7.878357791923918e-06,1.0,0.75845867395401,0.8950319521748094
848,1.0128372196049895e-05,1.0,0.7087111473083496,0.8950319521748094
849,1.0157085853279568e-05,1.0,0.6959778070449829,0.8848587920016493
850,7.4792251325561665e-06,1.0,0.7152858972549438,0.8950319521748094
851,9.119385140365921e-06,1.0,0.7531194090843201,0.8950319521748094
852,7.533522875746712e-06,1.0,0.7604401707649231,0.8950319521748094
853,8.811784027784597e-06,1.0,0.7086614370346069,0.8950319521748094
854,9.499349289399106e-06,1.0,0.7072691917419434,0.8848587920016493
855,9.766486982698552e-06,1.0,0.7480087876319885,0.8950319521748094
856,1.1834868928417563e-05,1.0,0.706601083278656,0.8950319521748094
857,1.0793437468237244e-05,1.0,0.6719436049461365,0.8880333951762525
858,9.272626812162343e-06,1.0,0.7034890055656433,0.8950319521748094
859,8.16468400444137e-06,1.0,0.7808029055595398,0.8911358482787054
860,9.695187145553064e-06,1.0,0.7984068989753723,0.8911358482787054
861,7.187595656432677e-06,1.0,0.7613177299499512,0.8950319521748094
862,8.852150131133385e-06,1.0,0.7414709329605103,0.8950319521748094
863,9.038463758770376e-06,1.0,0.6976260542869568,0.8954030096887239
864,7.169481250457466e-06,1.0,0.6996586918830872,0.8848587920016493
865,8.433910807070788e-06,1.0,0.7565151453018188,0.8950319521748094
866,8.024186172406189e-06,1.0,0.7790406346321106,0.9043290043290043
867,8.046512448345311e-06,1.0,0.7302870750427246,0.8950319521748094
868,8.831962986732833e-06,1.0,0.7041606307029724,0.8950319521748094
869,6.921512067492586e-06,1.0,0.7140560150146484,0.8950319521748094
870,1.2947652976436075e-05,1.0,0.7431783676147461,0.8950319521748094
871,9.006477739603724e-06,1.0,0.7665546536445618,0.8950319521748094
872,9.121476978179999e-06,1.0,0.7033354640007019,0.8848587920016493
873,8.593548045610078e-06,1.0,0.7071762681007385,0.8950319521748094
874,7.450492375937756e-06,1.0,0.7331203818321228,0.8950319521748094
875,7.865600309742149e-06,1.0,0.7259441018104553,0.8950319521748094
876,7.568632554466603e-06,1.0,0.728773295879364,0.8950319521748094
877,7.996489330253098e-06,1.0,0.7240374684333801,0.8950319521748094
878,6.762912562408019e-06,1.0,0.7162445187568665,0.8950319521748094
879,8.267895282187965e-06,1.0,0.7166556715965271,0.8950319521748094
880,7.010924946371233e-06,1.0,0.7219023108482361,0.8950319521748094
881,5.335639343684306e-06,1.0,0.7218469977378845,0.8950319521748094
882,7.5143034337088466e-06,1.0,0.7298998236656189,0.8950319521748094
883,9.98773884930415e-06,1.0,0.7331057190895081,0.8950319521748094
884,8.42542158352444e-06,1.0,0.7318554520606995,0.8950319521748094
885,7.895388080214616e-06,1.0,0.7124150395393372,0.8848587920016493
886,7.394042768282816e-06,1.0,0.7249866724014282,0.8950319521748094
887,9.181093446386512e-06,1.0,0.7382813096046448,0.8950319521748094
888,5.44100930710556e-06,1.0,0.7477890253067017,0.8950319521748094
889,7.868771717767231e-06,1.0,0.737420916557312,0.8950319521748094
890,5.787990176031599e-06,1.0,0.7404772639274597,0.8950319521748094
891,7.422816452162806e-06,1.0,0.7146369814872742,0.8950319521748094
892,7.543091214756714e-06,1.0,0.7154802083969116,0.8950319521748094
893,6.6277548285142984e-06,1.0,0.7397608757019043,0.8950319521748094
894,5.789039732917445e-06,1.0,0.7313670516014099,0.8950319521748094
895,6.953425781830447e-06,1.0,0.7174156904220581,0.8950319521748094
896,8.497780981997494e-06,1.0,0.7217265963554382,0.8950319521748094
897,7.689898666285444e-06,1.0,0.7497219443321228,0.8950319521748094
898,7.759104846627451e-06,1.0,0.7375349402427673,0.8950319521748094
899,7.51539801058243e-06,1.0,0.7050508856773376,0.8950319521748094
900,7.618669769726694e-06,1.0,0.7235966324806213,0.8950319521748094
901,6.4180758272414096e-06,1.0,0.7599145174026489,0.8950319521748094
902,7.370641924353549e-06,1.0,0.7482985258102417,0.8950319521748094
903,6.644783297815593e-06,1.0,0.7258694767951965,0.8950319521748094
904,7.285505944309989e-06,1.0,0.7343955636024475,0.8950319521748094
905,7.567577995359898e-06,1.0,0.7475219368934631,0.8950319521748094
906,6.7064911490888335e-06,1.0,0.7463141083717346,0.8950319521748094
907,6.840616151748691e-06,1.0,0.7321963906288147,0.8950319521748094
908,6.6862839958048426e-06,1.0,0.7401086688041687,0.8950319521748094
909,5.944429631199455e-06,1.0,0.7579060196876526,0.8950319521748094
910,7.309991815418471e-06,1.0,0.7726074457168579,0.8950319521748094
911,5.216437330091139e-06,1.0,0.7413545846939087,0.8950319521748094
912,7.043871846690308e-06,1.0,0.7239123582839966,0.8950319521748094
913,8.453060218016617e-06,1.0,0.7441545724868774,0.8950319521748094
914,6.772508641006425e-06,1.0,0.7430771589279175,0.8950319521748094
915,8.009256816876587e-06,1.0,0.7190012335777283,0.8950319521748094
916,8.997999429993797e-06,1.0,0.7358964681625366,0.8950319521748094
917,8.558469744457398e-06,1.0,0.7696095705032349,0.8950319521748094
918,7.5218054007564206e-06,1.0,0.7482473254203796,0.8950319521748094
919,7.252529030665755e-06,1.0,0.7219620943069458,0.8950319521748094
920,4.817301487491932e-06,1.0,0.7135714888572693,0.8848587920016493
921,5.612371751340106e-06,1.0,0.7281928062438965,0.8950319521748094
922,8.490211257594638e-06,1.0,0.752750813961029,0.8950319521748094
923,5.761369266110705e-06,1.0,0.7755690813064575,0.8950319521748094
924,6.500025392597308e-06,1.0,0.7615662813186646,0.8950319521748094
925,8.292402526421938e-06,1.0,0.7330261468887329,0.8950319521748094
926,6.351024239847902e-06,1.0,0.7287406921386719,0.8950319521748094
927,5.704961949959397e-06,1.0,0.7276595830917358,0.8950319521748094
928,5.4239599194261245e-06,1.0,0.7242893576622009,0.8950319521748094
929,5.139802397025051e-06,1.0,0.7269367575645447,0.8950319521748094
930,6.584090442629531e-06,1.0,0.7547008395195007,0.8950319521748094
931,5.322856850398239e-06,1.0,0.7529720664024353,0.8950319521748094
932,5.315413091011578e-06,1.0,0.7404354214668274,0.8950319521748094
933,5.081246399640804e-06,1.0,0.7238740921020508,0.8950319521748094
934,6.472346285590902e-06,1.0,0.7384478449821472,0.8950319521748094
935,4.909900781058241e-06,1.0,0.748845100402832,0.8950319521748094
936,6.182845481816912e-06,1.0,0.7528485655784607,0.8950319521748094
937,7.798441401973832e-06,1.0,0.7292605042457581,0.8950319521748094
938,6.651164767390583e-06,1.0,0.7467966675758362,0.8950319521748094
939,5.183438133826712e-06,1.0,0.747736930847168,0.8950319521748094
940,6.210522315086564e-06,1.0,0.7261900901794434,0.8950319521748094
941,6.200947154866299e-06,1.0,0.7482255101203918,0.8950319521748094
942,5.581503501161933e-06,1.0,0.7572487592697144,0.8950319521748094
943,5.9125127336301375e-06,1.0,0.7302036881446838,0.8950319521748094
944,5.717733529309044e-06,1.0,0.7257550954818726,0.8950319521748094
945,5.557019903790206e-06,1.0,0.7460041046142578,0.8950319521748094
946,5.116377451486187e-06,1.0,0.7433880567550659,0.8950319521748094
947,5.671975031873444e-06,1.0,0.7251768112182617,0.8950319521748094
948,5.014201178710209e-06,1.0,0.7291035652160645,0.8950319521748094
949,5.559136752708582e-06,1.0,0.7587155699729919,0.8950319521748094
950,4.886479928245535e-06,1.0,0.7478421926498413,0.8950319521748094
951,5.333506578608649e-06,1.0,0.7330772280693054,0.8950319521748094
952,5.836939180881018e-06,1.0,0.7399030923843384,0.8950319521748094
953,7.833625204511918e-06,1.0,0.7776903510093689,0.8950319521748094
954,5.396309916250175e-06,1.0,0.7901233434677124,0.8950319521748094
955,7.480253316316521e-06,1.0,0.7242974638938904,0.8848587920016493
956,5.577217052632477e-06,1.0,0.7119373679161072,0.8954030096887239
957,7.011975867499132e-06,1.0,0.7239588499069214,0.8950319521748094
958,5.552744823944522e-06,1.0,0.7555316686630249,0.8950319521748094
959,6.7565333665697835e-06,1.0,0.7672635316848755,0.8950319521748094
960,6.2913918554841075e-06,1.0,0.783430278301239,0.8950319521748094
961,6.4382907112303656e-06,1.0,0.7563214302062988,0.8950319521748094
962,5.535729542316403e-06,1.0,0.7227748036384583,0.8848587920016493
963,5.900789801671635e-06,1.0,0.74455326795578,0.8950319521748094
964,5.162145953363506e-06,1.0,0.7612283825874329,0.8950319521748094
965,5.467617029353278e-06,1.0,0.7652726769447327,0.8950319521748094
966,5.620876891043736e-06,1.0,0.7773265838623047,0.8950319521748094
967,4.380908649181947e-06,1.0,0.7347739934921265,0.8950319521748094
968,5.616616817860631e-06,1.0,0.7275747060775757,0.8950319521748094
969,4.881159838987514e-06,1.0,0.742979884147644,0.8950319521748094
970,5.05252182847471e-06,1.0,0.7721752524375916,0.8950319521748094
971,4.428809916134924e-06,1.0,0.7738205790519714,0.8950319521748094
972,5.57830071556964e-06,1.0,0.7311564683914185,0.8950319521748094
973,4.110569079784909e-06,1.0,0.7170923948287964,0.8848587920016493
974,5.413323833636241e-06,1.0,0.7606587409973145,0.8950319521748094
975,5.361181138141546e-06,1.0,0.7640344500541687,0.8950319521748094
976,3.8040318486309843e-06,1.0,0.7615930438041687,0.8950319521748094
977,4.757689112011576e-06,1.0,0.7620867490768433,0.8950319521748094
978,5.941240942775039e-06,1.0,0.757244884967804,0.8950319521748094
979,4.865187747782329e-06,1.0,0.7427653074264526,0.8950319521748094
980,5.8050059124070685e-06,1.0,0.7346192002296448,0.8848587920016493
981,4.781098141393159e-06,1.0,0.7419881820678711,0.8950319521748094
982,5.391995273384964e-06,1.0,0.7635212540626526,0.8950319521748094
983,5.375004093366442e-06,1.0,0.7564181685447693,0.8950319521748094
984,6.14027158007957e-06,1.0,0.7565093636512756,0.8950319521748094
985,5.411190159065882e-06,1.0,0.7684915661811829,0.8950319521748094
986,4.6874461077095475e-06,1.0,0.7372038960456848,0.8950319521748094
987,5.153630354470806e-06,1.0,0.7270107269287109,0.8950319521748094
988,4.4000726120430045e-06,1.0,0.7713583111763,0.8950319521748094
989,6.166881121316692e-06,1.0,0.7812406420707703,0.8950319521748094
990,5.112121471029241e-06,1.0,0.7512103915214539,0.8950319521748094
991,4.36281698057428e-06,1.0,0.7395535707473755,0.8950319521748094
992,5.23237122251885e-06,1.0,0.7364588975906372,0.8950319521748094
993,5.067403435532469e-06,1.0,0.7583532929420471,0.8950319521748094
994,6.315881364571396e-06,1.0,0.7709636092185974,0.8950319521748094
995,4.121211077290354e-06,1.0,0.7573007941246033,0.8950319521748094
996,5.055701876699459e-06,1.0,0.7484210729598999,0.8950319521748094
997,4.9141272029373795e-06,1.0,0.7270331978797913,0.8848587920016493
998,4.454348982108058e-06,1.0,0.7427640557289124,0.8950319521748094
999,4.519271442404715e-06,1.0,0.7560051679611206,0.8950319521748094
