,loss,recall,val_loss,val_recall
0,0.728965163230896,0.5028344671201814,1.1509519815444946,0.3125
1,0.6778672933578491,0.5825963718820862,1.9332231283187866,0.3125
2,0.6356835961341858,0.6764584621727477,4.193231105804443,0.3125
3,0.656313955783844,0.5769302126444984,4.015910625457764,0.3125
4,0.6025806069374084,0.655952380952381,3.0791547298431396,0.3125
5,0.5810893177986145,0.709811616954474,5.0003204345703125,0.3125
6,0.5681046843528748,0.6758574758574758,5.745913028717041,0.3125
7,0.5532131791114807,0.7030596387739244,5.3909478187561035,0.3125
8,0.5516934990882874,0.6592490842490842,4.33394718170166,0.3125
9,0.5387961268424988,0.7393554857840572,2.0011117458343506,0.38690476190476186
10,0.5314239263534546,0.7172577422577423,1.2241164445877075,0.6337617739403453
11,0.5214685201644897,0.7079670329670329,2.459886074066162,0.38690476190476186
12,0.5224022269248962,0.7027555777555777,2.5026259422302246,0.38690476190476186
13,0.5225990414619446,0.7027555777555777,1.6853772401809692,0.4601190476190476
14,0.5119549632072449,0.7293123543123542,0.8285412788391113,0.7259419152276295
15,0.5139011740684509,0.7293123543123542,0.7258972525596619,0.6912643903715333
16,0.509303629398346,0.7293123543123542,0.6810434460639954,0.5478188478188478
17,0.5092226266860962,0.7293123543123542,0.6811509728431702,0.653865182436611
18,0.507530152797699,0.7293123543123542,0.6990251541137695,0.7046762761048475
19,0.5051555633544922,0.7293123543123542,0.7146214246749878,0.7454997383568812
20,0.5035460591316223,0.7490009990009989,0.7536258697509766,0.6912643903715333
21,0.5036488175392151,0.7831061795347509,0.7878593802452087,0.7132424123495552
22,0.5018921494483948,0.7831061795347509,0.7314601540565491,0.6912643903715333
23,0.5014410018920898,0.7831061795347509,0.7842473387718201,0.6299090790162218
24,0.4988662302494049,0.7831061795347509,0.7208215594291687,0.6702021193092621
25,0.5003036260604858,0.7831061795347509,0.7395519614219666,0.6912643903715333
26,0.4977326989173889,0.7988487702773417,0.7693042755126953,0.6758274463631606
27,0.497180312871933,0.8018790733076447,0.6886820197105408,0.6816326530612244
28,0.49823203682899475,0.8018790733076447,0.816370964050293,0.5924941130298274
29,0.4944942891597748,0.8018790733076447,0.7053670883178711,0.6909400123685837
30,0.4975820481777191,0.7975619618476761,0.8469331860542297,0.6292288069073784
31,0.4944090247154236,0.7975619618476761,0.9557026028633118,0.6666437728937729
32,0.4962344765663147,0.7975619618476761,1.311875581741333,0.43814102564102564
33,0.47834697365760803,0.8164573521716377,0.7541818022727966,0.5788625065410781
34,0.494706392288208,0.8496206174777603,2.170626640319824,0.4601190476190476
35,0.485682874917984,0.745538984824699,1.625413179397583,0.5607142857142857
36,0.5185433626174927,0.7906855049712193,3.6343905925750732,0.38720238095238096
37,0.5225602984428406,0.754774986917844,2.1995463371276855,0.38690476190476186
38,0.5354288220405579,0.8349769278340705,1.7957079410552979,0.3125
39,0.5129199624061584,0.7752485609628466,1.1753352880477905,0.5098972456115314
40,0.5268735289573669,0.7471861471861472,0.7321113348007202,0.5631039595325309
41,0.5143317580223083,0.8016745159602302,0.9978117346763611,0.40378401360544214
42,0.5127364993095398,0.7210872460872461,0.9041253328323364,0.5752267573696146
43,0.5000661611557007,0.7724358974358972,0.7798442244529724,0.5552447552447553
44,0.49593183398246765,0.7692390942390942,0.7788430452346802,0.6436920222634509
45,0.49745437502861023,0.7754221968507682,0.7862306237220764,0.6804267161410019
46,0.49447107315063477,0.8026556776556776,1.0157320499420166,0.5961767399267399
47,0.49030113220214844,0.787218733647305,1.2129325866699219,0.5382227891156462
48,0.49204596877098083,0.7733516483516482,1.146640658378601,0.6126275510204081
49,0.48976534605026245,0.787218733647305,1.2421854734420776,0.6126275510204081
50,0.4879937767982483,0.8059916274201988,1.0941208600997925,0.6146683673469387
51,0.4881122410297394,0.7831061795347509,0.9440755844116211,0.6642889848246991
52,0.48650863766670227,0.7831061795347509,0.8500967025756836,0.7499771062271062
53,0.48639267683029175,0.7831061795347509,0.8008548617362976,0.7125621402407116
54,0.48505568504333496,0.7787890680747823,0.7939291596412659,0.7279990842490843
55,0.48469632863998413,0.7787890680747823,0.790333092212677,0.7279990842490843
56,0.48418158292770386,0.765379858237001,0.9208937287330627,0.6666437728937729
57,0.4803951680660248,0.7790507111935682,1.346488356590271,0.6126275510204081
58,0.47398629784584045,0.7955913134484562,0.6243435144424438,0.6693910256410256
59,0.4651423394680023,0.8411826268969124,0.7460153698921204,0.6274582560296845
60,0.467976838350296,0.787480376766091,0.7378400564193726,0.5808441558441558
61,0.4529373347759247,0.8496206174777603,2.226977586746216,0.6842261904761904
62,0.4888494908809662,0.7935409828266972,1.6207988262176514,0.5155241583813012
63,0.490303099155426,0.8203819989534274,3.2825467586517334,0.6098214285714285
64,0.504109799861908,0.8372710622710623,1.085447072982788,0.5958791208791209
65,0.4618760943412781,0.8400266400266398,1.1626652479171753,0.6862670068027211
66,0.4963596761226654,0.7807430664573521,2.438387393951416,0.25833333333333336
67,0.47090914845466614,0.7700442414728128,0.8265116810798645,0.6455815018315019
68,0.49261119961738586,0.7914704343275771,0.6476282477378845,0.7934850863422291
69,0.4639250934123993,0.8236656200941914,2.149562120437622,0.6098214285714285
70,0.4661313593387604,0.7744410351553208,1.199225664138794,0.6930697278911565
71,0.4359137713909149,0.8862637362637363,1.4677776098251343,0.6862670068027211
72,0.4550502598285675,0.8236656200941914,0.7781354188919067,0.6108457019171304
73,0.45855385065078735,0.7868690832976546,0.7687058448791504,0.6292288069073784
74,0.44737154245376587,0.8059262166405023,1.2019325494766235,0.6666437728937729
75,0.42666134238243103,0.8390240711669282,0.8005329966545105,0.6636434993577851
76,0.4505414366722107,0.8191820084677228,1.148516297340393,0.572809729952587
77,0.43925946950912476,0.7747252747252746,0.7746695876121521,0.622562358276644
78,0.4583367705345154,0.7477106227106226,1.2922710180282593,0.6268740188383045
79,0.434736043214798,0.7760989010989011,0.7059875130653381,0.6474347081489938
80,0.39805707335472107,0.8213631606488748,0.8315632939338684,0.6985538271252557
81,0.4958784878253937,0.8333333333333333,9.42864990234375,0.1875
82,0.7862968444824219,0.4075278887778887,4.078714847564697,0.1875
83,0.6180382370948792,0.7011163439734868,3.8816146850585938,0.3125
84,0.5935570597648621,0.6608843537414966,6.1021904945373535,0.3125
85,0.560443103313446,0.739420103705818,7.125759601593018,0.3125
86,0.5379549860954285,0.7357927786499214,7.0057759284973145,0.3125
87,0.5423818826675415,0.7057169021454736,6.646791934967041,0.3125
88,0.5359745621681213,0.7354562104562102,6.336458683013916,0.3125
89,0.5259517431259155,0.7681187859759288,6.138401985168457,0.3125
90,0.5293706655502319,0.7044515008800722,6.032769203186035,0.3125
91,0.522251307964325,0.749476713762428,5.089390277862549,0.3125
92,0.5215536952018738,0.7542291042291042,5.38138484954834,0.3125
93,0.5135992169380188,0.749476713762428,4.132050037384033,0.3125
94,0.5219916701316833,0.6980412444698159,4.936751365661621,0.3125
95,0.5112379193305969,0.7473835688121401,2.566394329071045,0.3125
96,0.5187785029411316,0.7090302554588268,3.8517653942108154,0.3125
97,0.5083984732627869,0.7473835688121401,1.0252074003219604,0.5617804814233385
98,0.5081073045730591,0.7090302554588268,3.1729660034179688,0.3125
99,0.5068470239639282,0.7588304552590266,1.3238105773925781,0.46215986394557823
100,0.4997980296611786,0.7208267922553635,2.971727132797241,0.3125
101,0.49708762764930725,0.7647828362114076,1.7250059843063354,0.38571428571428573
102,0.4937135875225067,0.7446363160648876,2.7588448524475098,0.3125
103,0.49511078000068665,0.7473835688121401,1.2791860103607178,0.43899136577708003
104,0.48717203736305237,0.7460099424385138,2.3869128227233887,0.3125
105,0.5003121495246887,0.7770800627943484,0.8443166613578796,0.5912872841444269
106,0.48478150367736816,0.7455520669806385,2.301816940307617,0.3125
107,0.4981353282928467,0.7770800627943484,0.8084005117416382,0.5430729984301413
108,0.4854432940483093,0.7354788069073782,1.6488993167877197,0.4601190476190476
109,0.4837443232536316,0.7647828362114076,1.195884108543396,0.5371598639455782
110,0.48381778597831726,0.7352825745682887,1.4007740020751953,0.38571428571428573
111,0.4895477890968323,0.7647828362114076,0.7424857020378113,0.4923505066362209
112,0.4820350706577301,0.7643249607535322,1.4330755472183228,0.38571428571428573
113,0.48874717950820923,0.7770800627943484,0.8332692384719849,0.5430729984301413
114,0.48148486018180847,0.749476713762428,1.5226353406906128,0.38571428571428573
115,0.486360102891922,0.7647828362114076,1.021803617477417,0.5371598639455782
116,0.48399338126182556,0.7460099424385138,1.0725442171096802,0.5371598639455782
117,0.47974535822868347,0.7647828362114076,0.8897526860237122,0.5430729984301413
118,0.47815173864364624,0.7416928309785452,1.1395328044891357,0.4627551020408163
119,0.48902180790901184,0.7540554683411826,0.7954429984092712,0.5331014223871368
120,0.4745563864707947,0.7600078492935635,1.2398558855056763,0.5371598639455782
121,0.4826872944831848,0.760465724751439,1.1745113134384155,0.5405612244897959
122,0.47633859515190125,0.760465724751439,1.1930159330368042,0.5371598639455782
123,0.47677749395370483,0.7416928309785452,1.1367863416671753,0.4627551020408163
124,0.4823695719242096,0.760465724751439,0.7516502141952515,0.6005946434517863
125,0.47226831316947937,0.7435017363588792,1.3203884363174438,0.4607142857142857
126,0.494020938873291,0.7647828362114076,0.9054589867591858,0.5432359307359308
127,0.47105589509010315,0.7809167023452737,1.1994822025299072,0.4607142857142857
128,0.4781931936740875,0.7647828362114076,0.8920504450798035,0.6150968079539508
129,0.47373390197753906,0.7048011512297225,1.2018120288848877,0.4627551020408163
130,0.4833390414714813,0.77276295133438,0.7632123827934265,0.5261898815470244
131,0.47060680389404297,0.7600078492935635,1.000345230102539,0.539514652014652
132,0.4676533341407776,0.7416928309785452,1.0133709907531738,0.539514652014652
133,0.4673829674720764,0.7740711669283097,0.8397265672683716,0.5430729984301413
134,0.4609837234020233,0.755298273155416,0.9167808890342712,0.4651098901098901
135,0.4746890366077423,0.7676609105180533,0.802643358707428,0.4351419413919414
136,0.5119302272796631,0.758372579801151,0.9886534810066223,0.44793301936159086
137,0.48528245091438293,0.7673112601684029,0.9177584648132324,0.5478174603174603
138,0.5106457471847534,0.7259276437847867,0.8534193634986877,0.5420016491445062
139,0.48757386207580566,0.7833333333333333,0.6981036067008972,0.5011479591836735
140,0.4879477322101593,0.7509157509157509,0.7549083828926086,0.6370407370407369
141,0.47177034616470337,0.758436801293944,0.7190231084823608,0.5912872841444269
142,0.46681568026542664,0.8034394177251318,0.7243493795394897,0.6752747252747253
143,0.4479474425315857,0.8158270301127443,0.7236317992210388,0.6789148351648351
144,0.44519326090812683,0.7804409875838446,0.6009330749511719,0.7338970553256268
145,0.454694926738739,0.8044871794871795,0.5726599097251892,0.7462347176632891
146,0.43487444519996643,0.8475524475524475,1.0341989994049072,0.5512493458922031
147,0.4494576156139374,0.7624922696351267,0.6850871443748474,0.7499762142619285
148,0.44588467478752136,0.7952107416393132,0.6700191497802734,0.7301674515960231
149,0.4485367238521576,0.813028638028638,0.6148658394813538,0.7499762142619285
150,0.4361957013607025,0.8005756148613291,0.5960925817489624,0.733083583083583
151,0.4281531274318695,0.8483682983682982,0.9747852683067322,0.625951726844584
152,0.45159411430358887,0.7583713905142476,0.577004075050354,0.7661980876266591
153,0.41853782534599304,0.8005756148613291,0.5941954255104065,0.7499762142619285
154,0.4259777069091797,0.8079004329004329,0.7005156874656677,0.7329147043432759
155,0.4832651913166046,0.7841908091908091,0.6318721771240234,0.723015873015873
156,0.46897825598716736,0.793006993006993,0.5917860269546509,0.7488880167451596
157,0.4759170711040497,0.8145021645021645,0.6392619013786316,0.7212192569335426
158,0.4651238024234772,0.7719459112316255,0.5540671348571777,0.8020170305884592
159,0.4232357144355774,0.8375957375957376,0.6191765666007996,0.7831240188383045
160,0.4203574061393738,0.8010739260739259,0.7894400954246521,0.7056547619047617
161,0.41460004448890686,0.8021645021645022,0.9717352986335754,0.5808836996336996
162,0.43846839666366577,0.8145021645021645,0.9489100575447083,0.6176183935112507
163,0.4398801922798157,0.8426323676323675,0.5669003129005432,0.7555944055944055
164,0.41060352325439453,0.8137862137862137,0.5780048370361328,0.7581918081918081
165,0.4146820902824402,0.815034965034965,1.6084089279174805,0.46190476190476193
166,0.45687803626060486,0.8072927072927073,0.8876957297325134,0.6195741758241758
167,0.41945213079452515,0.8375957375957376,0.6132603287696838,0.7636030636030634
168,0.42046722769737244,0.7991341991341991,0.580708384513855,0.7303581339295625
169,0.48269304633140564,0.7599816849816851,0.6778587102890015,0.6981395588538446
170,0.5493722558021545,0.7532051282051281,4.2180657386779785,0.1875
171,0.45907720923423767,0.814060939060939,1.0571156740188599,0.1875
172,0.4617457389831543,0.8042909471480899,1.9007236957550049,0.1875
173,0.4278751015663147,0.7922743922743922,0.6431481242179871,0.7038265306122449
174,0.4149024188518524,0.8437764616336044,0.6767377257347107,0.7160714285714285
175,0.41195908188819885,0.8028055278055277,0.6144303679466248,0.7487571951857667
176,0.42865055799484253,0.8258110936682366,0.7953019142150879,0.7057745825602968
177,0.4019031226634979,0.8437764616336044,0.5999010801315308,0.7251221001221
178,0.3900345265865326,0.7661100803957946,0.5968080759048462,0.7653715332286761
179,0.4096822738647461,0.8437764616336044,1.038729190826416,0.569671201814059
180,0.3745179772377014,0.8401051329622758,0.5481787323951721,0.7180529787672644
181,0.3908976912498474,0.8035298035298035,0.5546720623970032,0.7291720184577326
182,0.39232754707336426,0.8675859854431281,1.1199944019317627,0.5638991960420532
183,0.37425217032432556,0.8271181199752629,0.5960288643836975,0.7222170686456401
184,0.40013551712036133,0.7712121212121212,0.6216436624526978,0.6733349983349983
185,0.4676383137702942,0.7830098472955616,2.9688260555267334,0.1875
186,0.43467146158218384,0.7850473930831072,1.7376548051834106,0.4420493197278912
187,0.5905994176864624,0.7527591456162883,1.0159672498703003,0.47804814233385656
188,0.49781304597854614,0.6529827315541602,2.7347664833068848,0.1875
189,0.5171562433242798,0.8014521193092622,2.0040647983551025,0.1875
190,0.4700605571269989,0.7754483611626469,1.2531765699386597,0.1875
191,0.44735172390937805,0.8142310070881499,2.5060136318206787,0.1875
192,0.40633130073547363,0.7871878121878122,0.801630437374115,0.5755161505161505
193,0.40297195315361023,0.8305729984301413,1.1068471670150757,0.18571428571428572
194,0.3857869803905487,0.8326376004947432,1.1880838871002197,0.1875
195,0.39188382029533386,0.813053613053613,0.684158980846405,0.7033163265306123
196,0.39876770973205566,0.7922743922743922,0.605937123298645,0.7183193790336647
197,0.3938470482826233,0.8205080633652061,1.028450846672058,0.5368119975262833
198,0.37549877166748047,0.8063519813519814,0.8970309495925903,0.5546620046620047
199,0.37674400210380554,0.8035298035298035,0.6027464270591736,0.72406462585034
200,0.3970932960510254,0.7949110413396128,0.792510449886322,0.6989718614718614
201,0.3921383023262024,0.8317634746206174,0.7973745465278625,0.7019480519480519
202,0.3736315369606018,0.8022311022311023,0.8281716108322144,0.6870670995670994
203,0.3684336841106415,0.8181818181818182,0.550828754901886,0.7157933336504765
204,0.3904600441455841,0.7836556300842015,0.7785221338272095,0.7019480519480519
205,0.397413045167923,0.7986989201274916,1.1417123079299927,0.5687003472717758
206,0.36567893624305725,0.8277056277056277,0.5597954988479614,0.7293083900226757
207,0.3803744614124298,0.8086425479282623,0.7452970147132874,0.7036100803957945
208,0.3778483271598816,0.8372829551400979,1.0316150188446045,0.5791458541458542
209,0.36574316024780273,0.8277056277056277,0.7478204369544983,0.7120825602968459
210,0.359691321849823,0.8126623376623378,0.5641975998878479,0.7169707276850134
211,0.3871402144432068,0.8137291280148423,0.9307298064231873,0.5655328798185941
212,0.3855442702770233,0.8022311022311023,0.904976487159729,0.6385313099598813
213,0.3710000514984131,0.7831168831168831,0.7197361588478088,0.7066849816849816
214,0.4094677269458771,0.788067884496456,0.7395697236061096,0.7291666666666666
215,0.37604331970214844,0.871340564197707,0.9958181381225586,0.5532301032301032
216,0.4142020344734192,0.8046203796203796,0.6177186369895935,0.7540336647479504
217,0.6709879636764526,0.7151764901764901,0.9948714375495911,0.6012820512820513
218,0.5007801651954651,0.7456626706626706,1.9050848484039307,0.3674744897959184
219,0.4747367799282074,0.7606060606060605,0.6013699173927307,0.6973605759320044
220,0.43225130438804626,0.7621711621711621,3.3899364471435547,0.3125
221,0.44251611828804016,0.7845654345654344,1.84663987159729,0.38690476190476186
222,0.4254482686519623,0.7845654345654344,1.6694308519363403,0.38690476190476186
223,0.4125976860523224,0.7977688977688977,2.5212955474853516,0.38690476190476186
224,0.41495200991630554,0.7934482184482183,2.268615961074829,0.38690476190476186
225,0.40628767013549805,0.7958208458208457,1.8441623449325562,0.38690476190476186
226,0.4039788246154785,0.8047036297036296,1.8795738220214844,0.38690476190476186
227,0.41009169816970825,0.7934482184482183,1.0950661897659302,0.5440051020408163
228,0.3967268168926239,0.7831168831168831,1.0341390371322632,0.5440051020408163
229,0.4066338539123535,0.7859806859806859,0.6534267663955688,0.6773286237571952
230,0.40473026037216187,0.7753246753246753,0.5472991466522217,0.7177655677655677
231,0.3903605043888092,0.7736858379715522,0.7995765805244446,0.7166012558869702
232,0.43065372109413147,0.7349567099567098,1.2158700227737427,0.6111721611721611
233,0.39301538467407227,0.7937229437229437,0.6864784359931946,0.6916143380429095
234,0.4073474407196045,0.8047036297036296,0.574888288974762,0.7177655677655677
235,0.3829357922077179,0.8237512487512487,0.9060841202735901,0.7017431972789115
236,0.40953904390335083,0.7587662337662336,0.7804058790206909,0.6600932797361369
237,0.38251110911369324,0.8001082251082251,0.6137180924415588,0.6935623899909613
238,0.3950335681438446,0.7875695732838589,0.5613232254981995,0.7166993720565148
239,0.3835824131965637,0.7992424242424242,0.5550100803375244,0.7211211407639978
240,0.3787665069103241,0.8237512487512487,0.6052265763282776,0.717982017982018
241,0.4014699161052704,0.7672077922077921,0.8102364540100098,0.6442099567099566
242,0.3751114308834076,0.8287878787878787,0.6868395805358887,0.6754602540316826
243,0.41495317220687866,0.7672077922077921,1.0613139867782593,0.5832219367933654
244,0.37415388226509094,0.8383116883116883,0.7609263062477112,0.729029304029304
245,0.41398027539253235,0.7672077922077921,0.8455532193183899,0.6647598433312718
246,0.38103988766670227,0.8139610389610389,0.735625147819519,0.6960361067503925
247,0.44129863381385803,0.7757575757575758,1.1284103393554688,0.5800473336187623
248,0.4301896393299103,0.8182995575852718,0.7060014605522156,0.7166012558869702
249,0.40696248412132263,0.8493887065315636,0.7675380706787109,0.676363814756672
250,0.39316436648368835,0.8337912087912088,0.8185895085334778,0.739625850340136
251,0.3717361092567444,0.8131451881451881,0.8550949096679688,0.6892595499738358
252,0.379136323928833,0.8207792207792207,0.7223676443099976,0.657967032967033
253,0.37632301449775696,0.858058608058608,0.5650657415390015,0.6954016221873365
254,0.36718031764030457,0.8603812853812853,0.8636770248413086,0.7266745159602302
255,0.396768718957901,0.8239177489177489,1.0881891250610352,0.5832219367933654
256,0.36443743109703064,0.8512154512154513,0.8010119795799255,0.7184720041862899
257,0.4271990954875946,0.7784632034632034,1.555053472518921,0.5318910256410257
258,0.38960033655166626,0.8300877693734837,0.652868390083313,0.657967032967033
259,0.39801591634750366,0.804945054945055,0.5567765235900879,0.7611525379382521
260,0.3901323676109314,0.8288889681746825,0.643034040927887,0.6845238095238095
261,0.36789941787719727,0.8342490842490842,0.5748172998428345,0.7543498168498167
262,0.3695114254951477,0.8451762523191094,0.7696084380149841,0.6552197802197802
263,0.3949178159236908,0.7916666666666667,0.7919496893882751,0.6550092764378478
264,0.37539175152778625,0.8245670995670995,0.9505754709243774,0.6146683673469389
265,0.4013168215751648,0.7926073926073925,0.8628800511360168,0.6576530612244899
266,0.3799537122249603,0.8117727510584654,0.767179548740387,0.6754709576138147
267,0.3923320770263672,0.7926073926073925,0.7212464213371277,0.6585240156668727
268,0.37824079394340515,0.8158936301793445,0.8196442723274231,0.7770408163265305
269,0.3935835063457489,0.8394855144855146,0.584286093711853,0.6879501450930022
270,0.3974209129810333,0.8046382189239332,1.0951656103134155,0.5402636054421769
271,0.4028521478176117,0.7818098568098567,0.7650631666183472,0.7166012558869702
272,0.4397347569465637,0.7598754420182992,0.876819908618927,0.5968243066457353
273,0.38446226716041565,0.8609925788497217,0.6150785684585571,0.7457405689548546
274,0.3943490982055664,0.8263236763236764,0.6537579894065857,0.723076923076923
275,0.35658979415893555,0.838961038961039,0.5874239206314087,0.7145735217163788
276,0.3505801558494568,0.8317016317016316,0.7511650919914246,0.6706567242281528
277,0.3604629635810852,0.8126540126540126,0.8774482607841492,0.6487560058988631
278,0.4193052649497986,0.8245670995670995,0.6381610035896301,0.698539159253445
279,0.3535915017127991,0.8163253413253413,0.5695202946662903,0.7499613481756339
280,0.3822377026081085,0.8091991341991341,0.5935226678848267,0.7330730777159349
281,0.36306032538414,0.8636569779426921,0.7641209959983826,0.6456941867656154
282,0.4685652554035187,0.8068276961134104,0.6749959588050842,0.6853664192949908
283,0.4333915412425995,0.7694139194139193,0.6074690818786621,0.670185766614338
284,0.4216456711292267,0.8000416250416249,0.8313997983932495,0.6112670068027211
285,0.4083816707134247,0.8304802340516625,1.8272238969802856,0.3125
286,0.3897382616996765,0.8361543218686076,2.2907769680023193,0.3125
287,0.38053610920906067,0.8572118357832643,2.143284320831299,0.3125
288,0.37523153424263,0.8185754721469006,1.5268934965133667,0.5368622448979592
289,0.37031322717666626,0.8424492174492174,1.3113329410552979,0.5368622448979592
290,0.3720860779285431,0.8090909090909092,0.7534259557723999,0.657967032967033
291,0.3648241460323334,0.8898518148518149,0.7506145238876343,0.6552197802197802
292,0.37529808282852173,0.8033549783549783,0.5774704813957214,0.7118524332810046
293,0.3638298213481903,0.8898518148518149,0.7163696885108948,0.657967032967033
294,0.37555384635925293,0.8033549783549783,0.597429633140564,0.7561147186147187
295,0.3651154935359955,0.8980769230769231,0.7305508255958557,0.657967032967033
296,0.37878257036209106,0.792099567099567,0.6865611672401428,0.676705833848691
297,0.3679554760456085,0.8742673992673993,0.7961634397506714,0.7180141287284144
298,0.38355258107185364,0.7888528138528139,0.7888625264167786,0.6624922696351268
299,0.37802261114120483,0.8623626373626374,0.7900327444076538,0.7406462585034014
300,0.38902679085731506,0.8126623376623378,0.7655671834945679,0.654980931766646
301,0.38490766286849976,0.8582417582417582,0.7187308669090271,0.6552197802197802
302,0.38193610310554504,0.8133866133866133,0.6294583082199097,0.7126365697794268
303,0.389276921749115,0.8582417582417582,0.6589955687522888,0.6584772370486656
304,0.375331312417984,0.8239177489177489,0.5866838693618774,0.748430735930736
305,0.3837184011936188,0.85001665001665,0.6473314166069031,0.704237429237429
306,0.37125709652900696,0.8239177489177489,0.5989977121353149,0.7379432075860647
307,0.38106560707092285,0.85001665001665,0.5967742204666138,0.723076923076923
308,0.3772070109844208,0.8239177489177489,0.5947250127792358,0.7379432075860647
309,0.37582603096961975,0.8317016317016316,0.5904693603515625,0.7278388278388277
310,0.3673243224620819,0.8239177489177489,0.5930091142654419,0.7379432075860647
311,0.37157219648361206,0.8358225108225108,0.604678213596344,0.719180819180819
312,0.37191042304039,0.8239177489177489,0.6138706207275391,0.7379432075860647
313,0.36834174394607544,0.8477272727272727,0.6002258062362671,0.723076923076923
314,0.3670613467693329,0.8126623376623378,0.6548042297363281,0.6974747474747475
315,0.36410099267959595,0.8477272727272727,0.6127850413322449,0.719180819180819
316,0.36080271005630493,0.8133866133866133,0.6631597876548767,0.7024350649350649
317,0.3614327013492584,0.8477272727272727,0.6412560343742371,0.7103063603063602
318,0.3609016239643097,0.8021312021312023,0.6489683985710144,0.7053004535147391
319,0.35627394914627075,0.8477272727272727,0.705277144908905,0.6880643166357451
320,0.35778382420539856,0.7888528138528139,0.6653637290000916,0.7104936729936729
321,0.3645927906036377,0.8158936301793445,0.6302747130393982,0.715593929879644
322,0.4265585243701935,0.80497002997003,0.632266104221344,0.7416960024102881
323,0.36173155903816223,0.8475607725607726,0.8550271391868591,0.6926347462061748
324,0.3556329607963562,0.7893939393939393,0.647128164768219,0.7276223776223775
325,0.36271044611930847,0.8102813852813853,0.7641673684120178,0.6803854875283447
326,0.3431488871574402,0.8764069264069264,0.6834685206413269,0.7168418882704596
327,0.4068419337272644,0.7873293373293373,0.6479292511940002,0.6992991135848278
328,0.3709757924079895,0.8284299034299034,0.616019070148468,0.676705833848691
329,0.38891342282295227,0.8156070120355834,0.7184833884239197,0.664328231292517
330,0.3764681816101074,0.8394855144855146,0.6731891632080078,0.69514652014652
331,0.44927501678466797,0.8303280053280053,0.6142277717590332,0.7352094334237191
332,0.3457872271537781,0.858999333999334,1.101736307144165,0.6146683673469389
333,0.3500593304634094,0.8364718614718614,0.7079501748085022,0.69514652014652
334,0.3304205536842346,0.8216450216450217,0.7870477437973022,0.6636260564831993
335,0.3268089294433594,0.8764069264069264,0.6797066330909729,0.7142024642024641
336,0.3464649021625519,0.8199134199134199,1.244249939918518,0.5665635951350236
337,0.37601444125175476,0.8358225108225108,0.6952162384986877,0.7193972693972693
338,0.37096744775772095,0.8076506826506826,0.5427343249320984,0.7329408686551543
339,0.3559401333332062,0.8275807525807525,1.0631256103515625,0.5402636054421769
340,0.35306817293167114,0.8273579595008167,0.595676600933075,0.7540293040293039
341,0.34117668867111206,0.8483647305075876,0.6771121025085449,0.7142024642024641
342,0.31782469153404236,0.8651515151515151,0.6753646731376648,0.710168006596578
343,0.3651319444179535,0.8245670995670995,0.7098870873451233,0.7293738008023721
344,0.3444172739982605,0.8462620712620712,0.6069463491439819,0.7273809523809522
345,0.3823818266391754,0.8259843331271902,0.6454586386680603,0.7454262007833437
346,0.35297197103500366,0.8316148137576709,0.7639206647872925,0.6735827664399093
347,0.3499576151371002,0.8715367965367965,0.6944742202758789,0.6584772370486656
348,0.3908607065677643,0.8197968697968697,0.7575117945671082,0.7052197802197802
349,0.3287120461463928,0.8622912801484229,0.6642254590988159,0.7258023722309437
350,0.3517468273639679,0.8615800865800866,0.6475929617881775,0.715593929879644
351,0.4087298512458801,0.7801948051948051,0.6758771538734436,0.715593929879644
352,0.3340616226196289,0.8484848484848485,0.63338702917099,0.704029304029304
353,0.34359386563301086,0.8665001665001666,0.8802527785301208,0.6956436420722135
354,0.35295745730400085,0.841991341991342,0.6706899404525757,0.719180819180819
355,0.3276574909687042,0.8287878787878789,0.8818272948265076,0.658259201116344
356,0.40915486216545105,0.8377705627705627,0.9878218770027161,0.6945744731459017
357,0.5354440212249756,0.7621212121212121,0.8305684328079224,0.6548005565862709
358,0.4691826403141022,0.8253246753246753,2.266676902770996,0.3125
359,0.40014904737472534,0.7682900432900431,5.888704776763916,0.3125
360,0.41667237877845764,0.7925324675324674,4.4424848556518555,0.3125
361,0.40435951948165894,0.8590861519432949,0.9418922662734985,0.6865646258503402
362,0.37621134519577026,0.8243090243090243,1.1149102449417114,0.6937074829931973
363,0.3371029496192932,0.8307359307359307,0.7785032391548157,0.66504329004329
364,0.3254546821117401,0.8442557442557442,0.6726260185241699,0.7282544836116266
365,0.3176870048046112,0.8341658341658341,0.73249351978302,0.7140099979385693
366,0.31062740087509155,0.8603812853812853,0.6543529629707336,0.7042578453292739
367,0.30516311526298523,0.823018648018648,0.632746160030365,0.7285157303014446
368,0.3073889911174774,0.8479437229437229,0.6659238934516907,0.6901901669758812
369,0.3124394714832306,0.8510489510489511,0.6262649297714233,0.7087912087912087
370,0.37088268995285034,0.8062770562770563,0.5738418698310852,0.6879501450930022
371,0.37451839447021484,0.866042291042291,1.0174050331115723,0.6870181405895692
372,0.37991634011268616,0.8477272727272727,0.587806224822998,0.7303658642944357
373,0.3576444685459137,0.8480103230103231,1.576978087425232,0.578152799581371
374,0.34322091937065125,0.8512154512154513,0.6207191348075867,0.738056586270872
375,0.36391738057136536,0.7973609723609724,1.2287788391113281,0.6764120799835086
376,0.3304401934146881,0.861005661005661,0.7557343244552612,0.6948456305599163
377,0.3458400070667267,0.8336211407639978,0.9316434860229492,0.6575789290075004
378,0.33547407388687134,0.8615800865800866,0.7135534882545471,0.7183193790336647
379,0.3490944504737854,0.8103896103896104,0.7037736177444458,0.7183193790336647
380,0.3970884382724762,0.7946969696969697,0.6670435667037964,0.694045042259328
381,0.3547981381416321,0.824048570477142,0.7708282470703125,0.6552197802197802
382,0.3310963213443756,0.9150968079539509,0.6448168754577637,0.728965677179963
383,0.3393167555332184,0.8727189477189478,0.6687650084495544,0.715593929879644
384,0.3365679383277893,0.8806943056943056,0.7194089889526367,0.6531462585034014
385,0.33691734075546265,0.8641941391941392,0.8291876912117004,0.7198325484039769
386,0.3584050238132477,0.870879120879121,0.7348536849021912,0.6732658214801072
387,0.3102874159812927,0.8377705627705627,0.7657098174095154,0.7142024642024641
388,0.35480445623397827,0.8615800865800866,0.8920527100563049,0.6862631416202846
389,0.3243207335472107,0.829004329004329,0.6701447367668152,0.7022152450723879
390,0.3179720938205719,0.8233147804576377,0.659013569355011,0.7258023722309437
391,0.31725868582725525,0.8735930735930736,0.8321009278297424,0.696552257266543
392,0.3020860552787781,0.8497835497835498,0.6607219576835632,0.7180839002267574
393,0.30245399475097656,0.8202844774273347,0.6597002148628235,0.7180839002267574
394,0.29369643330574036,0.8818181818181818,0.6820084452629089,0.6898526077097504
395,0.288097083568573,0.8748584748584749,0.6855231523513794,0.715593929879644
396,0.31904491782188416,0.8217449217449218,0.7111028432846069,0.7142024642024641
397,0.31413570046424866,0.8292338613767186,0.7700127363204956,0.7103063603063602
398,0.3169088065624237,0.8371961371961373,0.720935046672821,0.6814909297052154
399,0.36461392045021057,0.8385745207173779,0.8011947274208069,0.6787569573283859
400,0.4404401183128357,0.8389586603872318,0.6935459971427917,0.6924408924408924
401,0.32046470046043396,0.871716378859236,1.6868951320648193,0.5348214285714284
402,0.3524554669857025,0.9016519195090623,0.7748759388923645,0.715593929879644
403,0.3607930541038513,0.824134199134199,0.9660826921463013,0.7103063603063602
404,0.38177958130836487,0.837121212121212,0.8115220665931702,0.7304138321995464
405,0.35241779685020447,0.8027056277056277,0.7513154149055481,0.7022152450723879
406,0.3229336142539978,0.7940940012368584,0.7009008526802063,0.6898526077097504
407,0.29774385690689087,0.8764069264069264,0.6785403490066528,0.7258023722309437
408,0.30042752623558044,0.8352195423623996,0.7258156538009644,0.715593929879644
409,0.29041001200675964,0.8510489510489511,0.6989322304725647,0.7180839002267574
410,0.28847748041152954,0.8592740592740593,0.8845769762992859,0.6953712953712954
411,0.3052593767642975,0.8302697302697303,0.6842629313468933,0.7180839002267574
412,0.28218430280685425,0.8592740592740593,0.8042194247245789,0.7067194710051853
413,0.2987914979457855,0.8426073926073926,0.721464991569519,0.668424036281179
414,0.2819804251194,0.8592740592740593,0.7041987180709839,0.6898526077097504
415,0.2898862659931183,0.8510489510489511,0.6885002255439758,0.6898526077097504
416,0.27542904019355774,0.8592740592740593,0.7446452975273132,0.6898526077097504
417,0.27502498030662537,0.8936147186147186,0.7615019679069519,0.6898526077097504
418,0.28388726711273193,0.8510489510489511,0.7336965203285217,0.6898526077097504
419,0.2765583395957947,0.8473692973692974,0.7386471033096313,0.7343057735914879
420,0.27011433243751526,0.8936147186147186,0.7872151136398315,0.7067194710051853
421,0.2915368378162384,0.8426073926073926,0.7823835015296936,0.715593929879644
422,0.31186461448669434,0.8307026307026307,0.7185447812080383,0.6898526077097504
423,0.2968268394470215,0.8502913752913753,0.8928289413452148,0.6769557823129251
424,0.34076759219169617,0.8259740259740259,0.8493133783340454,0.6942046049188907
425,0.3364869952201843,0.8502913752913752,0.8838679194450378,0.6820578231292517
426,0.2927182614803314,0.8689857761286331,1.0069701671600342,0.7053767660910519
427,0.3113856017589569,0.867965367965368,1.420580267906189,0.6755102040816326
428,0.32593876123428345,0.8045454545454546,0.8722178339958191,0.7028233671090813
429,0.3388366997241974,0.8574342324342324,1.0477735996246338,0.6913832199546485
430,0.32839080691337585,0.8451762523191094,0.7919957041740417,0.6929487179487178
431,0.3393153250217438,0.8069977641406213,0.7737131714820862,0.7140022675736961
432,0.2936432659626007,0.8552447552447553,0.7749485373497009,0.7054988662131519
433,0.3070920407772064,0.8258658008658009,0.9074257612228394,0.7066403834260976
434,0.27555152773857117,0.8748584748584749,0.7254358530044556,0.6898526077097504
435,0.27566492557525635,0.864935064935065,0.8670598268508911,0.7103063603063602
436,0.2734169065952301,0.8592740592740593,0.8393338918685913,0.7293083900226758
437,0.2769661843776703,0.8672541743970317,0.7625918984413147,0.7008547008547008
438,0.3042016625404358,0.8427738927738927,0.8444175124168396,0.6980416408987837
439,0.2611536383628845,0.869988344988345,0.7181188464164734,0.6898526077097504
440,0.2656676173210144,0.8378787878787879,0.9036941528320312,0.7067194710051853
441,0.26617664098739624,0.8278887778887779,0.8388034701347351,0.7022152450723879
442,0.26509684324264526,0.8461038961038961,0.7491143345832825,0.6898526077097504
443,0.27190786600112915,0.8859925788497217,1.0508935451507568,0.6850078492935635
444,0.27037933468818665,0.8525890775890775,1.021966576576233,0.6955651491365777
445,0.2520201504230499,0.8644189144189144,0.8426570296287537,0.7293083900226758
446,0.25650855898857117,0.8592740592740593,0.9718016386032104,0.6955651491365777
447,0.32690221071243286,0.8125541125541125,0.7398738265037537,0.7254741290455575
448,0.2632696032524109,0.9047654726226154,1.031877040863037,0.6900706436420723
449,0.2726552188396454,0.8497835497835498,0.8976420164108276,0.710168006596578
450,0.2566013038158417,0.8908627087198516,1.3806291818618774,0.6687205651491366
451,0.26692789793014526,0.8340909090909091,0.8500034213066101,0.6775149453720882
452,0.2629135251045227,0.8510489510489511,1.0148252248764038,0.6853170638884923
453,0.2490527480840683,0.8644189144189144,0.9566611051559448,0.7164965986394558
454,0.27529460191726685,0.8592740592740593,0.7743914723396301,0.6898526077097504
455,0.3760546147823334,0.7982683982683982,0.6506533622741699,0.7272092986378701
456,0.2946318984031677,0.8211538461538461,1.627134919166565,0.5402636054421769
457,0.37910324335098267,0.8125457875457875,0.8897167444229126,0.7067194710051853
458,0.4216180443763733,0.8201671344528487,0.8173798322677612,0.7302241409384266
459,0.39138180017471313,0.8322510822510821,1.533961534500122,0.6969877344877344
460,0.39830273389816284,0.7705627705627706,0.8863047957420349,0.6898526077097504
461,0.3809869587421417,0.802056277056277,0.9974697828292847,0.6916143380429095
462,0.39804133772850037,0.6795121545121544,1.7917002439498901,0.5955782312925171
463,0.7586437463760376,0.7324334395762967,7.188118934631348,0.1875
464,0.4447775185108185,0.8728021978021978,4.77622652053833,0.25416666666666665
465,1.1504125595092773,0.5011932511932512,12.455952644348145,0.3125
466,0.5856771469116211,0.6267006802721088,27.432058334350586,0.3125
467,0.558583676815033,0.7513736263736263,25.02212142944336,0.3125
468,0.5319832563400269,0.7535975928833072,14.239209175109863,0.3125
469,0.5257582664489746,0.7671281099852527,2.1786715984344482,0.3125
470,0.5179938077926636,0.7581763474620616,8.418057441711426,0.1875
471,0.5189841389656067,0.6847854526425954,14.719489097595215,0.1875
472,0.5252473950386047,0.727022977022977,10.320310592651367,0.1875
473,0.5382853746414185,0.6591444270015698,18.926210403442383,0.1875
474,0.5040794610977173,0.7622793872793873,20.40468978881836,0.1875
475,0.520362913608551,0.6557977736549165,40.358062744140625,0.1875
476,0.5308586955070496,0.7544990723562152,49.17979049682617,0.1875
477,0.529208242893219,0.6832810047095761,3.20011305809021,0.3125
478,0.524044394493103,0.7468031968031967,9.094470024108887,0.3125
479,0.5174885988235474,0.7544990723562152,5.919439792633057,0.3125
480,0.5134260654449463,0.7424860853432281,3.0858101844787598,0.3125
481,0.5170676112174988,0.7509157509157508,0.6549602746963501,0.5702511773940345
482,0.5092149376869202,0.7465986394557822,1.836366057395935,0.18422619047619046
483,0.5116864442825317,0.7544990723562152,3.4859578609466553,0.1875
484,0.5095472931861877,0.7424860853432281,3.8126914501190186,0.1875
485,0.510647714138031,0.7622793872793873,4.213978290557861,0.1875
486,0.5296342968940735,0.6858320251177394,4.06309175491333,0.1875
487,0.5029332637786865,0.7622793872793873,3.932279348373413,0.1875
488,0.5184050798416138,0.7742923742923742,4.486311912536621,0.1875
489,0.5155286192893982,0.6671245421245421,3.7191543579101562,0.1875
490,0.5094413757324219,0.7622793872793873,4.078579902648926,0.1875
491,0.5220282673835754,0.7609093287664715,5.085765361785889,0.1875
492,0.505257785320282,0.7468031968031967,5.023087978363037,0.1875
493,0.5097340941429138,0.7622793872793873,5.483827114105225,0.1875
494,0.505145788192749,0.7622793872793873,5.725390434265137,0.1875
495,0.518841564655304,0.6696755625327054,5.268174171447754,0.1875
496,0.5002628564834595,0.7622793872793873,1.9259940385818481,0.18422619047619046
497,0.5096479058265686,0.7742923742923742,2.145815849304199,0.1875
498,0.5131157636642456,0.6696755625327054,1.7265939712524414,0.1875
499,0.5020355582237244,0.7579622758194187,2.070307731628418,0.1875
500,0.5158510804176331,0.7663919413919412,3.3320300579071045,0.1875
501,0.5020483732223511,0.7622793872793873,2.8103554248809814,0.1875
502,0.5087935924530029,0.6711657390228819,2.108690023422241,0.1875
503,0.5048650503158569,0.7663919413919412,1.8028596639633179,0.1875
504,0.5030699372291565,0.7622793872793873,1.7505918741226196,0.1875
505,0.5043268799781799,0.7547036297036297,1.085331916809082,0.3968537414965986
506,0.501909077167511,0.7622793872793873,0.6430865526199341,0.6694662480376766
507,0.5035369992256165,0.7547036297036297,0.7252972722053528,0.565630797773655
508,0.5012456178665161,0.7622793872793873,0.701598584651947,0.6947278911564626
509,0.5007297992706299,0.7622793872793873,0.7412570714950562,0.5712585034013606
510,0.5004421472549438,0.7622793872793873,0.6828798055648804,0.7169784580498867
511,0.5125119090080261,0.681893106893107,0.6180962324142456,0.7258404294118579
512,0.4955943524837494,0.7622793872793873,0.7118855714797974,0.5240580847723705
513,0.5002915263175964,0.7622793872793873,0.8653357625007629,0.5185481185481186
514,0.5130642652511597,0.6754828504828504,1.2838010787963867,0.18244047619047618
515,0.4972214996814728,0.7622793872793873,0.6156905889511108,0.756102231102231
516,0.49941858649253845,0.7622793872793873,0.7616178393363953,0.5570500927643784
517,0.5028354525566101,0.7547036297036297,1.0571577548980713,0.42380298273155415
518,0.49902772903442383,0.7547036297036297,0.6056827902793884,0.7214820893392321
519,0.4975278973579407,0.7622793872793873,0.7140056490898132,0.5223574045002616
520,0.4985628128051758,0.7622793872793873,0.6318013072013855,0.7535060177917321
521,0.5086361169815063,0.6713702963702964,0.6877294778823853,0.6312009419152276
522,0.49551913142204285,0.7622793872793873,0.8175745010375977,0.5196363160648875
523,0.5079649686813354,0.6754828504828504,0.6504184007644653,0.7409297052154196
524,0.4967729151248932,0.7622793872793873,0.6133995652198792,0.7494537208822922
525,0.4977265000343323,0.7622793872793873,0.6227246522903442,0.7351164708307565
526,0.5102437138557434,0.6713702963702964,1.071213960647583,0.3125
527,0.5011388063430786,0.7622793872793873,1.912144422531128,0.3125
528,0.5039157271385193,0.6909590409590409,1.0523830652236938,0.3125
529,0.5013651251792908,0.6754828504828504,0.9465400576591492,0.4601190476190476
530,0.4959259331226349,0.7622793872793873,0.9100093841552734,0.4601190476190476
531,0.498645544052124,0.7622793872793873,0.6238022446632385,0.6876230911945198
532,0.49920016527175903,0.7547036297036297,0.665816605091095,0.6467687074829931
533,0.4951102137565613,0.7622793872793873,1.1334242820739746,0.3125
534,0.49799641966819763,0.7547036297036297,1.062364935874939,0.3125
535,0.5005617737770081,0.6789460539460539,0.8489691019058228,0.535204081632653
536,0.49869540333747864,0.7555194805194805,0.6990364789962769,0.6932234432234432
537,0.49920031428337097,0.6713702963702964,0.7546901702880859,0.4808608058608059
538,0.49353986978530884,0.6713702963702964,0.8681033253669739,0.42270408163265305
539,0.4895906448364258,0.7622793872793873,0.6851717233657837,0.6467687074829931
540,0.5016778707504272,0.7468031968031967,0.6793106198310852,0.7062009419152276
541,0.49916455149650574,0.7555194805194805,1.2887792587280273,0.4838369963369963
542,0.5042566061019897,0.7742923742923742,0.7423518896102905,0.5879905808477236
543,0.49828118085861206,0.6754828504828504,0.6065170168876648,0.7299236477807904
544,0.49588021636009216,0.6789460539460539,0.6161293387413025,0.739868068439497
545,0.49282267689704895,0.7622793872793873,0.6220714449882507,0.7580705009276437
546,0.4994030296802521,0.6909590409590409,0.6084453463554382,0.7480931766646053
547,0.4951351284980774,0.7622793872793873,0.6173710227012634,0.7282431853860425
548,0.49404338002204895,0.7622793872793873,0.6258944869041443,0.6876230911945198
549,0.4909813404083252,0.7622793872793873,0.6519147157669067,0.6820810142238714
550,0.49159112572669983,0.7622793872793873,1.2282601594924927,0.2892006802721089
551,0.490420401096344,0.7742923742923742,1.33319091796875,0.36675170068027213
552,0.49564284086227417,0.7547036297036297,0.737618625164032,0.5610544217687075
553,0.48851388692855835,0.7622793872793873,0.6864791512489319,0.6312009419152276
554,0.49718156456947327,0.7547036297036297,0.6182728409767151,0.7599983349983349
555,0.49328193068504333,0.7555194805194805,1.084160327911377,0.6320512820512819
556,0.49989792704582214,0.7622793872793873,0.8427228331565857,0.5301020408163265
557,0.49606090784072876,0.6713702963702964,0.6061848402023315,0.7229972408543837
558,0.4910065233707428,0.6713702963702964,0.8614158034324646,0.4902930402930403
559,0.4863003194332123,0.7622793872793873,1.1665599346160889,0.19866889063317636
560,0.49514445662498474,0.7468031968031967,1.0557483434677124,0.30870290423861846
561,0.4834771156311035,0.7547036297036297,0.6093769073486328,0.7229972408543837
562,0.4925905168056488,0.7664918414918415,0.8232178688049316,0.49657009657009654
563,0.47662076354026794,0.7831668331668331,0.6374092102050781,0.7385178313749742
564,0.4830002784729004,0.7903013653013653,0.9303744435310364,0.4984039769754056
565,0.47579818964004517,0.779045954045954,0.652239978313446,0.7202071737786023
566,0.4740239083766937,0.7706127206127206,0.6063326597213745,0.7491758241758241
567,0.478179931640625,0.7755137719423433,0.6268991827964783,0.7672593279736136
568,0.47518569231033325,0.7715284715284715,0.6690869331359863,0.6850340136054421
569,0.4734545648097992,0.782452071737786,0.6905167698860168,0.648469387755102
570,0.4645916819572449,0.7987429237429238,0.6289381384849548,0.7469593898165325
571,0.4696933329105377,0.7755137719423433,0.8259251713752747,0.5348199419627991
572,0.4740941822528839,0.7835414585414585,0.9938488602638245,0.30718537414965985
573,0.4709812104701996,0.7753092145949287,0.8652175068855286,0.42121598639455776
574,0.46396929025650024,0.7987429237429238,0.6146640777587891,0.7428523857095285
575,0.46599993109703064,0.8028554778554778,0.9227201342582703,0.40969506683792406
576,0.45621630549430847,0.8028554778554778,0.7847065925598145,0.5513450834879406
577,0.46181783080101013,0.7755137719423433,0.6097112894058228,0.7428523857095285
578,0.4689212441444397,0.784082584082584,1.0814509391784668,0.3110119047619047
579,0.47094303369522095,0.7753092145949287,0.9119333624839783,0.42121598639455776
580,0.4722730219364166,0.7449050949050948,0.7747222781181335,0.5724228152799581
581,0.4709739685058594,0.7867691831977546,0.8236695528030396,0.42121598639455776
582,0.45683759450912476,0.7859842538413967,0.858241081237793,0.5290376290376291
583,0.4525766670703888,0.8028554778554778,1.6622270345687866,0.18422619047619046
584,0.45554453134536743,0.779045954045954,1.2114542722702026,0.3279761904761905
585,0.45874544978141785,0.784082584082584,0.6972953677177429,0.5379251700680271
586,0.47037962079048157,0.7753092145949287,0.8326718211174011,0.4073489010989011
587,0.47790294885635376,0.7418747918747918,1.0782517194747925,0.33413461538461536
588,0.4715330898761749,0.7715284715284715,1.5296469926834106,0.3125
589,0.45570725202560425,0.7901051329622758,0.6660856604576111,0.7030869923727066
590,0.44955557584762573,0.7874875124875125,2.206547260284424,0.1875
591,0.4523439407348633,0.7536796536796536,1.414198875427246,0.18244047619047618
592,0.4508376121520996,0.784082584082584,0.7290892601013184,0.5335034013605442
593,0.4542574882507324,0.7755137719423433,0.9830928444862366,0.4586309523809523
594,0.45517873764038086,0.7715284715284715,0.8224231004714966,0.5196363160648875
595,0.4531119167804718,0.7715284715284715,0.8237686157226562,0.42121598639455776
596,0.44176429510116577,0.7903013653013653,0.6305020451545715,0.7469593898165325
597,0.44120359420776367,0.784082584082584,0.7203363180160522,0.5712585034013606
598,0.43732553720474243,0.7953379953379953,0.6012877225875854,0.7599983349983349
599,0.4375275671482086,0.7953379953379953,0.8412777185440063,0.4073489010989011
600,0.4358868896961212,0.7953379953379953,1.1440080404281616,0.3125
601,0.4399762451648712,0.7953379953379953,0.9461134672164917,0.38244047619047616
602,0.4503846764564514,0.784082584082584,1.1019184589385986,0.3110119047619047
603,0.47487711906433105,0.779045954045954,0.8023796081542969,0.4808608058608059
604,0.4956832826137543,0.7279387279387278,0.7577276825904846,0.5270800627943485
605,0.4874684810638428,0.747943722943723,0.9142159223556519,0.42121598639455776
606,0.46356597542762756,0.7747288425859854,0.7674058079719543,0.583078231292517
607,0.4518817365169525,0.7715284715284715,1.8179121017456055,0.2565476190476191
608,0.45107391476631165,0.7715284715284715,0.8490663170814514,0.5248085248085248
609,0.44329267740249634,0.766164787593359,0.6089572906494141,0.7491758241758241
610,0.44241541624069214,0.7710705960705961,0.6114248633384705,0.7682234432234433
611,0.44237247109413147,0.784082584082584,0.6615838408470154,0.6467687074829931
612,0.43421700596809387,0.7907592407592408,0.7343699336051941,0.5240580847723705
613,0.433952659368515,0.7953379953379953,0.9247507452964783,0.42121598639455776
614,0.43046262860298157,0.7907592407592408,0.8892301321029663,0.42121598639455776
615,0.42966124415397644,0.7953379953379953,0.935061514377594,0.38244047619047616
616,0.42807501554489136,0.7907592407592408,1.0311797857284546,0.3125
617,0.42733627557754517,0.7907592407592408,1.0912244319915771,0.3125
618,0.4260956943035126,0.7907592407592408,1.096940517425537,0.3125
619,0.4254067838191986,0.7907592407592408,1.0940157175064087,0.3125
620,0.42460736632347107,0.7907592407592408,1.0868691205978394,0.3125
621,0.4241809546947479,0.7907592407592408,1.076404333114624,0.3125
622,0.4236149787902832,0.7907592407592408,1.0741606950759888,0.3125
623,0.4249233901500702,0.7907592407592408,1.019697904586792,0.38422619047619044
624,0.4285452365875244,0.7907592407592408,1.019049882888794,0.3110119047619047
625,0.4443133771419525,0.7634175348461063,0.8150501847267151,0.4808608058608059
626,0.4868111312389374,0.749131820560392,1.246590495109558,0.3110119047619047
627,0.4702727496623993,0.7855180533751962,2.117213487625122,0.3125
628,0.4491385817527771,0.7785131535131535,0.6791278719902039,0.7356163677592249
629,0.43770354986190796,0.7681818181818183,2.62463116645813,0.1875
630,0.42741990089416504,0.7872270586556301,1.593723177909851,0.18422619047619046
631,0.42878538370132446,0.7907592407592408,0.7000331282615662,0.5240580847723705
632,0.42562660574913025,0.7953379953379953,1.1923362016677856,0.3125
633,0.42547807097435,0.7907592407592408,1.3781297206878662,0.3125
634,0.4274165630340576,0.7953379953379953,1.346095085144043,0.3125
635,0.44028910994529724,0.7907592407592408,0.6475135087966919,0.6602813852813852
636,0.4295330047607422,0.7918058132343847,0.6707579493522644,0.6602813852813852
637,0.4231528639793396,0.7689774511203084,1.592952013015747,0.3110119047619047
638,0.4461730122566223,0.7439060939060939,1.3676482439041138,0.3110119047619047
639,0.4701823890209198,0.7692557442557442,0.9460324048995972,0.5257492507492507
640,0.4441116154193878,0.7759716474002188,1.4587193727493286,0.17572278911564626
641,0.4339170753955841,0.8058608058608058,0.6693388223648071,0.7202630702630702
642,0.4266560971736908,0.7789710289710291,0.8051108121871948,0.5223574045002616
643,0.4162062108516693,0.7907592407592408,0.8084321618080139,0.5196363160648875
644,0.41783395409584045,0.7882082203510775,1.0966354608535767,0.3110119047619047
645,0.4208991527557373,0.7907592407592408,1.067564606666565,0.4586309523809523
646,0.42320749163627625,0.7642024642024642,0.8936715126037598,0.4073489010989011
647,0.4253695011138916,0.79488011988012,0.7171096801757812,0.6467687074829931
648,0.4234842360019684,0.7747335997335998,0.670825183391571,0.6467687074829931
649,0.41918760538101196,0.7836247086247087,0.7651275992393494,0.638396127681842
650,0.41361507773399353,0.7914133485562057,0.7642887234687805,0.5394950287807431
651,0.4080105423927307,0.7923290994719566,0.9001486897468567,0.42121598639455776
652,0.40921613574028015,0.7788544788544789,0.8554021120071411,0.4194302721088435
653,0.40391674637794495,0.7923290994719566,0.8951940536499023,0.42121598639455776
654,0.4069274067878723,0.7788544788544789,0.861954391002655,0.4194302721088435
655,0.40125367045402527,0.7923290994719566,0.9178289771080017,0.42121598639455776
656,0.4046575725078583,0.7788544788544789,0.9036616683006287,0.42121598639455776
657,0.39875009655952454,0.7817979639408211,0.9328871369361877,0.42121598639455776
658,0.4062754511833191,0.7918498168498169,0.798030436038971,0.5240580847723705
659,0.39666444063186646,0.8188727938727939,0.7867570519447327,0.6228283621140764
660,0.41340702772140503,0.7918498168498169,0.6448467969894409,0.6999345892203035
661,0.3953791558742523,0.8188727938727939,0.6688785552978516,0.6876230911945198
662,0.4198469817638397,0.7918498168498169,0.6452254056930542,0.7409471480900052
663,0.39630240201950073,0.7817979639408211,0.6625016927719116,0.6752854288568574
664,0.42526721954345703,0.8101648351648352,0.665275514125824,0.7282431853860425
665,0.3997392952442169,0.7863767185195757,0.6569371819496155,0.7526402169259311
666,0.42370572686195374,0.7749084249084249,0.636138916015625,0.7599983349983349
667,0.3945241868495941,0.7863767185195757,0.6662174463272095,0.6752854288568574
668,0.40711089968681335,0.7967116217116218,0.6719333529472351,0.6899778792635936
669,0.3886259198188782,0.7817979639408211,0.7451558709144592,0.638396127681842
670,0.421854168176651,0.8248168498168498,0.6910496354103088,0.6828231292517006
671,0.3825509250164032,0.8387362637362638,0.6344937086105347,0.7329539508110937
672,0.39149191975593567,0.810644117786975,0.9372588992118835,0.4852825745682888
673,0.3877069354057312,0.805128205128205,1.065066933631897,0.4586309523809523
674,0.38335078954696655,0.8371878121878122,0.9843237996101379,0.42121598639455776
675,0.38620954751968384,0.7970826792255364,0.7890206575393677,0.6498679891537034
676,0.3819997012615204,0.7970826792255364,0.6472426652908325,0.6852421388135674
677,0.38530153036117554,0.7970826792255364,0.620297908782959,0.7329539508110937
678,0.3808665871620178,0.7970826792255364,0.6272963881492615,0.7681984681984682
679,0.39536118507385254,0.7941391941391941,0.6204392313957214,0.7560039167182023
680,0.38192084431648254,0.8001129822558395,0.6351233124732971,0.7174004566861709
681,0.43112143874168396,0.806043956043956,0.9384890198707581,0.5263403263403263
682,0.37993142008781433,0.7938775510204081,0.7699075937271118,0.5748866213151926
683,0.3889901041984558,0.7649731221159792,1.0657840967178345,0.4194302721088435
684,0.3865840435028076,0.7945970695970695,1.218912124633789,0.4586309523809523
685,0.3789907395839691,0.8001129822558395,1.1093991994857788,0.4586309523809523
686,0.38116541504859924,0.7970826792255364,0.8540272116661072,0.6498679891537034
687,0.37813133001327515,0.7970826792255364,0.6439509391784668,0.6852421388135674
688,0.381763756275177,0.7970826792255364,0.614579975605011,0.7562703169846027
689,0.37618181109428406,0.7970826792255364,0.6293397545814514,0.7357971393685679
690,0.38954466581344604,0.7836080586080586,0.6180422902107239,0.7672593279736136
691,0.37465032935142517,0.7842835735692878,0.636739194393158,0.768590932876647
692,0.4013376832008362,0.7941391941391941,0.5988978147506714,0.7491758241758241
693,0.3721853792667389,0.7970826792255364,0.6654499173164368,0.753439417725132
694,0.38520297408103943,0.7970826792255364,0.7210994362831116,0.6498679891537034
695,0.3734782636165619,0.7970826792255364,0.8310979604721069,0.6404369440083725
696,0.37821200489997864,0.7970826792255364,0.777786374092102,0.6498679891537034
697,0.37407684326171875,0.7970826792255364,0.6917220950126648,0.6852421388135674
698,0.378553569316864,0.7970826792255364,0.6015220284461975,0.6903441796298939
699,0.3729696571826935,0.7970826792255364,0.6328629851341248,0.7772489415346558
700,0.3873315751552582,0.7836080586080586,0.593856692314148,0.7603915925344497
701,0.37293776869773865,0.8001129822558395,0.6491395235061646,0.753439417725132
702,0.4014350473880768,0.7955128205128206,0.5808143019676208,0.7174004566861709
703,0.3712494969367981,0.801661433804291,0.6942920684814453,0.7672922315779458
704,0.38237252831459045,0.7970826792255364,0.7759884595870972,0.6577838827838828
705,0.3735380172729492,0.812912087912088,0.9154266119003296,0.6521323914181058
706,0.3738534450531006,0.7650528043385186,0.8442873954772949,0.6477106227106227
707,0.3725600242614746,0.7970826792255364,0.687191903591156,0.6852421388135674
708,0.37286514043807983,0.8001129822558395,0.5995545387268066,0.6875969268826412
709,0.3698728680610657,0.7970826792255364,0.6492330431938171,0.768590932876647
710,0.374967098236084,0.8001129822558395,0.6294621229171753,0.6852421388135674
711,0.36880844831466675,0.8001129822558395,0.6795877814292908,0.6852421388135674
712,0.3866995871067047,0.788011988011988,0.5862573981285095,0.6935909328766471
713,0.3729197382926941,0.788749345892203,0.681962788105011,0.7444825016253588
714,0.4161742031574249,0.801007326007326,0.6237677931785583,0.739868068439497
715,0.37217456102371216,0.8196886446886447,0.825896680355072,0.5901309008451866
716,0.3817181885242462,0.7674373245801817,0.8080527186393738,0.636695447409733
717,0.37161514163017273,0.812912087912088,1.0761730670928955,0.5339285714285714
718,0.3691146671772003,0.7970826792255364,1.0312951803207397,0.49472789115646254
719,0.36761465668678284,0.812912087912088,0.6875013709068298,0.6852421388135674
720,0.36581340432167053,0.788396127681842,0.6309898495674133,0.7463532499246784
721,0.36575737595558167,0.7970826792255364,0.6133244633674622,0.7587158872873159
722,0.3654346168041229,0.8042255363683936,0.6388324499130249,0.6935909328766471
723,0.36392953991889954,0.788396127681842,0.6641939878463745,0.6852421388135674
724,0.3652980923652649,0.814756671899529,0.6477074027061462,0.6875969268826412
725,0.36260542273521423,0.788396127681842,0.6599505543708801,0.6852421388135674
726,0.36439982056617737,0.814756671899529,0.6683624982833862,0.6852421388135674
727,0.3621554672718048,0.8042255363683936,0.6711828112602234,0.6852421388135674
728,0.36349841952323914,0.814756671899529,0.6634937524795532,0.6875969268826412
729,0.3637321889400482,0.809720041862899,0.6454917192459106,0.6852421388135674
730,0.3628687560558319,0.8103606710749569,0.6670185327529907,0.7478117120974265
731,0.3705175220966339,0.7923207744636315,0.6185023188591003,0.6852421388135674
732,0.36793380975723267,0.8017155463584036,0.7121552228927612,0.6911976911976911
733,0.3944564163684845,0.8175776604348034,0.5568456053733826,0.7293083900226758
734,0.39044833183288574,0.7549359370787941,0.9845665693283081,0.5612680969823828
735,0.5092843174934387,0.8261238761238762,6.057010173797607,0.1875
736,0.4932846426963806,0.7330716902145473,5.42441463470459,0.1875
737,0.4695670008659363,0.7907592407592408,2.7299578189849854,0.1875
738,0.44680649042129517,0.77997002997003,0.5869032144546509,0.7575087610801896
739,0.4198017418384552,0.7822558393986966,0.9407252669334412,0.46524665810380095
740,0.4257029592990875,0.7738178488178489,0.5852466821670532,0.7354827711970569
741,0.4082784056663513,0.7907592407592408,1.141545057296753,0.36675170068027213
742,0.4113510549068451,0.7767613339041911,0.7053118944168091,0.7193877551020408
743,0.4004156291484833,0.7868131868131868,1.033718228340149,0.4921958993387565
744,0.3988248407840729,0.7737310308738881,0.8092175722122192,0.6092352092352092
745,0.3952411115169525,0.8000915750915751,0.8773370981216431,0.5825674325674326
746,0.39142152667045593,0.7895604395604395,0.7964314818382263,0.6092352092352092
747,0.3904361426830292,0.7895604395604395,0.739284098148346,0.6155328798185941
748,0.3868739902973175,0.7925907425907426,0.7090956568717957,0.628968253968254
749,0.38685011863708496,0.7895604395604395,0.7157096266746521,0.628968253968254
750,0.3837564289569855,0.7925907425907426,0.7171280980110168,0.6494331065759636
751,0.3835432529449463,0.7925907425907426,0.7328291535377502,0.6289553700267986
752,0.38119202852249146,0.7925907425907426,0.708039402961731,0.6423469387755102
753,0.3810402452945709,0.7967116217116218,0.736288845539093,0.6259791795506081
754,0.37887290120124817,0.7925907425907426,0.7158527374267578,0.6423469387755102
755,0.37893834710121155,0.7967116217116218,0.7430123090744019,0.6259791795506081
756,0.376809298992157,0.7967032967032966,0.736519992351532,0.6289553700267986
757,0.3768496513366699,0.7967116217116218,0.7467237114906311,0.6227324263038548
758,0.3750137984752655,0.8008241758241759,0.7597549557685852,0.627437641723356
759,0.3747130036354065,0.8008241758241759,0.7463896870613098,0.6227324263038548
760,0.37356477975845337,0.8008241758241759,0.7678118348121643,0.627437641723356
761,0.37274160981178284,0.8008241758241759,0.7585029006004333,0.6203514739229024
762,0.37211674451828003,0.8008241758241759,0.767275869846344,0.627437641723356
763,0.3710651695728302,0.8008241758241759,0.8046353459358215,0.6167800453514739
764,0.370361864566803,0.8008241758241759,0.8047245144844055,0.6167800453514739
765,0.3695632517337799,0.8008241758241759,0.7972956895828247,0.627437641723356
766,0.3686045706272125,0.8008241758241759,0.8286347985267639,0.61281179138322
767,0.368574321269989,0.8008241758241759,0.9316107630729675,0.5928155178155178
768,0.3681723475456238,0.8008241758241759,0.7427098155021667,0.6229308390022676
769,0.3667522072792053,0.8008241758241759,0.6914857625961304,0.7188775510204081
770,0.3674650490283966,0.8008241758241759,0.767644464969635,0.6258503401360545
771,0.3680218756198883,0.8200549450549451,0.8272401094436646,0.6268707482993197
772,0.37267231941223145,0.8042255363683936,0.6457417607307434,0.753439417725132
773,0.3679104149341583,0.7904892726321299,0.6406442523002625,0.7012677798392083
774,0.37235501408576965,0.7777722277722278,0.7355731129646301,0.64328231292517
775,0.37029770016670227,0.8450418628990057,0.7171594500541687,0.6086451247165533
776,0.36840948462486267,0.8014818514818515,0.6309232115745544,0.7012677798392083
777,0.3738045394420624,0.7958791208791209,0.6750571131706238,0.7401618223046794
778,0.36729830503463745,0.8450418628990057,0.6989608407020569,0.6475340136054422
779,0.3675471246242523,0.777014652014652,0.6062337160110474,0.706369820655535
780,0.36552050709724426,0.8000333000333002,0.6683221459388733,0.7401618223046794
781,0.36690232157707214,0.8200549450549451,0.6997336149215698,0.6395975056689343
782,0.360584557056427,0.8063186813186813,0.6036564707756042,0.7798392084106369
783,0.36500123143196106,0.8000333000333002,0.7632562518119812,0.6322278911564625
784,0.36458560824394226,0.8555729984301413,0.6242728233337402,0.7419707276850133
785,0.3607826828956604,0.8063186813186813,0.6924403309822083,0.6975798011512298
786,0.36077776551246643,0.8200549450549451,0.8276860117912292,0.6268707482993197
787,0.3634616434574127,0.8255494505494506,0.6473610997200012,0.7451504844361987
788,0.3577943742275238,0.8202511773940345,0.6147646307945251,0.7842241092241091
789,0.35943707823753357,0.8305860805860805,0.7544571757316589,0.6086451247165533
790,0.3616998791694641,0.8301282051282052,0.61516273021698,0.7012677798392083
791,0.3589041531085968,0.8319680319680319,0.6299672722816467,0.7842241092241091
792,0.35739848017692566,0.8305860805860805,0.7744112014770508,0.619359410430839
793,0.35934755206108093,0.8168498168498168,0.645046055316925,0.7012677798392083
794,0.3599146008491516,0.8181401931401932,0.667864203453064,0.7271748093176665
795,0.3583497703075409,0.8246336996336997,0.6397897005081177,0.7440682333539476
796,0.35683342814445496,0.836080586080586,0.6532517075538635,0.6903441796298939
797,0.35831063985824585,0.8305860805860805,0.8954828977584839,0.6003607503607503
798,0.3516225218772888,0.8301282051282052,0.655254065990448,0.6852421388135674
799,0.3591933250427246,0.8234432234432234,0.6448655128479004,0.7545954045954045
800,0.35372433066368103,0.8264652014652015,0.6906951069831848,0.6399659863945578
801,0.3561081290245056,0.8168498168498168,0.6231755018234253,0.7092241092241091
802,0.3549628257751465,0.8200549450549451,0.6881408095359802,0.7118996083281798
803,0.35137930512428284,0.8142987964416536,0.6266797184944153,0.7747415283129568
804,0.3544478714466095,0.836080586080586,0.6196756958961487,0.7518227803942089
805,0.3485872745513916,0.8424908424908425,0.6615809798240662,0.7409677623963339
806,0.35876399278640747,0.8010204081632654,0.6189348101615906,0.709616573902288
807,0.3527660369873047,0.8341658341658341,0.6383485198020935,0.6935909328766471
808,0.35060766339302063,0.8088042909471481,0.6883147358894348,0.6399659863945578
809,0.34915798902511597,0.836080586080586,0.6374635100364685,0.709616573902288
810,0.3460099697113037,0.836080586080586,0.6688661575317383,0.74153465582037
811,0.3544904291629791,0.8010204081632654,0.6297021508216858,0.7764172335600907
812,0.3527635931968689,0.836080586080586,0.6284944415092468,0.709616573902288
813,0.34218716621398926,0.8310439560439561,0.6562708020210266,0.753439417725132
814,0.3685532212257385,0.8010204081632654,1.2348145246505737,0.58429427715142
815,0.3674059808254242,0.8078088578088577,1.1001452207565308,0.5489403453689168
816,0.4086354076862335,0.8151348651348652,0.9016774296760559,0.5588161838161838
817,0.37015658617019653,0.8435897435897435,0.6435500383377075,0.7229972408543838
818,0.4481665790081024,0.7817714031999745,2.645960569381714,0.1875
819,0.39711862802505493,0.8348901098901099,1.770955204963684,0.29009353741496596
820,0.3766348659992218,0.795054945054945,1.563604712486267,0.4586309523809523
821,0.36848369240760803,0.8264735264735265,0.6784384846687317,0.7653441796298939
822,0.3870522975921631,0.7925907425907426,0.5730666518211365,0.706369820655535
823,0.35466957092285156,0.812912087912088,0.7278164625167847,0.5932771593485879
824,0.36470887064933777,0.8063186813186813,0.6099762320518494,0.706369820655535
825,0.3601299822330475,0.833974358974359,0.9398220181465149,0.5723942723942724
826,0.3584098815917969,0.8284275248560962,0.6115156412124634,0.759115884115884
827,0.3589114248752594,0.8184065934065935,0.7071582674980164,0.6975798011512298
828,0.3498910963535309,0.8264652014652015,0.637161135673523,0.7402014652014651
829,0.35881325602531433,0.8255494505494506,0.6963497996330261,0.6293083900226757
830,0.34284210205078125,0.8200549450549451,0.7595590949058533,0.6146541950113378
831,0.35375192761421204,0.8255494505494506,0.6108285188674927,0.7723356009070294
832,0.34099307656288147,0.8406593406593406,0.6280179619789124,0.759508348794063
833,0.3463590145111084,0.8255494505494506,0.6350011229515076,0.7333333333333334
834,0.3452989161014557,0.8034406070120356,0.6543015837669373,0.7526402169259311
835,0.35394611954689026,0.8301282051282052,0.6151220202445984,0.7792560613989185
836,0.3457132875919342,0.8056384092098378,0.6782769560813904,0.7181972789115646
837,0.3624250590801239,0.805607487750345,0.7691088914871216,0.5895562770562771
838,0.3421035706996918,0.847069597069597,0.6349025368690491,0.7681984681984682
839,0.3626459240913391,0.8264735264735265,0.7311649918556213,0.6159168212739641
840,0.3472929298877716,0.7996860282574568,0.6859459280967712,0.7052102659245516
841,0.3818686902523041,0.8255494505494506,0.5973008871078491,0.7787981859410431
842,0.3638932406902313,0.8268315018315018,1.2173224687576294,0.4903239617525332
843,0.46075814962387085,0.8117549117549115,1.308744192123413,0.5824175824175823
844,0.3864096999168396,0.806085581085581,2.8888208866119385,0.18422619047619046
845,0.4023880660533905,0.7718995290423861,0.7589689493179321,0.6602813852813852
846,0.39129549264907837,0.8346237096237096,0.6710448265075684,0.7491758241758241
847,0.35968104004859924,0.8188121402407117,0.5890005230903625,0.757560296846011
848,0.3655851185321808,0.8378990057561486,0.6967678070068359,0.6852421388135674
849,0.3543691337108612,0.8246336996336997,0.6272777318954468,0.6852421388135674
850,0.35627245903015137,0.8234432234432234,0.6917157769203186,0.7033652855081426
851,0.3525075614452362,0.831959706959707,0.5953089594841003,0.709616573902288
852,0.3460402190685272,0.8319680319680319,0.6571081876754761,0.6935909328766471
853,0.3472185432910919,0.8424908424908425,0.7271297574043274,0.6752854288568574
854,0.3446878492832184,0.8394688644688645,0.6426105499267578,0.6803874696731839
855,0.33851316571235657,0.831959706959707,0.6902631521224976,0.6752854288568574
856,0.345088928937912,0.836080586080586,0.6082653999328613,0.759115884115884
857,0.3411727547645569,0.8034406070120356,0.6373028755187988,0.7729611658183086
858,0.34841060638427734,0.8301282051282052,0.6033429503440857,0.7694650587507731
859,0.3368137776851654,0.8139717425431711,0.6733800172805786,0.7248866213151928
860,0.3452185094356537,0.836080586080586,0.7518047094345093,0.5927875695732838
861,0.33522358536720276,0.8406593406593406,0.6975561380386353,0.6752854288568574
862,0.3391103744506836,0.8255494505494506,0.6417261958122253,0.6836342229199373
863,0.3367082178592682,0.8034406070120356,0.6361413598060608,0.7507575757575758
864,0.3452436923980713,0.8301282051282052,0.6103447675704956,0.7631202131202132
865,0.3301675021648407,0.8674777603349033,0.6660313010215759,0.729421768707483
866,0.33649757504463196,0.8610675039246468,0.8054698705673218,0.6012188208616779
867,0.3333664536476135,0.8248299319727891,0.6202696561813354,0.6996598639455783
868,0.3290683925151825,0.8406593406593406,0.6153748631477356,0.7524221809936095
869,0.3347565829753876,0.8034406070120356,0.8398481011390686,0.6505102040816325
870,0.3435519337654114,0.8418367346938777,0.6902122497558594,0.610969387755102
871,0.3435433506965637,0.8042582417582417,0.6980862617492676,0.6752854288568574
872,0.34846231341362,0.8088042909471481,0.738875687122345,0.5863919810348381
873,0.3423861861228943,0.8230495694781409,0.621742308139801,0.7552447552447552
874,0.35289353132247925,0.8415834165834166,0.6347819566726685,0.7012677798392083
875,0.32980939745903015,0.8496206174777603,0.8276365995407104,0.5907312925170068
876,0.34454137086868286,0.8214368964368965,0.6958168148994446,0.7226473922902494
877,0.3280867040157318,0.8185504971219257,0.7726914286613464,0.6752854288568574
878,0.33947110176086426,0.809720041862899,0.8801640868186951,0.6069882498453927
879,0.33736151456832886,0.8144296180010465,0.9149724245071411,0.6521323914181058
880,0.33681589365005493,0.8511904761904762,1.1097596883773804,0.6477106227106227
881,0.327138751745224,0.8330062794348508,0.6452022790908813,0.7071428571428572
882,0.33676645159721375,0.8365467865467865,0.7146488428115845,0.7123866213151927
883,0.32636308670043945,0.802721088435374,0.6956016421318054,0.6752854288568574
884,0.32825663685798645,0.8406593406593406,0.8034452199935913,0.5896980004122861
885,0.3359397351741791,0.8205346241060527,0.9851804971694946,0.6477106227106227
886,0.3462350368499756,0.8127289377289377,0.7312316298484802,0.6752854288568574
887,0.33615294098854065,0.7951072736787023,0.618199348449707,0.7524891774891774
888,0.3438243567943573,0.8470779220779221,1.431683897972107,0.4869440083725798
889,0.3389412462711334,0.8394165358451072,1.0056772232055664,0.6521323914181058
890,0.34712687134742737,0.8524891774891775,1.2620233297348022,0.4965136054421769
891,0.34174051880836487,0.8387231815803246,1.3938664197921753,0.45595238095238094
892,0.42370954155921936,0.8073509823509823,1.118348240852356,0.572781979924837
893,0.3782261312007904,0.8161386232814805,0.9531726837158203,0.5214079571222427
894,0.4636903405189514,0.7995587745587746,0.7502117156982422,0.6741104133961277
895,0.4183122217655182,0.7989470846613703,2.1574976444244385,0.30957286760858194
896,0.4342263638973236,0.8089743589743589,0.9976388812065125,0.6003607503607503
897,0.39251473546028137,0.8156593406593406,1.0138825178146362,0.539625850340136
898,0.41934749484062195,0.7615384615384614,0.8445228338241577,0.6933487147772863
899,0.6273332238197327,0.7577664399092969,6.820968151092529,0.1875
900,0.5725252032279968,0.7145640074211502,7.001236915588379,0.1875
901,0.4815812110900879,0.7287334689120403,2.1449856758117676,0.3125
902,0.43381914496421814,0.7994588744588745,2.8799946308135986,0.3125
903,0.4255026876926422,0.8113636363636364,1.6550273895263672,0.3125
904,0.4231860935688019,0.762567194710052,1.1168625354766846,0.4586309523809523
905,0.41158124804496765,0.7817979639408211,0.6479038000106812,0.7681984681984682
906,0.4017229974269867,0.8147519147519147,0.7590020298957825,0.5903911564625851
907,0.3966996371746063,0.833066933066933,0.7046633958816528,0.6866496598639455
908,0.391782283782959,0.8120177441606014,0.6650476455688477,0.7148371469800041
909,0.3887721002101898,0.8089874411302983,0.6505730748176575,0.7681984681984682
910,0.3859806954860687,0.8089874411302983,0.6935395002365112,0.6852421388135674
911,0.38299664855003357,0.8025771847200419,0.7152093648910522,0.6852421388135674
912,0.38041239976882935,0.8184065934065935,0.733985960483551,0.6852421388135674
913,0.3778223991394043,0.8184065934065935,0.7465067505836487,0.6852421388135674
914,0.3753497898578644,0.8184065934065935,0.7616166472434998,0.6852421388135674
915,0.37248334288597107,0.8184065934065935,0.7822315096855164,0.6852421388135674
916,0.3694517910480499,0.8184065934065935,0.7943573594093323,0.6752854288568574
917,0.36667051911354065,0.8184065934065935,0.7804418206214905,0.6752854288568574
918,0.3647937476634979,0.8184065934065935,0.7846314311027527,0.6752854288568574
919,0.3620789051055908,0.8255494505494506,0.7446202039718628,0.6752854288568574
920,0.3602544665336609,0.8255494505494506,0.7199129462242126,0.6752854288568574
921,0.3583480417728424,0.8255494505494506,0.6765822172164917,0.6776402169259311
922,0.3562455177307129,0.8255494505494506,0.6900073885917664,0.6752854288568574
923,0.3554179072380066,0.8255494505494506,0.653803288936615,0.743482707768422
924,0.35408809781074524,0.8255494505494506,0.7094597816467285,0.6752854288568574
925,0.35425975918769836,0.8255494505494506,0.6409616470336914,0.7347319347319347
926,0.3539568781852722,0.8255494505494506,0.6573346853256226,0.743482707768422
927,0.35297730565071106,0.8301282051282052,0.6882727742195129,0.6752854288568574
928,0.34791871905326843,0.8255494505494506,0.7008159756660461,0.6752854288568574
929,0.35092711448669434,0.8255494505494506,0.6361528038978577,0.7247752247752247
930,0.34647178649902344,0.8255494505494506,0.6953238844871521,0.6752854288568574
931,0.3525685667991638,0.8406593406593406,0.6346585154533386,0.7729611658183086
932,0.3469636142253876,0.831959706959707,0.6778300404548645,0.6776402169259311
933,0.349957138299942,0.8406593406593406,0.6397345662117004,0.7824437467294609
934,0.3427947163581848,0.831959706959707,0.6616589426994324,0.6836342229199373
935,0.3489375114440918,0.8406593406593406,0.6278489828109741,0.7463532499246784
936,0.34306812286376953,0.831959706959707,0.6786600947380066,0.6776402169259311
937,0.3464964032173157,0.8406593406593406,0.717790424823761,0.6752854288568574
938,0.34090739488601685,0.8080193615907901,0.7698717713356018,0.6761512297226583
939,0.34820491075515747,0.8168498168498168,0.654671847820282,0.6836342229199373
940,0.3423793911933899,0.818841872413301,0.7744966149330139,0.6761512297226583
941,0.35543638467788696,0.8074306645735218,0.6138013601303101,0.7723356009070294
942,0.3438560962677002,0.8271520146520146,0.7240563631057739,0.6752854288568574
943,0.3489047586917877,0.809720041862899,0.6472182273864746,0.743482707768422
944,0.3382072150707245,0.8365384615384616,0.7567985653877258,0.6876230911945198
945,0.3467532694339752,0.8466117216117216,0.7651162147521973,0.6898874934589221
946,0.33491891622543335,0.8080193615907901,0.7467748522758484,0.6752854288568574
947,0.34162163734436035,0.8406593406593406,0.7989810705184937,0.6488095238095238
948,0.3326697051525116,0.8234206269920555,0.8247044682502747,0.6761512297226583
949,0.3441389501094818,0.8142987964416536,0.6294611692428589,0.7007575757575758
950,0.33737725019454956,0.8251522287236572,0.9194883108139038,0.6497514390371534
951,0.34382253885269165,0.8445054945054945,0.6351642608642578,0.7152133580705009
952,0.342644065618515,0.7945120355834642,0.9846915602684021,0.6521323914181058
953,0.3427160084247589,0.8130952380952381,0.772041380405426,0.5954931972789116
954,0.35142406821250916,0.8243066457352172,0.8146126866340637,0.6502081252081251
955,0.34651070833206177,0.8393939393939395,1.45661461353302,0.4586309523809523
956,0.3375166356563568,0.8083107368821655,0.6697336435317993,0.6905277262420119
957,0.3510079085826874,0.8337912087912088,0.6025105714797974,0.7518227803942089
958,0.33307936787605286,0.8429344465058752,0.8765860199928284,0.6896258503401361
959,0.35612890124320984,0.833974358974359,0.6437916159629822,0.7473356009070294
960,0.3326389789581299,0.8397959183673469,1.0394203662872314,0.6536204866562009
961,0.3477797508239746,0.809720041862899,0.8010691404342651,0.6524725274725275
962,0.3289431631565094,0.8365384615384616,0.7660803198814392,0.6887600494743352
963,0.3371412754058838,0.8406593406593406,0.8193931579589844,0.6387362637362637
964,0.3229498267173767,0.8234206269920554,0.6713864207267761,0.6964131106988249
965,0.3277030289173126,0.8255494505494506,0.9468907713890076,0.6541732077446364
966,0.33101075887680054,0.8185504971219257,0.7801453471183777,0.5868351886209029
967,0.328370600938797,0.8323260073260073,0.9721072316169739,0.576073926073926
968,0.3240375518798828,0.8234206269920554,1.1376582384109497,0.6536204866562009
969,0.3348730504512787,0.8393939393939395,0.7588357925415039,0.603445165945166
970,0.3280577063560486,0.8056384092098378,1.5575573444366455,0.3976190476190476
971,0.33076047897338867,0.8679356357927785,1.2680938243865967,0.6491987179487179
972,0.336598664522171,0.8273809523809524,1.5503431558609009,0.4537807430664573
973,0.3380042016506195,0.8125981161695447,1.6420953273773193,0.2177295918367347
974,0.3476051688194275,0.8232600732600732,1.1004143953323364,0.5984301412872842
975,0.33931368589401245,0.8237720612720612,0.8465858101844788,0.5897186147186148
976,0.32469552755355835,0.8615253793825222,1.0275216102600098,0.6512395342752485
977,0.33238381147384644,0.8211788211788212,0.6658291816711426,0.6964131106988249
978,0.3234352469444275,0.8026414062128348,1.033697247505188,0.6536204866562009
979,0.32615146040916443,0.8387362637362636,0.6544294953346252,0.716927120498549
980,0.3328000605106354,0.8679356357927785,2.2619788646698,0.38690476190476186
981,0.34662172198295593,0.8229849515563803,0.6610075235366821,0.6908008658008659
982,0.3699243664741516,0.7984551163122592,0.9083455204963684,0.5807942057942058
983,0.3942985534667969,0.814935064935065,4.702765941619873,0.1875
984,0.3681558072566986,0.8062437562437562,1.2256463766098022,0.5278126635269492
985,0.36510998010635376,0.8264652014652014,1.4172605276107788,0.4586309523809523
986,0.34852924942970276,0.8455080633652062,0.7192187309265137,0.6752854288568574
987,0.3580714762210846,0.8615337043908473,0.6143661141395569,0.7461992372706658
988,0.3353669345378876,0.788749345892203,0.9329686164855957,0.5349914965986394
989,0.3436833322048187,0.8214368964368965,1.3967081308364868,0.42121598639455776
990,0.3243713974952698,0.8615337043908473,1.1750556230545044,0.5116529304029304
991,0.3181304633617401,0.8610675039246468,0.9251318573951721,0.6477106227106227
992,0.31145337224006653,0.8705163883735312,0.7902643084526062,0.6640371533228676
993,0.30611878633499146,0.8769266447837876,1.2580721378326416,0.42270408163265305
994,0.30634430050849915,0.8769266447837876,0.7877289652824402,0.6295525902668759
995,0.31067806482315063,0.820094191522763,1.2700518369674683,0.4601190476190476
996,0.31270885467529297,0.8913824270967128,0.557420551776886,0.7690991548134406
997,0.3170660138130188,0.81709718852576,0.6017733216285706,0.7006184291898577
998,0.31769779324531555,0.8956995385566815,0.6269040703773499,0.7120902906617192
999,0.3105955123901367,0.8574045002616429,0.6098360419273376,0.7373788909503195
