,loss,recall,val_loss,val_recall
0,0.7205820679664612,0.6779999732971191,2.534376621246338,0.34377777576446533
1,0.24077394604682922,0.9319999814033508,1.6723769903182983,0.36666667461395264
2,0.2084260731935501,0.9300000071525574,1.441912293434143,0.38466668128967285
3,0.1680927276611328,0.9319999814033508,0.32747459411621094,0.9062222242355347
4,0.15207095444202423,0.9480000138282776,0.2905438244342804,0.9148889183998108
5,0.13059256970882416,0.9559999704360962,0.32013750076293945,0.9146666526794434
6,0.12227767705917358,0.9660000205039978,0.3766499161720276,0.9075555801391602
7,0.10346684604883194,0.9639999866485596,0.33311593532562256,0.891777753829956
8,0.09872794896364212,0.9679999947547913,0.623842179775238,0.6564444303512573
9,0.09653405845165253,0.9760000109672546,0.4153152406215668,0.8564444184303284
10,0.0860304981470108,0.9739999771118164,0.624448835849762,0.5991111397743225
11,0.07848251610994339,0.972000002861023,0.5956680774688721,0.7022222280502319
12,0.07420314848423004,0.9779999852180481,0.7124521136283875,0.5960000157356262
13,0.08460240811109543,0.9700000286102295,0.8368268609046936,0.5826666951179504
14,0.08956263214349747,0.9700000286102295,0.4062070846557617,0.8426666855812073
15,0.09458070993423462,0.9700000286102295,0.8497635722160339,0.5124444365501404
16,0.08775434643030167,0.972000002861023,0.4778415858745575,0.6737777590751648
17,0.07450871169567108,0.9779999852180481,0.3801034390926361,0.8293333053588867
18,0.07441987842321396,0.9760000109672546,0.3570984899997711,0.8968889117240906
19,0.07010627537965775,0.9800000190734863,0.2825276851654053,0.9304444193840027
20,0.07336853444576263,0.9700000286102295,0.5045438408851624,0.8464444279670715
21,0.0773056298494339,0.9779999852180481,0.2688925266265869,0.9028888940811157
22,0.06951815634965897,0.972000002861023,0.33660852909088135,0.8808888792991638
23,0.06176767870783806,0.9819999933242798,0.23979733884334564,0.9231111407279968
24,0.05420776084065437,0.9819999933242798,0.2292146235704422,0.9306666851043701
25,0.04896461218595505,0.9800000190734863,0.3593674898147583,0.9179999828338623
26,0.03728163614869118,0.9860000014305115,0.2738233804702759,0.914222240447998
27,0.02884168177843094,0.9919999837875366,0.2274462729692459,0.9348888993263245
28,0.032489463686943054,0.9900000095367432,0.40092501044273376,0.8346666693687439
29,0.03850053623318672,0.9819999933242798,0.29742518067359924,0.8837777972221375
30,0.0655389204621315,0.9800000190734863,0.2934613525867462,0.9371111392974854
31,0.055466149002313614,0.9779999852180481,0.3474883437156677,0.9386666417121887
32,0.04287496954202652,0.9860000014305115,0.4045828580856323,0.940666675567627
33,0.056793540716171265,0.9800000190734863,0.4579553008079529,0.8604444265365601
34,0.05477064475417137,0.9779999852180481,0.5377172827720642,0.8193333148956299
35,0.0629909560084343,0.9779999852180481,0.3009171485900879,0.9393333196640015
36,0.05317376181483269,0.9779999852180481,0.3000137209892273,0.9206666946411133
37,0.05879315361380577,0.9800000190734863,0.3047788441181183,0.8973333239555359
38,0.0466265045106411,0.984000027179718,0.4964401125907898,0.8057777881622314
39,0.032704390585422516,0.9879999756813049,0.498539000749588,0.8213333487510681
40,0.023594997823238373,0.9940000176429749,0.44935742020606995,0.843999981880188
41,0.018288806080818176,0.9959999918937683,0.30928754806518555,0.9308888912200928
42,0.026840852573513985,0.9900000095367432,0.2811260223388672,0.9095555543899536
43,0.03386208415031433,0.9900000095367432,0.2979464530944824,0.9106666445732117
44,0.023919599130749702,0.9959999918937683,0.3097819685935974,0.9231111407279968
45,0.02607991360127926,0.9919999837875366,0.4598395824432373,0.9139999747276306
46,0.036676228046417236,0.9879999756813049,0.3884769380092621,0.9075555801391602
47,0.024480681866407394,0.9919999837875366,0.8465040326118469,0.9262222051620483
48,0.04806746169924736,0.984000027179718,0.5438539385795593,0.9273333549499512
49,0.05167935788631439,0.984000027179718,0.675032377243042,0.8186666369438171
50,0.02880275622010231,0.9900000095367432,0.5882959365844727,0.8562222123146057
51,0.024044083431363106,0.9900000095367432,0.36526167392730713,0.9188888669013977
52,0.03577379137277603,0.9919999837875366,0.4453136920928955,0.874666690826416
53,0.020404445007443428,0.9940000176429749,0.5955370664596558,0.8837777972221375
54,0.00731842452660203,1.0,0.45742833614349365,0.9157778024673462
55,0.009396107867360115,0.9980000257492065,0.7818612456321716,0.7611111402511597
56,0.01117036398500204,0.9959999918937683,0.3780767321586609,0.9064444303512573
57,0.012471780180931091,0.9959999918937683,0.34818607568740845,0.9188888669013977
58,0.015999045222997665,0.9980000257492065,0.4259186089038849,0.9133333563804626
59,0.006218885071575642,1.0,0.37697693705558777,0.9304444193840027
60,0.0051253861747682095,1.0,0.36926162242889404,0.9295555353164673
61,0.006229109596461058,0.9980000257492065,0.3465530574321747,0.9271110892295837
62,0.016744595021009445,0.9980000257492065,0.4571337401866913,0.8775555491447449
63,0.012847112491726875,0.9919999837875366,0.4505635201931,0.9362221956253052
64,0.026902219280600548,0.9900000095367432,0.5149069428443909,0.8502222299575806
65,0.013880540616810322,0.9980000257492065,0.4161716401576996,0.9266666769981384
66,0.039134010672569275,0.9879999756813049,0.936529278755188,0.7395555377006531
67,0.01359977200627327,0.9959999918937683,1.151548147201538,0.7464444637298584
68,0.009815900586545467,0.9980000257492065,0.43969953060150146,0.9108889102935791
69,0.007753175217658281,0.9980000257492065,0.6728090643882751,0.8302222490310669
70,0.006835574749857187,1.0,0.43613511323928833,0.9157778024673462
71,0.01343114860355854,0.9980000257492065,0.5234204530715942,0.8564444184303284
72,0.003929274156689644,1.0,0.3995886445045471,0.9106666445732117
73,0.003743914421647787,1.0,0.35980281233787537,0.9353333115577698
74,0.0052637457847595215,0.9980000257492065,0.362805038690567,0.9264444708824158
75,0.0034430897794663906,0.9980000257492065,0.39373764395713806,0.9222221970558167
76,0.0017636386910453439,1.0,0.38519206643104553,0.9355555772781372
77,0.0015849471092224121,1.0,0.37753432989120483,0.9377777576446533
78,0.0014315993757918477,1.0,0.37653782963752747,0.9391111135482788
79,0.0009383884025737643,1.0,0.3624367415904999,0.9344444274902344
80,0.0005411443999037147,1.0,0.3617025911808014,0.9311110973358154
81,0.0005308702238835394,1.0,0.36455658078193665,0.9322222471237183
82,0.0004266777541488409,1.0,0.3674122393131256,0.9331111311912537
83,0.0005228397785685956,1.0,0.36914440989494324,0.9346666932106018
84,0.0004316274425946176,1.0,0.37167102098464966,0.9353333115577698
85,0.0003356246743351221,1.0,0.3742245137691498,0.9364444613456726
86,0.0004978600773029029,1.0,0.3742660880088806,0.9355555772781372
87,0.0005827349377796054,1.0,0.3742949366569519,0.9344444274902344
88,0.00029911575256846845,1.0,0.3705490529537201,0.9326666593551636
89,0.00047943746903911233,1.0,0.37644264101982117,0.9337777495384216
90,0.00031786435283720493,1.0,0.38277021050453186,0.9364444613456726
91,0.0004596881626639515,1.0,0.38552919030189514,0.9371111392974854
92,0.0003046303172595799,1.0,0.3875453472137451,0.9380000233650208
93,0.0002457855734974146,1.0,0.3892402946949005,0.9368888735771179
94,0.00043085627839900553,1.0,0.38951507210731506,0.9377777576446533
95,0.00032701154123060405,1.0,0.3907172977924347,0.9377777576446533
96,0.00029313316917978227,1.0,0.39192700386047363,0.9384444355964661
97,0.0002809355210047215,1.0,0.39340755343437195,0.9375555515289307
98,0.0003151920100208372,1.0,0.39484384655952454,0.9375555515289307
99,0.0002764616801869124,1.0,0.3974226415157318,0.9377777576446533
100,0.00014428795839194208,1.0,0.39701342582702637,0.9375555515289307
101,0.0001531935849925503,1.0,0.3980105519294739,0.9380000233650208
102,0.00031869750819168985,1.0,0.39569658041000366,0.9368888735771179
103,0.0005393879255279899,1.0,0.39521902799606323,0.9357777833938599
104,0.0003654620668385178,1.0,0.396331787109375,0.9359999895095825
105,0.0001874543377198279,1.0,0.39883095026016235,0.9364444613456726
106,0.00015809795877430588,1.0,0.4018458127975464,0.937333345413208
107,0.00028946177917532623,1.0,0.40373465418815613,0.9371111392974854
108,0.00015859307313803583,1.0,0.40512919425964355,0.937333345413208
109,0.0001365562347928062,1.0,0.4065626561641693,0.937333345413208
110,0.0002317103644600138,1.0,0.4066035747528076,0.9382222294807434
111,0.00014819932403042912,1.0,0.40741994976997375,0.9384444355964661
112,0.00014841760275885463,1.0,0.4090912938117981,0.9380000233650208
113,0.00013573153410106897,1.0,0.41018256545066833,0.9377777576446533
114,0.00016079249326139688,1.0,0.4109107255935669,0.9380000233650208
115,0.00015510624507442117,1.0,0.4117363393306732,0.9375555515289307
116,0.0001491280854679644,1.0,0.41029873490333557,0.9375555515289307
117,0.0001325834746239707,1.0,0.4093533456325531,0.9377777576446533
118,0.00017471126921009272,1.0,0.408415287733078,0.9368888735771179
119,0.00012081844033673406,1.0,0.40919050574302673,0.9368888735771179
120,0.00015319944941438735,1.0,0.4105169475078583,0.9368888735771179
121,0.0001308420905843377,1.0,0.412053644657135,0.9375555515289307
122,0.0001766415371093899,1.0,0.4134022891521454,0.9375555515289307
123,0.00010245250450680032,1.0,0.414423406124115,0.9371111392974854
124,0.00010811546962941065,1.0,0.41524556279182434,0.937333345413208
125,0.00013686754391528666,1.0,0.41475391387939453,0.9368888735771179
126,0.00018142018234357238,1.0,0.4130570888519287,0.9377777576446533
127,0.00018422510765958577,1.0,0.41301462054252625,0.9377777576446533
128,0.00010939430649159476,1.0,0.4140676259994507,0.9377777576446533
129,0.00012359535321593285,1.0,0.4139833450317383,0.937333345413208
130,0.00013606701395474374,1.0,0.4145222008228302,0.9375555515289307
131,0.0001571808970766142,1.0,0.4157702922821045,0.937333345413208
132,0.00016066947137005627,1.0,0.41574424505233765,0.937333345413208
133,8.857496140990406e-05,1.0,0.4153643548488617,0.937333345413208
134,8.678103768033907e-05,1.0,0.4157341420650482,0.9371111392974854
135,0.00022675258514937013,1.0,0.41530781984329224,0.9362221956253052
136,0.00018012209329754114,1.0,0.4148254096508026,0.9357777833938599
137,7.542256207671016e-05,1.0,0.41550666093826294,0.9364444613456726
138,8.334040467161685e-05,1.0,0.4164137542247772,0.9368888735771179
139,0.0001769304508343339,1.0,0.41746583580970764,0.9364444613456726
140,7.797394209774211e-05,1.0,0.41728127002716064,0.9366666674613953
141,8.966351742856205e-05,1.0,0.4179895520210266,0.9371111392974854
142,0.00019161768432240933,1.0,0.4207840859889984,0.9371111392974854
143,0.0001377421576762572,1.0,0.42369258403778076,0.9371111392974854
144,9.734150080475956e-05,1.0,0.42475950717926025,0.9368888735771179
145,0.00015282919048331678,1.0,0.42456769943237305,0.9371111392974854
146,8.4612489445135e-05,1.0,0.42374831438064575,0.9368888735771179
147,0.00013239384861662984,1.0,0.4239758551120758,0.9362221956253052
148,0.0001649935875320807,1.0,0.4224611520767212,0.9366666674613953
149,7.8161436249502e-05,1.0,0.4216688573360443,0.937333345413208
150,9.536657307762653e-05,1.0,0.42184847593307495,0.9375555515289307
151,9.27529763430357e-05,1.0,0.42232808470726013,0.9375555515289307
152,8.251475810538977e-05,1.0,0.4219966530799866,0.937333345413208
153,0.00010351199307478964,1.0,0.42171090841293335,0.937333345413208
154,0.00010200372344115749,1.0,0.42230045795440674,0.9371111392974854
155,0.00010660144471330568,1.0,0.4231167435646057,0.9368888735771179
156,0.00020717633015010506,1.0,0.4230605363845825,0.9357777833938599
157,7.728989294264466e-05,1.0,0.42353829741477966,0.9357777833938599
158,8.98205689736642e-05,1.0,0.42434701323509216,0.9357777833938599
159,5.535623131436296e-05,1.0,0.425155907869339,0.9357777833938599
160,6.81647943565622e-05,1.0,0.42589879035949707,0.9362221956253052
161,6.0173428209964186e-05,1.0,0.4266056716442108,0.9362221956253052
162,0.00011356147297192365,1.0,0.4275076389312744,0.9366666674613953
163,0.0001352526160189882,1.0,0.42892974615097046,0.9368888735771179
164,9.532366675557569e-05,1.0,0.4312784969806671,0.9366666674613953
165,9.140697511611506e-05,1.0,0.4320683181285858,0.9371111392974854
166,8.916259685065597e-05,1.0,0.4319722056388855,0.9371111392974854
167,0.00012868322664871812,1.0,0.43184494972229004,0.9371111392974854
168,8.49036150611937e-05,1.0,0.43179941177368164,0.9371111392974854
169,5.295995651977137e-05,1.0,0.43189528584480286,0.9371111392974854
170,8.309140685014427e-05,1.0,0.4323275089263916,0.9371111392974854
171,7.779551378916949e-05,1.0,0.4327593445777893,0.937333345413208
172,0.00011917098163394257,1.0,0.4329947829246521,0.9375555515289307
173,5.681524271494709e-05,1.0,0.4329720437526703,0.9375555515289307
174,8.860578236635774e-05,1.0,0.43309229612350464,0.9375555515289307
175,7.781846943544224e-05,1.0,0.43342503905296326,0.937333345413208
176,6.810165359638631e-05,1.0,0.43346554040908813,0.9371111392974854
177,7.763427856843919e-05,1.0,0.43347764015197754,0.937333345413208
178,7.160495442803949e-05,1.0,0.4335748255252838,0.9371111392974854
179,7.081348303472623e-05,1.0,0.4337846636772156,0.9371111392974854
180,5.710128243663348e-05,1.0,0.4339137673377991,0.9371111392974854
181,9.411184873897582e-05,1.0,0.4332379698753357,0.937333345413208
182,8.482783596264198e-05,1.0,0.4325312376022339,0.9375555515289307
183,0.00012898084241896868,1.0,0.4311002790927887,0.9380000233650208
184,5.5166521633509547e-05,1.0,0.4296170771121979,0.9377777576446533
185,0.00010365172784077004,1.0,0.4293004274368286,0.9371111392974854
186,5.546647298615426e-05,1.0,0.4301506280899048,0.9375555515289307
187,8.841430826578289e-05,1.0,0.4309978783130646,0.9377777576446533
188,0.00010438629396958277,1.0,0.43055465817451477,0.9368888735771179
189,7.783604087308049e-05,1.0,0.4302324652671814,0.9368888735771179
190,8.338908810401335e-05,1.0,0.42977583408355713,0.9368888735771179
191,7.578497024951503e-05,1.0,0.430637001991272,0.9368888735771179
192,6.286897405516356e-05,1.0,0.4313628375530243,0.9366666674613953
193,0.0001146384674939327,1.0,0.4318735599517822,0.9368888735771179
194,6.75415649311617e-05,1.0,0.4318580627441406,0.9368888735771179
195,6.985547952353954e-05,1.0,0.432396799325943,0.9366666674613953
196,6.424798630177975e-05,1.0,0.43237289786338806,0.9368888735771179
197,6.454293907154351e-05,1.0,0.4326929748058319,0.9368888735771179
198,7.143778930185363e-05,1.0,0.43253758549690247,0.9366666674613953
199,8.596578118158504e-05,1.0,0.43318113684654236,0.9371111392974854
200,4.889521369477734e-05,1.0,0.4338075518608093,0.937333345413208
201,7.058757182676345e-05,1.0,0.43416839838027954,0.937333345413208
202,4.4709206122206524e-05,1.0,0.43431901931762695,0.937333345413208
203,0.00014808638661634177,1.0,0.43419328331947327,0.937333345413208
204,9.856544784270227e-05,1.0,0.434162974357605,0.9368888735771179
205,5.025218706578016e-05,1.0,0.4341176748275757,0.9368888735771179
206,8.343280205735937e-05,1.0,0.43486353754997253,0.9368888735771179
207,6.122027116362005e-05,1.0,0.43569204211235046,0.9368888735771179
208,7.089645077940077e-05,1.0,0.43607768416404724,0.9368888735771179
209,9.388541366206482e-05,1.0,0.4363844394683838,0.9362221956253052
210,5.349632556317374e-05,1.0,0.436607301235199,0.9362221956253052
211,7.274593372130767e-05,1.0,0.4366982579231262,0.9362221956253052
212,7.250211638165638e-05,1.0,0.43696802854537964,0.9366666674613953
213,0.00012808457540813833,1.0,0.43562448024749756,0.9366666674613953
214,3.814095180132426e-05,1.0,0.43516626954078674,0.9364444613456726
215,4.758067007060163e-05,1.0,0.4350273013114929,0.9366666674613953
216,8.362347580259666e-05,1.0,0.4354896545410156,0.9366666674613953
217,5.260637408355251e-05,1.0,0.43565014004707336,0.9366666674613953
218,0.00014151383948046714,1.0,0.43615689873695374,0.9368888735771179
219,9.692704043118283e-05,1.0,0.43641147017478943,0.9366666674613953
220,5.1482307753758505e-05,1.0,0.43661564588546753,0.9366666674613953
221,8.095640077954158e-05,1.0,0.43702587485313416,0.9368888735771179
222,7.722136797383428e-05,1.0,0.43714067339897156,0.9368888735771179
223,6.137043965281919e-05,1.0,0.43712833523750305,0.9368888735771179
224,8.460247772745788e-05,1.0,0.43727776408195496,0.9368888735771179
225,6.469661457231268e-05,1.0,0.43694549798965454,0.9371111392974854
226,0.00015769575838930905,1.0,0.4371269643306732,0.9371111392974854
227,5.6975964980665594e-05,1.0,0.4369261860847473,0.9368888735771179
228,5.8614932640921324e-05,1.0,0.4370993375778198,0.9368888735771179
229,4.100791193195619e-05,1.0,0.43730810284614563,0.9368888735771179
230,6.342227425193414e-05,1.0,0.4375539720058441,0.9366666674613953
231,8.494549547322094e-05,1.0,0.4379369616508484,0.9366666674613953
232,5.0639038818189874e-05,1.0,0.43813762068748474,0.9366666674613953
233,5.798555139335804e-05,1.0,0.43844205141067505,0.9366666674613953
234,6.145897350506857e-05,1.0,0.43845659494400024,0.9368888735771179
235,6.790797488065436e-05,1.0,0.4382776916027069,0.9368888735771179
236,4.57267087767832e-05,1.0,0.43834778666496277,0.9368888735771179
237,6.578996544703841e-05,1.0,0.4385896921157837,0.9368888735771179
238,0.00013085636601317674,1.0,0.43930038809776306,0.9366666674613953
239,5.9314585087122396e-05,1.0,0.4399842619895935,0.9366666674613953
240,7.356933929258958e-05,1.0,0.44044792652130127,0.9368888735771179
241,0.000172555010067299,1.0,0.43993544578552246,0.9368888735771179
242,0.00010522687080083415,1.0,0.4391576051712036,0.9371111392974854
243,4.1038787458091974e-05,1.0,0.4389135241508484,0.9371111392974854
244,6.266690616030246e-05,1.0,0.4380255341529846,0.937333345413208
245,6.592068530153483e-05,1.0,0.4379114508628845,0.937333345413208
246,4.0891005482990295e-05,1.0,0.43830254673957825,0.9371111392974854
247,6.816208042437211e-05,1.0,0.4390445351600647,0.9371111392974854
248,6.620324711548164e-05,1.0,0.4386444687843323,0.9368888735771179
249,6.903209578013048e-05,1.0,0.43839383125305176,0.937333345413208
250,6.829979975009337e-05,1.0,0.4388023018836975,0.937333345413208
251,4.2175066482741386e-05,1.0,0.43918222188949585,0.937333345413208
252,9.942701581167057e-05,1.0,0.4399722218513489,0.937333345413208
253,5.3244439186528325e-05,1.0,0.44023606181144714,0.937333345413208
254,3.5814773582387716e-05,1.0,0.44046899676322937,0.937333345413208
255,4.3033935071434826e-05,1.0,0.4404758810997009,0.937333345413208
256,5.8152450947090983e-05,1.0,0.4403819441795349,0.937333345413208
257,0.0001026870304485783,1.0,0.43992897868156433,0.937333345413208
258,4.47762431576848e-05,1.0,0.4399612843990326,0.9368888735771179
259,8.391905430471525e-05,1.0,0.44072380661964417,0.9371111392974854
260,5.0658076361287385e-05,1.0,0.4413685202598572,0.937333345413208
261,5.138331471243873e-05,1.0,0.44173622131347656,0.9368888735771179
262,0.0002483690914232284,1.0,0.4376548230648041,0.9353333115577698
263,7.771161472192034e-05,1.0,0.43707403540611267,0.9353333115577698
264,4.584401904139668e-05,1.0,0.4373258948326111,0.9353333115577698
265,6.866877811262384e-05,1.0,0.43836769461631775,0.9353333115577698
266,4.1639930714154616e-05,1.0,0.439331978559494,0.9351111054420471
267,8.111235365504399e-05,1.0,0.4399840235710144,0.9355555772781372
268,4.842900307266973e-05,1.0,0.4407285749912262,0.9353333115577698
269,8.502097625751048e-05,1.0,0.4415646493434906,0.9348888993263245
270,6.503845361294225e-05,1.0,0.44232144951820374,0.9353333115577698
271,6.945960194570944e-05,1.0,0.4427185654640198,0.9357777833938599
272,0.00011595064279390499,1.0,0.44324740767478943,0.9359999895095825
273,4.5587174099637195e-05,1.0,0.4438987076282501,0.9364444613456726
274,4.758180511998944e-05,1.0,0.4443998634815216,0.9364444613456726
275,9.159574983641505e-05,1.0,0.4448324143886566,0.9364444613456726
276,4.698322300100699e-05,1.0,0.44484201073646545,0.9366666674613953
277,5.627117934636772e-05,1.0,0.44457781314849854,0.9364444613456726
278,4.249258927302435e-05,1.0,0.4445350170135498,0.9364444613456726
279,4.031090793432668e-05,1.0,0.44457077980041504,0.9366666674613953
280,4.604727291734889e-05,1.0,0.4447360634803772,0.9371111392974854
281,4.8073066864162683e-05,1.0,0.4449016749858856,0.9371111392974854
282,5.126759424456395e-05,1.0,0.4450840651988983,0.9371111392974854
283,3.9377515349769965e-05,1.0,0.4452284872531891,0.9371111392974854
284,5.6531007430749014e-05,1.0,0.445504367351532,0.9368888735771179
285,3.83597107429523e-05,1.0,0.44567862153053284,0.9368888735771179
286,4.73664331366308e-05,1.0,0.4458337724208832,0.9368888735771179
287,4.623827408067882e-05,1.0,0.44595882296562195,0.9366666674613953
288,5.5724663980072364e-05,1.0,0.44600608944892883,0.9366666674613953
289,4.8039379180409014e-05,1.0,0.4460670053958893,0.9366666674613953
290,7.474142330465838e-05,1.0,0.446127712726593,0.9362221956253052
291,4.895429447060451e-05,1.0,0.4459087550640106,0.9364444613456726
292,4.607487062457949e-05,1.0,0.4458690285682678,0.9368888735771179
293,6.51837108307518e-05,1.0,0.4460397958755493,0.9368888735771179
294,4.3203406676184386e-05,1.0,0.44614750146865845,0.9368888735771179
295,3.913749969797209e-05,1.0,0.44609010219573975,0.9368888735771179
296,4.025306407129392e-05,1.0,0.44598111510276794,0.9368888735771179
297,5.46816700079944e-05,1.0,0.44593003392219543,0.9368888735771179
298,3.8234429666772485e-05,1.0,0.4458675682544708,0.9368888735771179
299,4.099895159015432e-05,1.0,0.4457101821899414,0.9368888735771179
300,4.100854494026862e-05,1.0,0.44560834765434265,0.9366666674613953
301,3.695369741762988e-05,1.0,0.44550472497940063,0.9368888735771179
302,7.196194201242179e-05,1.0,0.44540685415267944,0.9366666674613953
303,0.00012087231152690947,1.0,0.4455423355102539,0.9366666674613953
304,3.3766500564524904e-05,1.0,0.44517794251441956,0.9368888735771179
305,0.00011573803203646094,1.0,0.4453563690185547,0.9366666674613953
306,6.127763481345028e-05,1.0,0.44570764899253845,0.9366666674613953
307,4.6635417675133795e-05,1.0,0.44583964347839355,0.9366666674613953
308,5.484369467012584e-05,1.0,0.44594597816467285,0.9366666674613953
309,9.806516027310863e-05,1.0,0.4458079934120178,0.9371111392974854
310,6.515459244837984e-05,1.0,0.4453628659248352,0.9368888735771179
311,3.928866135538556e-05,1.0,0.44548824429512024,0.937333345413208
312,0.00013110338477417827,1.0,0.4457980990409851,0.937333345413208
313,4.754916517413221e-05,1.0,0.44604596495628357,0.9377777576446533
314,5.6488188420189545e-05,1.0,0.4461364150047302,0.9377777576446533
315,5.1279737817822024e-05,1.0,0.44598740339279175,0.9380000233650208
316,3.905292760464363e-05,1.0,0.4459063410758972,0.9380000233650208
317,3.295250644441694e-05,1.0,0.44592517614364624,0.9380000233650208
318,3.667765122372657e-05,1.0,0.4460897445678711,0.9380000233650208
319,4.292328958399594e-05,1.0,0.4461163282394409,0.9380000233650208
320,5.918425813433714e-05,1.0,0.4461587965488434,0.9375555515289307
321,4.9609359848545864e-05,1.0,0.44595101475715637,0.9377777576446533
322,7.135397754609585e-05,1.0,0.4457800090312958,0.9377777576446533
323,5.902493285248056e-05,1.0,0.445858359336853,0.9377777576446533
324,3.793787254835479e-05,1.0,0.44557714462280273,0.9377777576446533
325,7.244265725603327e-05,1.0,0.445408433675766,0.9375555515289307
326,5.8233421441400424e-05,1.0,0.4454112648963928,0.937333345413208
327,7.860805635573342e-05,1.0,0.44572940468788147,0.937333345413208
328,3.7569861888187006e-05,1.0,0.44553008675575256,0.937333345413208
329,6.410745845641941e-05,1.0,0.4457337260246277,0.937333345413208
330,5.607122147921473e-05,1.0,0.446014940738678,0.937333345413208
331,0.00011890548921655864,1.0,0.4458112120628357,0.9375555515289307
332,4.126486601307988e-05,1.0,0.4456477761268616,0.9368888735771179
333,5.280892946757376e-05,1.0,0.4458329379558563,0.9366666674613953
334,3.218751953681931e-05,1.0,0.4457884430885315,0.9366666674613953
335,4.37850940215867e-05,1.0,0.445907860994339,0.9366666674613953
336,4.4234351662453264e-05,1.0,0.44613704085350037,0.9364444613456726
337,7.096509943949059e-05,1.0,0.4466937184333801,0.9364444613456726
338,4.325692498241551e-05,1.0,0.447180837392807,0.9366666674613953
339,4.197096495772712e-05,1.0,0.44726136326789856,0.9362221956253052
340,4.189675019006245e-05,1.0,0.44746506214141846,0.9362221956253052
341,4.2951800423907116e-05,1.0,0.447653204202652,0.9362221956253052
342,9.58787277340889e-05,1.0,0.44731587171554565,0.9362221956253052
343,4.576089486363344e-05,1.0,0.4470011293888092,0.9362221956253052
344,4.3663578253472224e-05,1.0,0.44695305824279785,0.9362221956253052
345,5.6017510360106826e-05,1.0,0.44684898853302,0.9364444613456726
346,4.4963238906348124e-05,1.0,0.4467821717262268,0.9364444613456726
347,5.370684084482491e-05,1.0,0.447066992521286,0.9364444613456726
348,3.591633139876649e-05,1.0,0.4470462203025818,0.9364444613456726
349,2.914202559622936e-05,1.0,0.44699251651763916,0.9364444613456726
350,9.470868826610968e-05,1.0,0.4468992054462433,0.9364444613456726
351,7.294778333744034e-05,1.0,0.44720426201820374,0.9366666674613953
352,4.239509144099429e-05,1.0,0.4475092887878418,0.9366666674613953
353,4.2253974243067205e-05,1.0,0.4479132294654846,0.9371111392974854
354,3.880786243826151e-05,1.0,0.44809088110923767,0.937333345413208
355,4.825759242521599e-05,1.0,0.4481528699398041,0.937333345413208
356,3.884788748109713e-05,1.0,0.4482559859752655,0.9371111392974854
357,0.0001514866598881781,1.0,0.4490188658237457,0.9366666674613953
358,4.0237158827949315e-05,1.0,0.44950348138809204,0.9371111392974854
359,3.656501939985901e-05,1.0,0.4497185945510864,0.9371111392974854
360,3.5505465348251164e-05,1.0,0.44983014464378357,0.9368888735771179
361,3.116730658803135e-05,1.0,0.4498763978481293,0.9366666674613953
362,5.312217035680078e-05,1.0,0.4501132071018219,0.9366666674613953
363,5.871468238183297e-05,1.0,0.45019638538360596,0.9364444613456726
364,2.815535663103219e-05,1.0,0.4501644968986511,0.9364444613456726
365,2.4932065571192652e-05,1.0,0.45022180676460266,0.9364444613456726
366,4.861588604399003e-05,1.0,0.4500797390937805,0.9364444613456726
367,2.2898670067661442e-05,1.0,0.4497769773006439,0.9362221956253052
368,4.3813535739900544e-05,1.0,0.44975605607032776,0.9362221956253052
369,3.209992792108096e-05,1.0,0.4496968388557434,0.9362221956253052
370,3.636119799921289e-05,1.0,0.4496094286441803,0.9359999895095825
371,3.6151177482679486e-05,1.0,0.44955113530158997,0.9359999895095825
372,2.8124923119321465e-05,1.0,0.44955384731292725,0.9359999895095825
373,4.504378011915833e-05,1.0,0.4496932625770569,0.9362221956253052
374,3.2077696232590824e-05,1.0,0.449643075466156,0.9362221956253052
375,3.486591958790086e-05,1.0,0.4497445523738861,0.9362221956253052
376,5.746041642851196e-05,1.0,0.4495343267917633,0.9364444613456726
377,3.130152617814019e-05,1.0,0.44942376017570496,0.9364444613456726
378,3.70381967513822e-05,1.0,0.44940119981765747,0.9366666674613953
379,3.854906026390381e-05,1.0,0.4494416117668152,0.9366666674613953
380,2.892809425247833e-05,1.0,0.44938924908638,0.9366666674613953
381,5.061782576376572e-05,1.0,0.44958609342575073,0.9366666674613953
382,5.8321009419159964e-05,1.0,0.44968968629837036,0.9362221956253052
383,2.7180401957593858e-05,1.0,0.4496704041957855,0.9362221956253052
384,8.4286744822748e-05,1.0,0.44992169737815857,0.9364444613456726
385,4.32474807894323e-05,1.0,0.45009979605674744,0.9364444613456726
386,7.153499609557912e-05,1.0,0.45028629899024963,0.9364444613456726
387,3.652983286883682e-05,1.0,0.45038318634033203,0.9368888735771179
388,8.436319330940023e-05,1.0,0.4502151310443878,0.9366666674613953
389,4.369446469354443e-05,1.0,0.4492941200733185,0.9368888735771179
390,5.7745066442294046e-05,1.0,0.4492512345314026,0.9368888735771179
391,4.608252856996842e-05,1.0,0.4493204355239868,0.9368888735771179
392,3.7354744563344866e-05,1.0,0.4492669403553009,0.9368888735771179
393,3.808545443462208e-05,1.0,0.44929036498069763,0.9368888735771179
394,5.301488999975845e-05,1.0,0.44949647784233093,0.9366666674613953
395,4.45957703050226e-05,1.0,0.4497617781162262,0.9366666674613953
396,6.819731061113998e-05,1.0,0.45011842250823975,0.9366666674613953
397,2.7961103114648722e-05,1.0,0.450330525636673,0.9368888735771179
398,2.5476707378402352e-05,1.0,0.4504804015159607,0.9368888735771179
399,4.258416447555646e-05,1.0,0.4505611062049866,0.9371111392974854
400,7.968167483340949e-05,1.0,0.45092031359672546,0.9371111392974854
401,4.874207661487162e-05,1.0,0.4509626030921936,0.9371111392974854
402,2.8786804250557907e-05,1.0,0.45096027851104736,0.9375555515289307
403,6.204862438607961e-05,1.0,0.4510021209716797,0.9375555515289307
404,5.71993223275058e-05,1.0,0.4508044719696045,0.9375555515289307
405,3.714282865985297e-05,1.0,0.45093226432800293,0.9371111392974854
406,8.779814379522577e-05,1.0,0.45130905508995056,0.9371111392974854
407,3.7458106817211956e-05,1.0,0.45085054636001587,0.9368888735771179
408,4.5398777729133144e-05,1.0,0.4510333836078644,0.9368888735771179
409,4.1023675294127315e-05,1.0,0.4513665735721588,0.9366666674613953
410,3.086488868575543e-05,1.0,0.4515935182571411,0.9364444613456726
411,3.5848199331667274e-05,1.0,0.4517129361629486,0.9366666674613953
412,5.5399803386535496e-05,1.0,0.45192649960517883,0.9366666674613953
413,4.9515052523929626e-05,1.0,0.45201849937438965,0.9368888735771179
414,4.981153688277118e-05,1.0,0.4521459937095642,0.9368888735771179
415,5.1588671340141445e-05,1.0,0.4523431062698364,0.9366666674613953
416,6.398559344233945e-05,1.0,0.4526151120662689,0.9366666674613953
417,3.663223469629884e-05,1.0,0.4529666602611542,0.9371111392974854
418,3.420995926717296e-05,1.0,0.453290194272995,0.9371111392974854
419,7.117816130630672e-05,1.0,0.45373430848121643,0.9366666674613953
420,3.2602973078610376e-05,1.0,0.4538209140300751,0.9366666674613953
421,2.918930294981692e-05,1.0,0.45358797907829285,0.9366666674613953
422,6.60053119645454e-05,1.0,0.4538305401802063,0.9366666674613953
423,2.235697138530668e-05,1.0,0.4537428915500641,0.9368888735771179
424,6.672784365946427e-05,1.0,0.4536922872066498,0.9368888735771179
425,2.732159373408649e-05,1.0,0.4535340666770935,0.9371111392974854
426,3.801770435529761e-05,1.0,0.4535626471042633,0.9371111392974854
427,3.0295168471639045e-05,1.0,0.4534761905670166,0.9371111392974854
428,0.00010503394150873646,1.0,0.4535297155380249,0.9371111392974854
429,6.5560445364099e-05,1.0,0.453891783952713,0.9377777576446533
430,2.940430204034783e-05,1.0,0.4542798697948456,0.9380000233650208
431,3.556598676368594e-05,1.0,0.4547986686229706,0.9377777576446533
432,5.281896301312372e-05,1.0,0.4552474915981293,0.9377777576446533
433,5.888890154892579e-05,1.0,0.4550941586494446,0.9377777576446533
434,5.3855943406233564e-05,1.0,0.4549153745174408,0.9377777576446533
435,5.495357254403643e-05,1.0,0.4550095498561859,0.9377777576446533
436,6.83825055602938e-05,1.0,0.4548225700855255,0.9375555515289307
437,4.3051346438005567e-05,1.0,0.4547463059425354,0.9375555515289307
438,2.7520372896105982e-05,1.0,0.4546632766723633,0.9375555515289307
439,4.4223579607205465e-05,1.0,0.45475074648857117,0.9371111392974854
440,5.481642438098788e-05,1.0,0.45428064465522766,0.937333345413208
441,4.5976215915288776e-05,1.0,0.45456430315971375,0.937333345413208
442,5.581496225204319e-05,1.0,0.45508766174316406,0.937333345413208
443,5.1649214583449066e-05,1.0,0.4557061195373535,0.937333345413208
444,3.5865286918124184e-05,1.0,0.4555845260620117,0.937333345413208
445,4.106730921193957e-05,1.0,0.455544650554657,0.9368888735771179
446,3.326188016217202e-05,1.0,0.4554218351840973,0.9366666674613953
447,3.487551657599397e-05,1.0,0.4553166627883911,0.9368888735771179
448,3.6087243643123657e-05,1.0,0.45519575476646423,0.9368888735771179
449,3.0802493711235e-05,1.0,0.45510220527648926,0.9368888735771179
450,2.9914283004472964e-05,1.0,0.4551536440849304,0.9368888735771179
451,3.236129487049766e-05,1.0,0.4550042748451233,0.9368888735771179
452,8.798341877991334e-05,1.0,0.45461687445640564,0.9371111392974854
453,3.135549195576459e-05,1.0,0.4541470408439636,0.9371111392974854
454,2.6190919015789405e-05,1.0,0.4540524482727051,0.9366666674613953
455,2.9943457775516436e-05,1.0,0.45420366525650024,0.9366666674613953
456,2.9329614335438237e-05,1.0,0.4542599022388458,0.9366666674613953
457,2.979248165502213e-05,1.0,0.4544939398765564,0.9368888735771179
458,2.0513914932962507e-05,1.0,0.4546390771865845,0.9371111392974854
459,7.023289799690247e-05,1.0,0.45478904247283936,0.9371111392974854
460,3.94667949876748e-05,1.0,0.4546360373497009,0.9364444613456726
461,3.064114207518287e-05,1.0,0.45484623312950134,0.9364444613456726
462,2.6517458536545746e-05,1.0,0.4553315341472626,0.9362221956253052
463,3.178859333274886e-05,1.0,0.45585790276527405,0.9362221956253052
464,5.589150168816559e-05,1.0,0.4561009705066681,0.9362221956253052
465,2.7427011445979588e-05,1.0,0.4561174511909485,0.9364444613456726
466,4.245227682986297e-05,1.0,0.45585665106773376,0.9366666674613953
467,4.4789889216190204e-05,1.0,0.45510008931159973,0.9368888735771179
468,4.29167557740584e-05,1.0,0.454679399728775,0.9368888735771179
469,2.123398007825017e-05,1.0,0.45464131236076355,0.9368888735771179
470,3.736431972356513e-05,1.0,0.45476779341697693,0.9368888735771179
471,3.497100624372251e-05,1.0,0.4548039734363556,0.9368888735771179
472,9.215508180204779e-05,1.0,0.4537292420864105,0.9366666674613953
473,2.7528843929758295e-05,1.0,0.45332399010658264,0.9364444613456726
474,3.926936551579274e-05,1.0,0.45360100269317627,0.9364444613456726
475,3.661572191049345e-05,1.0,0.4537735879421234,0.9362221956253052
476,3.745860158232972e-05,1.0,0.45408016443252563,0.9362221956253052
477,3.787863897741772e-05,1.0,0.4541417956352234,0.9364444613456726
478,2.6068160877912305e-05,1.0,0.4542137384414673,0.9364444613456726
479,4.2964398744516075e-05,1.0,0.4544948637485504,0.9366666674613953
480,3.057445428567007e-05,1.0,0.4547688663005829,0.9366666674613953
481,4.011263808934018e-05,1.0,0.45487233996391296,0.9366666674613953
482,5.26444855495356e-05,1.0,0.45508691668510437,0.9366666674613953
483,4.000611443188973e-05,1.0,0.4553450644016266,0.9368888735771179
484,4.0878185245674103e-05,1.0,0.45513346791267395,0.9366666674613953
485,3.802059654844925e-05,1.0,0.4547930359840393,0.9366666674613953
486,4.350564267951995e-05,1.0,0.4549298584461212,0.9368888735771179
487,2.8141359507571906e-05,1.0,0.45510968565940857,0.9368888735771179
488,2.9470136723830365e-05,1.0,0.45541492104530334,0.9368888735771179
489,6.16140678175725e-05,1.0,0.4556027054786682,0.9368888735771179
490,2.954457886517048e-05,1.0,0.4556626081466675,0.9371111392974854
491,3.7690260796807706e-05,1.0,0.45593374967575073,0.9368888735771179
492,1.9527024051058106e-05,1.0,0.4559609889984131,0.9371111392974854
493,3.6347519198898226e-05,1.0,0.4561602771282196,0.937333345413208
494,3.1708390451967716e-05,1.0,0.4564642608165741,0.937333345413208
495,2.3479073206544854e-05,1.0,0.45651525259017944,0.937333345413208
496,2.4507438865839504e-05,1.0,0.45676225423812866,0.937333345413208
497,2.987089828820899e-05,1.0,0.456601619720459,0.937333345413208
498,3.286075298092328e-05,1.0,0.456935316324234,0.937333345413208
499,4.348857328295708e-05,1.0,0.45746907591819763,0.937333345413208
500,2.025620051426813e-05,1.0,0.45777076482772827,0.937333345413208
501,3.596334136091173e-05,1.0,0.4576553702354431,0.937333345413208
502,3.9129161450546235e-05,1.0,0.45755240321159363,0.937333345413208
503,2.656357355590444e-05,1.0,0.4574114680290222,0.937333345413208
504,2.1182386262807995e-05,1.0,0.4573337137699127,0.937333345413208
505,2.7622470952337608e-05,1.0,0.4572660028934479,0.937333345413208
506,2.5819581424002536e-05,1.0,0.4567970335483551,0.937333345413208
507,3.49293441104237e-05,1.0,0.45686858892440796,0.937333345413208
508,5.628111102851108e-05,1.0,0.4568839967250824,0.9371111392974854
509,3.824447048828006e-05,1.0,0.4569978713989258,0.9380000233650208
510,2.583262357802596e-05,1.0,0.4575504660606384,0.9382222294807434
511,4.262793663656339e-05,1.0,0.45806413888931274,0.9386666417121887
512,2.06987933779601e-05,1.0,0.458391934633255,0.9384444355964661
513,2.4293918613693677e-05,1.0,0.4586673080921173,0.9380000233650208
514,2.773052256088704e-05,1.0,0.4588213860988617,0.9377777576446533
515,4.162806362728588e-05,1.0,0.45942649245262146,0.9375555515289307
516,3.4024284104816616e-05,1.0,0.45969608426094055,0.9371111392974854
517,3.2358999305870384e-05,1.0,0.459617555141449,0.937333345413208
518,2.673932795005385e-05,1.0,0.45962560176849365,0.937333345413208
519,3.844039383693598e-05,1.0,0.45943403244018555,0.9375555515289307
520,3.677403219626285e-05,1.0,0.45918044447898865,0.9375555515289307
521,3.610113344620913e-05,1.0,0.4595352113246918,0.9371111392974854
522,3.6229721445124596e-05,1.0,0.46007275581359863,0.9371111392974854
523,3.91452012991067e-05,1.0,0.4608459174633026,0.9368888735771179
524,2.2999331122264266e-05,1.0,0.46129682660102844,0.9368888735771179
525,5.663505362463184e-05,1.0,0.461262047290802,0.9368888735771179
526,1.7194031897815876e-05,1.0,0.4612491726875305,0.9371111392974854
527,1.8668037228053436e-05,1.0,0.46113845705986023,0.9371111392974854
528,2.152715387637727e-05,1.0,0.46106570959091187,0.9368888735771179
529,2.191486237279605e-05,1.0,0.4611985683441162,0.9368888735771179
530,2.5900599212036468e-05,1.0,0.46147769689559937,0.9364444613456726
531,3.2231993827736005e-05,1.0,0.4615711271762848,0.9364444613456726
532,3.984030627179891e-05,1.0,0.4613128900527954,0.9364444613456726
533,3.543845741660334e-05,1.0,0.46145838499069214,0.9368888735771179
534,1.7634793039178476e-05,1.0,0.4616164267063141,0.9368888735771179
535,2.4903825760702603e-05,1.0,0.46123045682907104,0.9366666674613953
536,2.6701400202000514e-05,1.0,0.4610290825366974,0.9366666674613953
537,2.965281601063907e-05,1.0,0.4607177674770355,0.9366666674613953
538,1.768898800946772e-05,1.0,0.46076008677482605,0.9366666674613953
539,2.802088602038566e-05,1.0,0.4611682891845703,0.9366666674613953
540,2.0769499315065332e-05,1.0,0.46147406101226807,0.9364444613456726
541,8.097134559648111e-05,1.0,0.46193310618400574,0.9364444613456726
542,3.339821705594659e-05,1.0,0.46217572689056396,0.9362221956253052
543,4.769216320710257e-05,1.0,0.46249517798423767,0.9359999895095825
544,2.9105334760970436e-05,1.0,0.4623701274394989,0.9364444613456726
545,3.1757463148096576e-05,1.0,0.46248823404312134,0.9366666674613953
546,2.8040582037647255e-05,1.0,0.46254274249076843,0.9366666674613953
547,1.6567460988881066e-05,1.0,0.4625949561595917,0.9366666674613953
548,2.820152076310478e-05,1.0,0.4628618657588959,0.9364444613456726
549,2.2383645045920275e-05,1.0,0.4627413749694824,0.9366666674613953
550,3.532849586918019e-05,1.0,0.46279317140579224,0.9366666674613953
551,2.3919546947581694e-05,1.0,0.46291884779930115,0.9366666674613953
552,3.1682309781899676e-05,1.0,0.4622974693775177,0.9366666674613953
553,2.2718924810760655e-05,1.0,0.46207740902900696,0.9366666674613953
554,2.307551767444238e-05,1.0,0.46206384897232056,0.9366666674613953
555,2.6158009859500453e-05,1.0,0.46207714080810547,0.9366666674613953
556,2.6622063160175458e-05,1.0,0.46231088042259216,0.9368888735771179
557,4.679041012423113e-05,1.0,0.46159136295318604,0.9368888735771179
558,2.3249947844306007e-05,1.0,0.46147727966308594,0.9366666674613953
559,2.4780269086477347e-05,1.0,0.46164366602897644,0.9366666674613953
560,2.6064712074003182e-05,1.0,0.4623490571975708,0.9366666674613953
561,5.2365943702170625e-05,1.0,0.46133050322532654,0.9368888735771179
562,2.0735606085509062e-05,1.0,0.46154117584228516,0.9368888735771179
563,3.845021637971513e-05,1.0,0.4614940881729126,0.9368888735771179
564,1.845135193434544e-05,1.0,0.4615948498249054,0.9368888735771179
565,1.522422371635912e-05,1.0,0.4618043005466461,0.9368888735771179
566,2.3848380806157365e-05,1.0,0.4618977904319763,0.9368888735771179
567,1.9937047909479588e-05,1.0,0.46209657192230225,0.9368888735771179
568,2.1097534045111388e-05,1.0,0.4622191786766052,0.9368888735771179
569,2.7231770218349993e-05,1.0,0.4624769985675812,0.9368888735771179
570,1.7484106137999333e-05,1.0,0.4628010094165802,0.9368888735771179
571,1.8849086700356565e-05,1.0,0.4628618061542511,0.9371111392974854
572,2.0582738216035068e-05,1.0,0.46281564235687256,0.9371111392974854
573,2.6940004318021238e-05,1.0,0.46284836530685425,0.9371111392974854
574,5.731436613132246e-05,1.0,0.46280279755592346,0.9371111392974854
575,1.8009613995673135e-05,1.0,0.4622414708137512,0.9371111392974854
576,2.794666579575278e-05,1.0,0.46263590455055237,0.9371111392974854
577,4.826613803743385e-05,1.0,0.4633024036884308,0.9371111392974854
578,3.823073348030448e-05,1.0,0.4641191363334656,0.9371111392974854
579,1.59596875164425e-05,1.0,0.46353015303611755,0.9371111392974854
580,2.121471698046662e-05,1.0,0.4633273780345917,0.9371111392974854
581,2.1174340872676112e-05,1.0,0.4631195068359375,0.9371111392974854
582,2.335904719075188e-05,1.0,0.4626944959163666,0.9371111392974854
583,3.958099114242941e-05,1.0,0.46272075176239014,0.937333345413208
584,2.8421283786883578e-05,1.0,0.46273112297058105,0.937333345413208
585,6.379513797583058e-05,1.0,0.46884164214134216,0.9377777576446533
586,4.501734292716719e-05,1.0,0.47276192903518677,0.9375555515289307
587,4.699229248217307e-05,1.0,0.47129666805267334,0.9375555515289307
588,2.258106724184472e-05,1.0,0.4708530306816101,0.9377777576446533
589,1.4698684026370756e-05,1.0,0.47065940499305725,0.9380000233650208
590,3.3638596505625173e-05,1.0,0.4706171452999115,0.9377777576446533
591,1.4971989912737627e-05,1.0,0.47050824761390686,0.9377777576446533
592,2.636716999404598e-05,1.0,0.47055068612098694,0.9375555515289307
593,2.7625605071079917e-05,1.0,0.47012022137641907,0.9375555515289307
594,2.6031117158709094e-05,1.0,0.46963655948638916,0.937333345413208
595,1.7909083908307366e-05,1.0,0.46920058131217957,0.9375555515289307
596,1.6842848708620295e-05,1.0,0.4690050482749939,0.9377777576446533
597,2.3283917471417226e-05,1.0,0.46886274218559265,0.9377777576446533
598,4.902407818008214e-05,1.0,0.4682418704032898,0.9377777576446533
599,1.5615607480867766e-05,1.0,0.4676514267921448,0.9375555515289307
600,3.1125171517487615e-05,1.0,0.4674735367298126,0.9375555515289307
601,3.603052391554229e-05,1.0,0.466997891664505,0.9377777576446533
602,5.677203444065526e-05,1.0,0.46600276231765747,0.9371111392974854
603,3.3232252462767065e-05,1.0,0.46564072370529175,0.9366666674613953
604,1.687033727648668e-05,1.0,0.46607279777526855,0.9366666674613953
605,2.4114078769343905e-05,1.0,0.46630626916885376,0.9366666674613953
606,1.7350872440147214e-05,1.0,0.4666321575641632,0.9366666674613953
607,1.3338541066332255e-05,1.0,0.46691253781318665,0.9366666674613953
608,1.557514042360708e-05,1.0,0.46734195947647095,0.9366666674613953
609,3.059958544326946e-05,1.0,0.4677906930446625,0.9368888735771179
610,2.34248745982768e-05,1.0,0.46783414483070374,0.9368888735771179
611,2.183705692004878e-05,1.0,0.4677232503890991,0.9368888735771179
612,2.8528704206109978e-05,1.0,0.46807795763015747,0.937333345413208
613,2.7050737116951495e-05,1.0,0.4680398106575012,0.937333345413208
614,4.354527482064441e-05,1.0,0.46839144825935364,0.937333345413208
615,3.714257763931528e-05,1.0,0.4685966372489929,0.9384444355964661
616,2.8355547328828834e-05,1.0,0.46858879923820496,0.9384444355964661
617,1.2195716408314183e-05,1.0,0.4685291349887848,0.9384444355964661
618,2.090541966026649e-05,1.0,0.4683668613433838,0.9386666417121887
619,1.793638693925459e-05,1.0,0.4683571457862854,0.9386666417121887
620,2.455228241160512e-05,1.0,0.4684651792049408,0.9386666417121887
621,1.879804221971426e-05,1.0,0.46867209672927856,0.9386666417121887
622,2.112155380018521e-05,1.0,0.4686283767223358,0.9386666417121887
623,2.3662816602154635e-05,1.0,0.4683637022972107,0.9386666417121887
624,2.4911050786613487e-05,1.0,0.46738216280937195,0.9386666417121887
625,2.0040388335473835e-05,1.0,0.4671441614627838,0.9382222294807434
626,3.2077721698442474e-05,1.0,0.46722689270973206,0.9382222294807434
627,1.6684303773217835e-05,1.0,0.4671788811683655,0.9377777576446533
628,4.500815339270048e-05,1.0,0.46709343791007996,0.9375555515289307
629,3.058781294384971e-05,1.0,0.4674323499202728,0.9375555515289307
630,2.389561450399924e-05,1.0,0.4673486351966858,0.9377777576446533
631,2.2439349777414463e-05,1.0,0.467792809009552,0.9377777576446533
632,5.466702350531705e-05,1.0,0.46937108039855957,0.9377777576446533
633,3.655099862953648e-05,1.0,0.46844324469566345,0.9380000233650208
634,3.7723410059697926e-05,1.0,0.46832481026649475,0.9377777576446533
635,2.770065111690201e-05,1.0,0.4685204029083252,0.9377777576446533
636,1.4556222595274448e-05,1.0,0.46872395277023315,0.9382222294807434
637,2.1424404621939175e-05,1.0,0.4693269729614258,0.9384444355964661
638,2.427993058518041e-05,1.0,0.46956321597099304,0.9384444355964661
639,1.6260877600871027e-05,1.0,0.4695054292678833,0.9384444355964661
640,2.4283852326334454e-05,1.0,0.46888965368270874,0.9380000233650208
641,2.894435056077782e-05,1.0,0.46845221519470215,0.9380000233650208
642,2.5837438442977145e-05,1.0,0.46634331345558167,0.9382222294807434
643,1.9667602828121744e-05,1.0,0.466046005487442,0.9382222294807434
644,1.982880348805338e-05,1.0,0.4663788378238678,0.9380000233650208
645,1.4494740753434598e-05,1.0,0.4670843780040741,0.9377777576446533
646,1.0562715942796785e-05,1.0,0.46780648827552795,0.9380000233650208
647,2.4827859306242317e-05,1.0,0.46886876225471497,0.9380000233650208
648,5.073784996056929e-05,1.0,0.47043347358703613,0.9380000233650208
649,1.6020272596506402e-05,1.0,0.4715562164783478,0.9377777576446533
650,2.1235968233668245e-05,1.0,0.4720765948295593,0.9375555515289307
651,4.654527219827287e-05,1.0,0.4725032150745392,0.937333345413208
652,1.7340666090603918e-05,1.0,0.47247037291526794,0.9380000233650208
653,3.093338091275655e-05,1.0,0.47063010931015015,0.9388889074325562
654,1.9392296962905675e-05,1.0,0.4696451723575592,0.9386666417121887
655,1.230682300956687e-05,1.0,0.4694778621196747,0.9386666417121887
656,1.863106808741577e-05,1.0,0.4696485996246338,0.9386666417121887
657,2.0922891053487547e-05,1.0,0.46993017196655273,0.9386666417121887
658,1.4743560313945636e-05,1.0,0.47012966871261597,0.9391111135482788
659,1.0486388418939896e-05,1.0,0.47046831250190735,0.9391111135482788
660,1.833137866924517e-05,1.0,0.47125184535980225,0.9391111135482788
661,2.7009135010302998e-05,1.0,0.47194960713386536,0.9391111135482788
662,9.597612006473355e-06,1.0,0.4722226560115814,0.9388889074325562
663,1.3659873729920946e-05,1.0,0.4722219407558441,0.9386666417121887
664,1.1814093340944964e-05,1.0,0.47221457958221436,0.9386666417121887
665,1.2387027709337417e-05,1.0,0.4721923768520355,0.9384444355964661
666,1.3592049981525633e-05,1.0,0.4722304046154022,0.9382222294807434
667,1.3357568604988046e-05,1.0,0.47241920232772827,0.9380000233650208
668,1.8378612367087044e-05,1.0,0.4723489582538605,0.9382222294807434
669,1.982485264306888e-05,1.0,0.4725929796695709,0.9380000233650208
670,2.1618097889586352e-05,1.0,0.4733191132545471,0.9382222294807434
671,1.705735849100165e-05,1.0,0.47343841195106506,0.9382222294807434
672,1.1241996617172845e-05,1.0,0.47334471344947815,0.9384444355964661
673,2.043546919594519e-05,1.0,0.47225379943847656,0.9384444355964661
674,1.4840531548543368e-05,1.0,0.47205376625061035,0.9384444355964661
675,1.8018792616203427e-05,1.0,0.47174620628356934,0.9384444355964661
676,1.413089285051683e-05,1.0,0.47111088037490845,0.9382222294807434
677,1.6809341104817577e-05,1.0,0.4712085425853729,0.9382222294807434
678,2.4911480068112724e-05,1.0,0.4714219272136688,0.9384444355964661
679,1.6902544302865863e-05,1.0,0.46992892026901245,0.9382222294807434
680,1.627871097298339e-05,1.0,0.4692208170890808,0.9382222294807434
681,1.2502787285484374e-05,1.0,0.46938785910606384,0.9384444355964661
682,8.57552277011564e-06,1.0,0.4695601165294647,0.9384444355964661
683,1.3666021914104931e-05,1.0,0.4701380729675293,0.9386666417121887
684,1.3702813703275751e-05,1.0,0.47066807746887207,0.9386666417121887
685,3.213110176147893e-05,1.0,0.47050997614860535,0.9384444355964661
686,3.544925129972398e-05,1.0,0.4721243977546692,0.9386666417121887
687,9.884122846415266e-06,1.0,0.4730369448661804,0.9386666417121887
688,3.742051558219828e-05,1.0,0.47333836555480957,0.9386666417121887
689,1.51457770698471e-05,1.0,0.4734309911727905,0.9384444355964661
690,1.4446681234403513e-05,1.0,0.4739473760128021,0.9382222294807434
691,1.228194832947338e-05,1.0,0.47389599680900574,0.9382222294807434
692,1.2972779586561956e-05,1.0,0.47396767139434814,0.9384444355964661
693,1.692079058557283e-05,1.0,0.4735342860221863,0.9386666417121887
694,0.00010222038690699264,1.0,0.4688124358654022,0.9391111135482788
695,2.394657531112898e-05,1.0,0.4582393169403076,0.9408888816833496
696,2.5152821763185784e-05,1.0,0.4557429552078247,0.9411110877990723
697,1.656344102229923e-05,1.0,0.45637646317481995,0.9411110877990723
698,1.959747532964684e-05,1.0,0.45798051357269287,0.9411110877990723
699,1.835328475863207e-05,1.0,0.4593055546283722,0.9408888816833496
700,1.91700310097076e-05,1.0,0.46102890372276306,0.9404444694519043
701,2.4465693059028126e-05,1.0,0.46284011006355286,0.9397777915000916
702,1.1043868653359823e-05,1.0,0.46413302421569824,0.9397777915000916
703,1.78019381564809e-05,1.0,0.465575248003006,0.9399999976158142
704,1.0282005860062782e-05,1.0,0.46700358390808105,0.9393333196640015
705,2.697406853258144e-05,1.0,0.4686184227466583,0.9393333196640015
706,1.2863128176832106e-05,1.0,0.4696534276008606,0.9391111135482788
707,1.2069722288288176e-05,1.0,0.47100183367729187,0.9391111135482788
708,1.560547752887942e-05,1.0,0.47202473878860474,0.9391111135482788
709,2.0962563212378882e-05,1.0,0.47242486476898193,0.9386666417121887
710,2.232790029665921e-05,1.0,0.4727260172367096,0.9384444355964661
711,2.1611784177366644e-05,1.0,0.4739500880241394,0.9384444355964661
712,1.3391411812335718e-05,1.0,0.47478780150413513,0.9384444355964661
713,2.0422718080226332e-05,1.0,0.4753812253475189,0.9386666417121887
714,1.0168057997361757e-05,1.0,0.4754936099052429,0.9386666417121887
715,2.5290230041719042e-05,1.0,0.4755459129810333,0.9386666417121887
716,1.4395967809832655e-05,1.0,0.47580382227897644,0.9384444355964661
717,1.6745678294682875e-05,1.0,0.4746362864971161,0.9386666417121887
718,2.3704864361207e-05,1.0,0.47322091460227966,0.9382222294807434
719,2.339649472560268e-05,1.0,0.47254860401153564,0.9380000233650208
720,1.8525353880249895e-05,1.0,0.47186583280563354,0.9386666417121887
721,1.8283639292349108e-05,1.0,0.4712895452976227,0.9388889074325562
722,1.838132993725594e-05,1.0,0.4720684587955475,0.9384444355964661
723,2.967687396449037e-05,1.0,0.4728240668773651,0.9380000233650208
724,8.841388989822008e-06,1.0,0.4736432731151581,0.9377777576446533
725,1.5524577975156717e-05,1.0,0.47494396567344666,0.9380000233650208
726,1.4007679965288844e-05,1.0,0.475988507270813,0.9382222294807434
727,1.6165857232408598e-05,1.0,0.476015567779541,0.9382222294807434
728,1.5326935681514442e-05,1.0,0.47527605295181274,0.9382222294807434
729,1.760476516210474e-05,1.0,0.4752223789691925,0.9382222294807434
730,1.246245392394485e-05,1.0,0.4755780100822449,0.9382222294807434
731,1.6030609913286753e-05,1.0,0.47522374987602234,0.9382222294807434
732,7.830041795386933e-06,1.0,0.4754764437675476,0.9382222294807434
733,9.970985047402792e-06,1.0,0.4757201671600342,0.9384444355964661
734,1.8916538465418853e-05,1.0,0.4766085743904114,0.9384444355964661
735,1.8790611648000777e-05,1.0,0.4764307141304016,0.9384444355964661
736,1.1398819879104849e-05,1.0,0.47657346725463867,0.9384444355964661
737,1.3106197911838535e-05,1.0,0.4765862226486206,0.9386666417121887
738,2.5695206204545684e-05,1.0,0.47654271125793457,0.9380000233650208
739,1.1685610843414906e-05,1.0,0.4765608310699463,0.9380000233650208
740,1.1239898412895855e-05,1.0,0.4770682454109192,0.9384444355964661
741,3.08396847685799e-05,1.0,0.47709766030311584,0.9384444355964661
742,1.9878107195836492e-05,1.0,0.4778447151184082,0.9384444355964661
743,2.082947685266845e-05,1.0,0.479229599237442,0.9382222294807434
744,1.1724364412657451e-05,1.0,0.4795926511287689,0.9384444355964661
745,1.2348674317763653e-05,1.0,0.47933268547058105,0.9384444355964661
746,1.3799847693007905e-05,1.0,0.4786217510700226,0.9382222294807434
747,1.2599591173056979e-05,1.0,0.47726544737815857,0.9384444355964661
748,1.2552688531286549e-05,1.0,0.4769992530345917,0.9384444355964661
749,1.253538084711181e-05,1.0,0.4769209921360016,0.9382222294807434
750,2.0723491616081446e-05,1.0,0.47724321484565735,0.9386666417121887
751,1.223651270265691e-05,1.0,0.47653087973594666,0.9380000233650208
752,2.5169018044834957e-05,1.0,0.47777268290519714,0.9380000233650208
753,1.808078923204448e-05,1.0,0.478512704372406,0.9382222294807434
754,9.34020135900937e-06,1.0,0.47916823625564575,0.9384444355964661
755,1.7204198229592294e-05,1.0,0.4800128638744354,0.9382222294807434
756,1.4757843018742278e-05,1.0,0.4809849262237549,0.9386666417121887
757,2.0018764189444482e-05,1.0,0.48040771484375,0.9388889074325562
758,8.25998722575605e-06,1.0,0.4802631735801697,0.9386666417121887
759,2.9372025892371312e-05,1.0,0.4805990159511566,0.9388889074325562
760,2.388453867752105e-05,1.0,0.4828299582004547,0.9386666417121887
761,1.4769455447094515e-05,1.0,0.4845842123031616,0.9393333196640015
762,8.032657206058502e-06,1.0,0.4852890074253082,0.9395555257797241
763,7.259461654030019e-06,1.0,0.48557958006858826,0.9388889074325562
764,1.652715218369849e-05,1.0,0.48582589626312256,0.9386666417121887
765,1.2941624845552724e-05,1.0,0.48577722907066345,0.9386666417121887
766,1.89249240065692e-05,1.0,0.48585623502731323,0.9386666417121887
767,1.2002530638710596e-05,1.0,0.48586854338645935,0.9384444355964661
768,1.154159053839976e-05,1.0,0.4856615662574768,0.9384444355964661
769,1.667090691626072e-05,1.0,0.48496153950691223,0.9388889074325562
770,7.633772838744335e-06,1.0,0.4844210147857666,0.9388889074325562
771,1.3221040717326105e-05,1.0,0.484480082988739,0.9388889074325562
772,2.695495822990779e-05,1.0,0.48379963636398315,0.9386666417121887
773,1.703436646494083e-05,1.0,0.4832856357097626,0.9386666417121887
774,9.435780157218687e-06,1.0,0.48301199078559875,0.9382222294807434
775,1.3675319678441156e-05,1.0,0.4831047058105469,0.9384444355964661
776,1.2260006769793108e-05,1.0,0.48349326848983765,0.9384444355964661
777,7.5040502451884095e-06,1.0,0.48394638299942017,0.9382222294807434
778,1.8270382497576065e-05,1.0,0.4836665689945221,0.9382222294807434
779,1.1640261618595105e-05,1.0,0.4828301966190338,0.9384444355964661
780,1.20962558867177e-05,1.0,0.48240694403648376,0.9384444355964661
781,9.658828275860287e-06,1.0,0.48244693875312805,0.9382222294807434
782,2.099794255627785e-05,1.0,0.48309504985809326,0.9382222294807434
783,9.091902029467747e-06,1.0,0.48367294669151306,0.9382222294807434
784,1.4485744941339362e-05,1.0,0.48513567447662354,0.9384444355964661
785,1.2355024409771431e-05,1.0,0.48522883653640747,0.9391111135482788
786,1.2982813132111914e-05,1.0,0.4843769967556,0.9391111135482788
787,1.09571619759663e-05,1.0,0.483967125415802,0.9391111135482788
788,1.3888748071622103e-05,1.0,0.48411741852760315,0.9388889074325562
789,8.361657819477841e-06,1.0,0.4835793077945709,0.9388889074325562
790,1.8870165149564855e-05,1.0,0.48321646451950073,0.9388889074325562
791,5.539120593311964e-06,1.0,0.4831426441669464,0.9388889074325562
792,8.316009370901156e-06,1.0,0.4832109808921814,0.9388889074325562
793,1.5995603462215513e-05,1.0,0.4836856424808502,0.9388889074325562
794,1.3338181815925054e-05,1.0,0.48415815830230713,0.9388889074325562
795,1.256041468877811e-05,1.0,0.4849497675895691,0.9386666417121887
796,1.6869751561898738e-05,1.0,0.4853799343109131,0.9384444355964661
797,1.0515890608076006e-05,1.0,0.4852152168750763,0.9386666417121887
798,7.845928848837502e-06,1.0,0.48576366901397705,0.9386666417121887
799,1.8347807781537995e-05,1.0,0.484742134809494,0.9386666417121887
