,loss,recall,val_loss,val_recall
0,0.6118824481964111,0.722000002861023,0.9535155296325684,0.03777777776122093
1,0.23713509738445282,0.9279999732971191,0.6395525932312012,0.7282222509384155
2,0.17786777019500732,0.9359999895095825,0.679782509803772,0.5899999737739563
3,0.1573438048362732,0.9419999718666077,1.0131312608718872,0.35022222995758057
4,0.16178947687149048,0.9399999976158142,0.9136176109313965,0.29733332991600037
5,0.12842456996440887,0.9539999961853027,0.9899099469184875,0.3484444320201874
6,0.11824466288089752,0.9559999704360962,0.6883528828620911,0.6344444155693054
7,0.10943534225225449,0.9580000042915344,0.762719452381134,0.5195555686950684
8,0.11515110731124878,0.9639999866485596,1.0665961503982544,0.011111111380159855
9,0.10726407915353775,0.9639999866485596,0.81480473279953,0.4013333320617676
10,0.09754549711942673,0.9700000286102295,1.0266854763031006,0.24933333694934845
11,0.09844346344470978,0.972000002861023,0.8069499731063843,0.3784444332122803
12,0.08360519260168076,0.972000002861023,0.7100954651832581,0.5377777814865112
13,0.08490397781133652,0.9760000109672546,0.614182710647583,0.7102222442626953
14,0.08774098008871078,0.9819999933242798,0.5806600451469421,0.656000018119812
15,0.07247738540172577,0.9819999933242798,0.6620720028877258,0.608222246170044
16,0.06671881675720215,0.984000027179718,0.5763171911239624,0.7024444341659546
17,0.06886037439107895,0.9779999852180481,0.8791804313659668,0.47244444489479065
18,0.06054174154996872,0.9819999933242798,0.8517663478851318,0.4268888831138611
19,0.07448843866586685,0.9779999852180481,0.508087158203125,0.6786666512489319
20,0.06321997195482254,0.9860000014305115,0.5627021789550781,0.7511110901832581
21,0.060325853526592255,0.9819999933242798,0.6011030673980713,0.6851111054420471
22,0.05710576847195625,0.9860000014305115,0.43958520889282227,0.8799999952316284
23,0.05248180404305458,0.9879999756813049,0.41435909271240234,0.8764444589614868
24,0.05434020236134529,0.984000027179718,0.5792989730834961,0.6913333535194397
25,0.06373543292284012,0.9860000014305115,0.5237770676612854,0.7062222361564636
26,0.06702735275030136,0.9779999852180481,0.5087896585464478,0.7848888635635376
27,0.07171095907688141,0.9779999852180481,0.42909759283065796,0.8519999980926514
28,0.058885905891656876,0.9819999933242798,0.6755102872848511,0.6531111001968384
29,0.05012752488255501,0.984000027179718,0.4768231213092804,0.8028888702392578
30,0.051869116723537445,0.9819999933242798,0.3994886875152588,0.8479999899864197
31,0.04837219417095184,0.984000027179718,0.35256972908973694,0.891777753829956
32,0.05933164432644844,0.984000027179718,0.44992443919181824,0.777999997138977
33,0.04715794324874878,0.984000027179718,0.27655765414237976,0.9153333306312561
34,0.05705020949244499,0.9779999852180481,0.2697853147983551,0.9193333387374878
35,0.0472961850464344,0.984000027179718,0.35634103417396545,0.9240000247955322
36,0.05522475391626358,0.9860000014305115,0.3972806930541992,0.9091110825538635
37,0.04457319155335426,0.9900000095367432,0.3056851029396057,0.910444438457489
38,0.03582901135087013,0.9919999837875366,0.3106158375740051,0.8844444155693054
39,0.03293805941939354,0.9860000014305115,0.25355058908462524,0.9248889088630676
40,0.02928079664707184,0.9900000095367432,0.3529723584651947,0.9375555515289307
41,0.03895750641822815,0.984000027179718,0.5168560743331909,0.7642222046852112
42,0.037936124950647354,0.9900000095367432,0.29747363924980164,0.8995555639266968
43,0.030552053824067116,0.9860000014305115,0.2459477335214615,0.9397777915000916
44,0.02739020809531212,0.9900000095367432,0.3014613389968872,0.903333306312561
45,0.019800320267677307,0.9959999918937683,0.25515544414520264,0.9395555257797241
46,0.030910344794392586,0.984000027179718,0.28524622321128845,0.9388889074325562
47,0.02715250290930271,0.9919999837875366,0.2641993761062622,0.9224444627761841
48,0.017399795353412628,0.9959999918937683,0.3212645947933197,0.8840000033378601
49,0.03300875052809715,0.9879999756813049,0.33569011092185974,0.8937777876853943
50,0.018337707966566086,0.9879999756813049,0.2772214114665985,0.9340000152587891
51,0.01697102002799511,0.9980000257492065,0.30343732237815857,0.9126666784286499
52,0.009229067713022232,0.9980000257492065,0.32949602603912354,0.9037777781486511
53,0.012765804305672646,0.9959999918937683,0.4581875503063202,0.8397777676582336
54,0.01224091649055481,0.9980000257492065,0.32967379689216614,0.9319999814033508
55,0.013070558197796345,0.9940000176429749,0.3396364450454712,0.925777792930603
56,0.02529560960829258,0.9900000095367432,0.40327951312065125,0.9413333535194397
57,0.026297815144062042,0.9879999756813049,0.3337038457393646,0.9288889169692993
58,0.0436115600168705,0.9819999933242798,0.4808153212070465,0.9355555772781372
59,0.04239065200090408,0.984000027179718,0.5435644388198853,0.9342222213745117
60,0.05412452667951584,0.9860000014305115,1.1069822311401367,0.7513333559036255
61,0.06064838171005249,0.9779999852180481,1.0690349340438843,0.7239999771118164
62,0.043063946068286896,0.984000027179718,0.6520658135414124,0.8913333415985107
63,0.030949190258979797,0.9940000176429749,0.6726041436195374,0.9324444532394409
64,0.04675750434398651,0.9879999756813049,2.5607810020446777,0.6782222390174866
65,0.0419132336974144,0.984000027179718,1.5870013236999512,0.6779999732971191
66,0.037717271596193314,0.9860000014305115,0.5656885504722595,0.9351111054420471
67,0.03246308118104935,0.9919999837875366,0.42563965916633606,0.9328888654708862
68,0.019370967522263527,0.9959999918937683,0.5473222732543945,0.9399999976158142
69,0.03809628263115883,0.9940000176429749,0.5708194375038147,0.9424444437026978
70,0.01598844677209854,0.9980000257492065,0.39834901690483093,0.9364444613456726
71,0.016390955075621605,0.9940000176429749,0.3985259532928467,0.9319999814033508
72,0.00842965580523014,0.9980000257492065,0.3975825011730194,0.9266666769981384
73,0.004688745830208063,1.0,0.4018695652484894,0.9264444708824158
74,0.003771115094423294,1.0,0.4044107496738434,0.9353333115577698
75,0.006723465397953987,0.9980000257492065,0.3901820182800293,0.9131110906600952
76,0.004762865137308836,0.9980000257492065,0.4829813241958618,0.9422222375869751
77,0.02030562236905098,0.9919999837875366,0.37704089283943176,0.9262222051620483
78,0.02444477006793022,0.9900000095367432,0.3821820020675659,0.9333333373069763
79,0.01784660667181015,0.9940000176429749,0.40421247482299805,0.897777795791626
80,0.009676182642579079,0.9980000257492065,0.4449369013309479,0.9268888831138611
81,0.009546814486384392,0.9959999918937683,0.4405466318130493,0.9004444479942322
82,0.008160291239619255,0.9980000257492065,0.4489153027534485,0.9391111135482788
83,0.020595144480466843,0.9959999918937683,0.433502197265625,0.9388889074325562
84,0.010975158773362637,0.9959999918937683,0.38311049342155457,0.9177777767181396
85,0.006632664706557989,0.9980000257492065,0.38032013177871704,0.9351111054420471
86,0.0034222451504319906,1.0,0.4038328528404236,0.9388889074325562
87,0.004707421641796827,0.9980000257492065,0.37078946828842163,0.9366666674613953
88,0.00326384580694139,1.0,0.3695117235183716,0.9279999732971191
89,0.001924104755744338,1.0,0.3604494631290436,0.93022221326828
90,0.0009124886710196733,1.0,0.3537958562374115,0.9297778010368347
91,0.0007468567346222699,1.0,0.3543207347393036,0.93022221326828
92,0.0006782668642699718,1.0,0.35610559582710266,0.9319999814033508
93,0.00069242442259565,1.0,0.3565067946910858,0.9324444532394409
94,0.0005473355995491147,1.0,0.35632064938545227,0.9326666593551636
95,0.000595287187024951,1.0,0.35573142766952515,0.9324444532394409
96,0.0005231968243606389,1.0,0.358904093503952,0.9328888654708862
97,0.0005209026276133955,1.0,0.3627833127975464,0.933555543422699
98,0.00048296048771589994,1.0,0.3653128445148468,0.9333333373069763
99,0.0005091087659820914,1.0,0.36973342299461365,0.9344444274902344
100,0.0005097648245282471,1.0,0.37383806705474854,0.9344444274902344
101,0.000376951094949618,1.0,0.37767845392227173,0.9342222213745117
102,0.0005110236234031618,1.0,0.3779020607471466,0.9324444532394409
103,0.0003278017684351653,1.0,0.3779098093509674,0.9322222471237183
104,0.0004170463653281331,1.0,0.38077661395072937,0.9319999814033508
105,0.00040521795745007694,1.0,0.3842383325099945,0.9331111311912537
106,0.00043343144352547824,1.0,0.38858795166015625,0.9353333115577698
107,0.0006060670712031424,1.0,0.3898963928222656,0.9359999895095825
108,0.0002940981648862362,1.0,0.3894968628883362,0.9362221956253052
109,0.0003743144916370511,1.0,0.38838762044906616,0.9348888993263245
110,0.00032243982423096895,1.0,0.39013537764549255,0.9357777833938599
111,0.00039865917642600834,1.0,0.3925056755542755,0.9351111054420471
112,0.0003711049212142825,1.0,0.3932230472564697,0.9351111054420471
113,0.00041921529918909073,1.0,0.39514440298080444,0.9353333115577698
114,0.0003483398468233645,1.0,0.39677757024765015,0.9353333115577698
115,0.0003411257639527321,1.0,0.3970838785171509,0.9355555772781372
116,0.0011097514070570469,1.0,0.3910336196422577,0.9273333549499512
117,0.0011820989893749356,1.0,0.39833444356918335,0.933555543422699
118,0.0012319405796006322,1.0,0.43202903866767883,0.937333345413208
119,0.0009885847102850676,1.0,0.4229249358177185,0.933555543422699
120,0.0005745921516790986,1.0,0.40525975823402405,0.9337777495384216
121,0.0003509453381411731,1.0,0.40359416604042053,0.9355555772781372
122,0.00040289273601956666,1.0,0.4085983633995056,0.9364444613456726
123,0.00034721966949291527,1.0,0.4177243709564209,0.9364444613456726
124,0.00040283292764797807,1.0,0.4186832904815674,0.9317777752876282
125,0.00042565682088024914,1.0,0.4185565710067749,0.9328888654708862
126,0.00026604815502651036,1.0,0.4187152683734894,0.933555543422699
127,0.0003969249373767525,1.0,0.41905105113983154,0.9355555772781372
128,0.00033095761318691075,1.0,0.4201402962207794,0.9348888993263245
129,0.00014496705261990428,1.0,0.42347949743270874,0.9340000152587891
130,0.00019999682263005525,1.0,0.42573603987693787,0.9344444274902344
131,0.000144980862387456,1.0,0.4261574447154999,0.9342222213745117
132,0.00017077013035304844,1.0,0.4254745841026306,0.9344444274902344
133,0.0001917000481626019,1.0,0.42538315057754517,0.9353333115577698
134,0.00025442021433264017,1.0,0.42817026376724243,0.9357777833938599
135,0.00014249517698772252,1.0,0.43080028891563416,0.9355555772781372
136,0.0002391636517131701,1.0,0.431008517742157,0.9357777833938599
137,0.0001775320852175355,1.0,0.4314667284488678,0.9355555772781372
138,0.0002191511885030195,1.0,0.432772159576416,0.9340000152587891
139,0.0002471471088938415,1.0,0.4331158995628357,0.9337777495384216
140,0.0005648961523547769,1.0,0.426630437374115,0.9340000152587891
141,0.000268670788500458,1.0,0.42958807945251465,0.9340000152587891
142,0.00016223439888563007,1.0,0.43120983242988586,0.9340000152587891
143,0.0001811202964745462,1.0,0.4325847029685974,0.9346666932106018
144,0.00014718981401529163,1.0,0.4341553747653961,0.9351111054420471
145,0.00021145584469195455,1.0,0.43604135513305664,0.9355555772781372
146,0.00016156827041413635,1.0,0.43719664216041565,0.9348888993263245
147,0.00018539655138738453,1.0,0.43783652782440186,0.9344444274902344
148,0.00011790566350100562,1.0,0.43829500675201416,0.9351111054420471
149,0.00012708529538940638,1.0,0.4393002986907959,0.9353333115577698
150,0.00015111482935026288,1.0,0.4393962025642395,0.9351111054420471
151,0.0002049417089438066,1.0,0.4401082992553711,0.9333333373069763
152,0.0001352344552287832,1.0,0.4407517910003662,0.933555543422699
153,0.00015024664753582329,1.0,0.44081082940101624,0.9342222213745117
154,0.00018985655333381146,1.0,0.4430665373802185,0.9348888993263245
155,9.024374594446272e-05,1.0,0.4436754584312439,0.9357777833938599
156,0.00011808541603386402,1.0,0.4442279040813446,0.9357777833938599
157,0.00015807415184099227,1.0,0.44621455669403076,0.9357777833938599
158,0.00015354130300693214,1.0,0.44670113921165466,0.9353333115577698
159,8.092867938103154e-05,1.0,0.446439653635025,0.9353333115577698
160,0.0001291330117965117,1.0,0.44628870487213135,0.9353333115577698
161,7.427212403854355e-05,1.0,0.4462173879146576,0.9359999895095825
162,0.00011740041372831911,1.0,0.4458104968070984,0.9337777495384216
163,0.00010965994442813098,1.0,0.44578859210014343,0.933555543422699
164,0.00010881827620323747,1.0,0.44671475887298584,0.9333333373069763
165,8.968182373791933e-05,1.0,0.4469069540500641,0.9340000152587891
166,0.00011769689444918185,1.0,0.44723692536354065,0.9348888993263245
167,0.00025026744697242975,1.0,0.44865256547927856,0.9337777495384216
168,8.125817112158984e-05,1.0,0.4520948529243469,0.9326666593551636
169,0.00019605766283348203,1.0,0.45073458552360535,0.9337777495384216
170,0.00011104285658802837,1.0,0.4473251700401306,0.9362221956253052
171,0.0001564238191349432,1.0,0.4464983344078064,0.9362221956253052
172,8.136570249916986e-05,1.0,0.4468460977077484,0.9364444613456726
173,0.00010888615361182019,1.0,0.4469587504863739,0.9362221956253052
174,0.00011184906179551035,1.0,0.44775712490081787,0.9359999895095825
175,0.00010587169526843354,1.0,0.44871997833251953,0.9355555772781372
176,0.00017522972484584898,1.0,0.4480641186237335,0.9351111054420471
177,8.875659113982692e-05,1.0,0.44752320647239685,0.9340000152587891
178,0.00019292227807454765,1.0,0.4466644525527954,0.9340000152587891
179,0.00010910344281001016,1.0,0.44613829255104065,0.9346666932106018
180,6.660850340267643e-05,1.0,0.44668856263160706,0.9348888993263245
181,8.417770004598424e-05,1.0,0.44795316457748413,0.9353333115577698
182,0.00010480764467502013,1.0,0.4492272436618805,0.9348888993263245
183,0.00011344972881488502,1.0,0.4499504268169403,0.9351111054420471
184,5.4912528867134824e-05,1.0,0.4508246183395386,0.9353333115577698
185,0.00017878938524518162,1.0,0.4535362124443054,0.9333333373069763
186,0.00013652181951329112,1.0,0.45423391461372375,0.9333333373069763
187,0.00011523376451805234,1.0,0.45538097620010376,0.9333333373069763
188,0.0001393849088344723,1.0,0.456786572933197,0.9333333373069763
189,0.00018384311988484114,1.0,0.4576452970504761,0.9337777495384216
190,8.625881309853867e-05,1.0,0.457837849855423,0.9337777495384216
191,0.00011130949133075774,1.0,0.4583142399787903,0.9337777495384216
192,9.04716071090661e-05,1.0,0.4584730267524719,0.9340000152587891
193,9.71386325545609e-05,1.0,0.45869314670562744,0.9340000152587891
194,7.093422027537599e-05,1.0,0.45914605259895325,0.9340000152587891
195,8.578080451115966e-05,1.0,0.4596441090106964,0.9342222213745117
196,0.00011095382069470361,1.0,0.4602728486061096,0.9340000152587891
197,5.8622073993319646e-05,1.0,0.4603327512741089,0.9340000152587891
198,6.823222793173045e-05,1.0,0.4605942964553833,0.9344444274902344
199,8.571527723688632e-05,1.0,0.4602358937263489,0.9342222213745117
200,0.00018670443387236446,1.0,0.4585273861885071,0.9346666932106018
201,8.909483585739508e-05,1.0,0.45850396156311035,0.9342222213745117
202,6.008115451550111e-05,1.0,0.4587166905403137,0.9342222213745117
203,9.960430907085538e-05,1.0,0.45867761969566345,0.9342222213745117
204,8.004227856872603e-05,1.0,0.45923712849617004,0.9344444274902344
205,5.1982842705911025e-05,1.0,0.4599837362766266,0.9344444274902344
206,6.969553942326456e-05,1.0,0.46076664328575134,0.9348888993263245
207,8.386857371078804e-05,1.0,0.46140256524086,0.9348888993263245
208,8.141557918861508e-05,1.0,0.46177732944488525,0.9348888993263245
209,6.903454777784646e-05,1.0,0.4627937972545624,0.9351111054420471
210,7.504166569560766e-05,1.0,0.46368613839149475,0.9353333115577698
211,0.00014314934378489852,1.0,0.46179643273353577,0.9351111054420471
212,6.311714241746813e-05,1.0,0.46112918853759766,0.9351111054420471
213,7.321654265979305e-05,1.0,0.4617915451526642,0.9346666932106018
214,5.8867739426204935e-05,1.0,0.46253302693367004,0.9346666932106018
215,7.047015969874337e-05,1.0,0.4628445506095886,0.9344444274902344
216,7.852185080992058e-05,1.0,0.46402403712272644,0.9346666932106018
217,4.8291796701960266e-05,1.0,0.46486836671829224,0.9346666932106018
218,7.305236795218661e-05,1.0,0.46498730778694153,0.9346666932106018
219,9.402780415257439e-05,1.0,0.46453386545181274,0.9348888993263245
220,6.001642395858653e-05,1.0,0.4645735025405884,0.9346666932106018
221,7.660812843823805e-05,1.0,0.4655696153640747,0.9342222213745117
222,7.522037049056962e-05,1.0,0.46611687541007996,0.9344444274902344
223,9.67318337643519e-05,1.0,0.46714338660240173,0.9342222213745117
224,0.00013889021647628397,1.0,0.46745964884757996,0.9342222213745117
225,5.511732160812244e-05,1.0,0.4677605926990509,0.9348888993263245
226,0.00011586593609536067,1.0,0.467368483543396,0.9348888993263245
227,5.2396117098396644e-05,1.0,0.46744292974472046,0.9351111054420471
228,5.7580848078941926e-05,1.0,0.467969685792923,0.9348888993263245
229,5.4563515732297674e-05,1.0,0.46877017617225647,0.9348888993263245
230,7.151889440137893e-05,1.0,0.4687836468219757,0.9348888993263245
231,6.173196743475273e-05,1.0,0.46892932057380676,0.9348888993263245
232,5.4131676733959466e-05,1.0,0.46911635994911194,0.9348888993263245
233,7.291280053323135e-05,1.0,0.46904367208480835,0.9348888993263245
234,6.5779902797658e-05,1.0,0.46912118792533875,0.9342222213745117
235,6.194344314280897e-05,1.0,0.4695480763912201,0.9342222213745117
236,4.8800062359077856e-05,1.0,0.469601571559906,0.9344444274902344
237,0.00011626602645264938,1.0,0.46946170926094055,0.9342222213745117
238,5.7850957091432065e-05,1.0,0.46917831897735596,0.9342222213745117
239,6.613321602344513e-05,1.0,0.4692310690879822,0.9342222213745117
240,0.00013557463535107672,1.0,0.46948492527008057,0.9344444274902344
241,5.976248576189391e-05,1.0,0.469806432723999,0.9342222213745117
242,8.300988702103496e-05,1.0,0.4700758457183838,0.9342222213745117
243,7.563734834548086e-05,1.0,0.4700980484485626,0.9344444274902344
244,7.355790148722008e-05,1.0,0.47017502784729004,0.9344444274902344
245,6.66273626848124e-05,1.0,0.47033247351646423,0.9340000152587891
246,4.763172910315916e-05,1.0,0.47052842378616333,0.9342222213745117
247,5.939959373790771e-05,1.0,0.4706951081752777,0.9342222213745117
248,7.523657404817641e-05,1.0,0.4706035554409027,0.9342222213745117
249,4.0611230360809714e-05,1.0,0.47052139043807983,0.9342222213745117
250,6.442527228500694e-05,1.0,0.4704669117927551,0.9342222213745117
251,6.428210326703265e-05,1.0,0.4704682528972626,0.9344444274902344
252,5.489273462444544e-05,1.0,0.4707191288471222,0.9344444274902344
253,4.307457493268885e-05,1.0,0.4705682396888733,0.9344444274902344
254,5.7776967878453434e-05,1.0,0.4707328677177429,0.9346666932106018
255,8.999068813864142e-05,1.0,0.4711996018886566,0.9344444274902344
256,4.931477451464161e-05,1.0,0.4711054265499115,0.9342222213745117
257,6.098110316088423e-05,1.0,0.47140195965766907,0.9344444274902344
258,0.0001151144242612645,1.0,0.47227224707603455,0.9346666932106018
259,4.719042044598609e-05,1.0,0.4725150167942047,0.9351111054420471
260,6.070982271921821e-05,1.0,0.472617506980896,0.9348888993263245
261,4.506351251620799e-05,1.0,0.4727208614349365,0.9346666932106018
262,5.201582462177612e-05,1.0,0.4726824462413788,0.9346666932106018
263,8.038583473535255e-05,1.0,0.47243425250053406,0.9346666932106018
264,5.191014861338772e-05,1.0,0.4724525809288025,0.9346666932106018
265,7.794674456818029e-05,1.0,0.47209709882736206,0.9351111054420471
266,5.207411231822334e-05,1.0,0.471639484167099,0.9355555772781372
267,5.073758075013757e-05,1.0,0.47158077359199524,0.9355555772781372
268,6.847681652288884e-05,1.0,0.471969336271286,0.9355555772781372
269,6.200735515449196e-05,1.0,0.47213584184646606,0.9355555772781372
270,6.447314808610827e-05,1.0,0.47234976291656494,0.9353333115577698
271,6.908357318025082e-05,1.0,0.47235551476478577,0.9353333115577698
272,4.367093424662016e-05,1.0,0.47204577922821045,0.9353333115577698
273,6.628585106227547e-05,1.0,0.472120076417923,0.9353333115577698
274,0.0001335326087428257,1.0,0.4712289571762085,0.9348888993263245
275,5.159269130672328e-05,1.0,0.47026801109313965,0.9344444274902344
276,7.243960135383531e-05,1.0,0.47110459208488464,0.9340000152587891
277,6.331855547614396e-05,1.0,0.47116222977638245,0.9340000152587891
278,5.159402280696668e-05,1.0,0.47184163331985474,0.9337777495384216
279,8.401281229453161e-05,1.0,0.4728253483772278,0.9340000152587891
280,0.00010869639663724229,1.0,0.4736757278442383,0.9337777495384216
281,5.047021841164678e-05,1.0,0.4738582968711853,0.9340000152587891
282,7.965022086864337e-05,1.0,0.474613219499588,0.9340000152587891
283,6.443753954954445e-05,1.0,0.47470346093177795,0.9342222213745117
284,6.642280641244724e-05,1.0,0.47455403208732605,0.9342222213745117
285,4.314520629122853e-05,1.0,0.4741306006908417,0.9340000152587891
286,6.801814015489072e-05,1.0,0.4741462171077728,0.9340000152587891
287,4.0730825276114047e-05,1.0,0.4742760956287384,0.9340000152587891
288,5.763090666732751e-05,1.0,0.4743140637874603,0.9340000152587891
289,6.830662459833547e-05,1.0,0.4740478992462158,0.9340000152587891
290,6.233923340914771e-05,1.0,0.47429221868515015,0.9342222213745117
291,4.4677770347334445e-05,1.0,0.4743037521839142,0.9342222213745117
292,3.465183181106113e-05,1.0,0.4739227294921875,0.9344444274902344
293,4.8310674173990265e-05,1.0,0.4739547669887543,0.9344444274902344
294,6.211942672962323e-05,1.0,0.4740006625652313,0.9344444274902344
295,5.237970617599785e-05,1.0,0.4738544821739197,0.9344444274902344
296,7.1011483669281e-05,1.0,0.47334831953048706,0.9348888993263245
297,6.894979742355645e-05,1.0,0.47357943654060364,0.9348888993263245
298,3.094846033491194e-05,1.0,0.4736221134662628,0.9344444274902344
299,6.057287464500405e-05,1.0,0.4739531874656677,0.9344444274902344
300,6.164055957924575e-05,1.0,0.47434738278388977,0.9346666932106018
301,4.351832831162028e-05,1.0,0.4746073782444,0.9348888993263245
302,5.92987344134599e-05,1.0,0.4748663604259491,0.9348888993263245
303,5.236847937339917e-05,1.0,0.4750763475894928,0.9348888993263245
304,4.136891948292032e-05,1.0,0.47513124346733093,0.9348888993263245
305,9.743779082782567e-05,1.0,0.47525444626808167,0.9348888993263245
306,3.712742181960493e-05,1.0,0.47538307309150696,0.9348888993263245
307,3.9111495425459e-05,1.0,0.4756060540676117,0.9348888993263245
308,8.294703729916364e-05,1.0,0.4761682450771332,0.9351111054420471
309,3.43907049682457e-05,1.0,0.4762910008430481,0.9351111054420471
310,4.751946835312992e-05,1.0,0.47626611590385437,0.9351111054420471
311,4.2103576561203226e-05,1.0,0.47634705901145935,0.9351111054420471
312,5.186151247471571e-05,1.0,0.475913941860199,0.9351111054420471
313,5.817310739075765e-05,1.0,0.47575172781944275,0.9351111054420471
314,6.135550938779488e-05,1.0,0.4756569564342499,0.9348888993263245
315,5.12178085045889e-05,1.0,0.47587570548057556,0.9346666932106018
316,3.545713479979895e-05,1.0,0.47596055269241333,0.9346666932106018
317,4.20741162088234e-05,1.0,0.47602230310440063,0.9346666932106018
318,3.040775663976092e-05,1.0,0.4759026765823364,0.9346666932106018
319,4.272680598660372e-05,1.0,0.4759702682495117,0.9346666932106018
320,0.00012966000940650702,1.0,0.4775061309337616,0.9346666932106018
321,5.033428897149861e-05,1.0,0.4786019027233124,0.9351111054420471
322,5.549798152060248e-05,1.0,0.4790201187133789,0.9351111054420471
323,6.032653254806064e-05,1.0,0.4789386987686157,0.9351111054420471
324,6.1000413552392274e-05,1.0,0.47891899943351746,0.9348888993263245
325,4.0666316635906696e-05,1.0,0.4787878692150116,0.9348888993263245
326,4.7421595809282735e-05,1.0,0.47872695326805115,0.9346666932106018
327,4.085577165824361e-05,1.0,0.47860634326934814,0.9346666932106018
328,6.31104558124207e-05,1.0,0.4787612855434418,0.9346666932106018
329,0.00011449471639934927,1.0,0.47880229353904724,0.9346666932106018
330,4.070446811965667e-05,1.0,0.4785844683647156,0.9348888993263245
331,3.5652334190672264e-05,1.0,0.47862207889556885,0.9348888993263245
332,5.477434751810506e-05,1.0,0.47870704531669617,0.9348888993263245
333,5.005754064768553e-05,1.0,0.47893816232681274,0.9348888993263245
334,4.567983705783263e-05,1.0,0.4790129065513611,0.9351111054420471
335,3.5224722523707896e-05,1.0,0.4789344072341919,0.9351111054420471
336,5.468846211442724e-05,1.0,0.4791775643825531,0.9351111054420471
337,4.6563276555389166e-05,1.0,0.47916752099990845,0.9355555772781372
338,6.412302900571376e-05,1.0,0.47922059893608093,0.9355555772781372
339,3.952228871639818e-05,1.0,0.4791223406791687,0.9355555772781372
340,4.362036270322278e-05,1.0,0.47914865612983704,0.9355555772781372
341,5.8384805015521124e-05,1.0,0.4789539873600006,0.9355555772781372
342,2.4641771233291365e-05,1.0,0.47884678840637207,0.9355555772781372
343,3.808578912867233e-05,1.0,0.47893765568733215,0.9355555772781372
344,4.496305336942896e-05,1.0,0.47913846373558044,0.9355555772781372
345,3.04002060147468e-05,1.0,0.4790772497653961,0.9355555772781372
346,6.617149483645335e-05,1.0,0.4790034592151642,0.9348888993263245
347,4.753199391416274e-05,1.0,0.4789738953113556,0.9348888993263245
348,8.234300912590697e-05,1.0,0.47874635457992554,0.9348888993263245
349,5.084949953015894e-05,1.0,0.47872477769851685,0.9346666932106018
350,4.4483040255727246e-05,1.0,0.47884753346443176,0.9344444274902344
351,5.514360236702487e-05,1.0,0.4790400266647339,0.9344444274902344
352,8.904550486477092e-05,1.0,0.4794124364852905,0.9344444274902344
353,2.9914252081653103e-05,1.0,0.4794800281524658,0.9344444274902344
354,2.735825728450436e-05,1.0,0.4794783592224121,0.9344444274902344
355,3.773588832700625e-05,1.0,0.47958138585090637,0.9344444274902344
356,5.7388187997275963e-05,1.0,0.47966456413269043,0.9344444274902344
357,7.781240128679201e-05,1.0,0.4800894558429718,0.9346666932106018
358,3.867875784635544e-05,1.0,0.4804544746875763,0.9346666932106018
359,7.130077574402094e-05,1.0,0.4808428883552551,0.9346666932106018
360,3.6993122193962336e-05,1.0,0.48114490509033203,0.9346666932106018
361,3.331648986204527e-05,1.0,0.48112425208091736,0.9346666932106018
362,4.784973498317413e-05,1.0,0.48127755522727966,0.9346666932106018
363,4.3863707105629146e-05,1.0,0.4813317060470581,0.9346666932106018
364,6.723001570207998e-05,1.0,0.4815170466899872,0.9346666932106018
365,0.00011218449071748182,1.0,0.48163026571273804,0.9344444274902344
366,4.427527164807543e-05,1.0,0.48140689730644226,0.9337777495384216
367,3.395082967472263e-05,1.0,0.481448233127594,0.9337777495384216
368,4.232803621562198e-05,1.0,0.4814364016056061,0.933555543422699
369,5.6985019909916446e-05,1.0,0.4815123677253723,0.933555543422699
370,4.305719630792737e-05,1.0,0.4816867411136627,0.933555543422699
371,5.6947843404486775e-05,1.0,0.4814184010028839,0.9337777495384216
372,5.149509524926543e-05,1.0,0.4811384081840515,0.9342222213745117
373,2.883073284465354e-05,1.0,0.4808730483055115,0.9344444274902344
374,5.442792462417856e-05,1.0,0.48077982664108276,0.9344444274902344
375,4.862160130869597e-05,1.0,0.48065289855003357,0.9344444274902344
376,5.923069693380967e-05,1.0,0.48072314262390137,0.9342222213745117
377,5.530698399525136e-05,1.0,0.48073485493659973,0.9337777495384216
378,8.627677743788809e-05,1.0,0.48111698031425476,0.9337777495384216
379,5.101177885080688e-05,1.0,0.48138904571533203,0.933555543422699
380,0.00011005299893440679,1.0,0.4806220829486847,0.9337777495384216
381,3.3035448723239824e-05,1.0,0.4800686836242676,0.9337777495384216
382,6.090095121180639e-05,1.0,0.4800327718257904,0.9337777495384216
383,4.435199298313819e-05,1.0,0.4805641174316406,0.9337777495384216
384,6.203573138918728e-05,1.0,0.4810065031051636,0.9337777495384216
385,4.5140513975638896e-05,1.0,0.4812715947628021,0.9337777495384216
386,3.982094494858757e-05,1.0,0.48117339611053467,0.9337777495384216
387,6.654021854046732e-05,1.0,0.48118114471435547,0.9337777495384216
388,5.677328954334371e-05,1.0,0.481204092502594,0.9337777495384216
389,5.359001079341397e-05,1.0,0.48142242431640625,0.9337777495384216
390,7.772944081807509e-05,1.0,0.48181191086769104,0.9342222213745117
391,0.00010365416528657079,1.0,0.4822770059108734,0.9344444274902344
392,3.241746162530035e-05,1.0,0.48249897360801697,0.9344444274902344
393,4.674464798881672e-05,1.0,0.4828905761241913,0.9344444274902344
394,3.578087853384204e-05,1.0,0.482806921005249,0.9344444274902344
395,3.911325620720163e-05,1.0,0.48276540637016296,0.9346666932106018
396,5.277123273117468e-05,1.0,0.4826730787754059,0.9346666932106018
397,3.440090222284198e-05,1.0,0.48248276114463806,0.9346666932106018
398,5.524312655325048e-05,1.0,0.4823697507381439,0.9346666932106018
399,3.733412086148746e-05,1.0,0.4823330044746399,0.9344444274902344
400,0.0001883023651316762,1.0,0.4790080189704895,0.9348888993263245
401,7.230540359159932e-05,1.0,0.4777887463569641,0.9351111054420471
402,6.194267189130187e-05,1.0,0.47801458835601807,0.9355555772781372
403,2.6591656933305785e-05,1.0,0.4784528613090515,0.9355555772781372
404,2.9290629754541442e-05,1.0,0.47901302576065063,0.9353333115577698
405,2.811012564052362e-05,1.0,0.4794195294380188,0.9353333115577698
406,5.695492654922418e-05,1.0,0.4801229238510132,0.9353333115577698
407,3.790886694332585e-05,1.0,0.48045486211776733,0.9355555772781372
408,2.9548762540798634e-05,1.0,0.4806324243545532,0.9355555772781372
409,3.2462223316542804e-05,1.0,0.48078396916389465,0.9355555772781372
410,5.62867644475773e-05,1.0,0.4813922643661499,0.9353333115577698
411,3.0044879167689942e-05,1.0,0.4817417562007904,0.9353333115577698
412,0.00010640807158779353,1.0,0.48171523213386536,0.9355555772781372
413,4.657072713598609e-05,1.0,0.481548935174942,0.9355555772781372
414,5.951261846348643e-05,1.0,0.4819587171077728,0.9357777833938599
415,0.00011601881124079227,1.0,0.48215413093566895,0.9357777833938599
416,8.008370059542358e-05,1.0,0.48206207156181335,0.9353333115577698
417,5.4959185945335776e-05,1.0,0.48228201270103455,0.9346666932106018
418,8.567847544327378e-05,1.0,0.4826866388320923,0.9346666932106018
419,3.608712722780183e-05,1.0,0.48292794823646545,0.9346666932106018
420,4.5982247684150934e-05,1.0,0.4833315312862396,0.9346666932106018
421,5.506413071998395e-05,1.0,0.4836694300174713,0.9346666932106018
422,4.1665924072731286e-05,1.0,0.4839157462120056,0.9346666932106018
423,7.299796561710536e-05,1.0,0.4846562445163727,0.9344444274902344
424,2.56096991506638e-05,1.0,0.4846869111061096,0.9344444274902344
425,3.700847810250707e-05,1.0,0.4846779406070709,0.9344444274902344
426,4.0174214518629014e-05,1.0,0.4849680960178375,0.9344444274902344
427,2.700146615097765e-05,1.0,0.4851089417934418,0.9344444274902344
428,6.93767869961448e-05,1.0,0.48509499430656433,0.9344444274902344
429,4.8608788347337395e-05,1.0,0.4853559136390686,0.9344444274902344
430,2.847943687811494e-05,1.0,0.48542681336402893,0.9344444274902344
431,4.245911259204149e-05,1.0,0.48568642139434814,0.9344444274902344
432,4.765576159115881e-05,1.0,0.48586562275886536,0.9344444274902344
433,5.991156285745092e-05,1.0,0.48586881160736084,0.9348888993263245
434,3.907411883119494e-05,1.0,0.48577794432640076,0.9348888993263245
435,3.130826371489093e-05,1.0,0.48580777645111084,0.9346666932106018
436,3.3801537938416004e-05,1.0,0.4860028624534607,0.9346666932106018
437,4.5636308641405776e-05,1.0,0.4862540662288666,0.9346666932106018
438,2.901465995819308e-05,1.0,0.48623013496398926,0.9348888993263245
439,5.037820301367901e-05,1.0,0.48649662733078003,0.9346666932106018
440,3.524647036101669e-05,1.0,0.4865046739578247,0.9348888993263245
441,2.6797473765327595e-05,1.0,0.4865594506263733,0.9353333115577698
442,3.0900097044650465e-05,1.0,0.48664844036102295,0.9351111054420471
443,3.880858275806531e-05,1.0,0.4867507517337799,0.9348888993263245
444,4.6903423935873434e-05,1.0,0.48691990971565247,0.9348888993263245
445,3.1073559512151405e-05,1.0,0.4867632985115051,0.9353333115577698
446,3.896761700161733e-05,1.0,0.4866342842578888,0.9353333115577698
447,4.485005047172308e-05,1.0,0.486537367105484,0.9353333115577698
448,4.0354832890443504e-05,1.0,0.4868239462375641,0.9346666932106018
449,3.095609281444922e-05,1.0,0.4869936406612396,0.9346666932106018
450,3.114785431534983e-05,1.0,0.4868624210357666,0.9346666932106018
451,4.4878550397697836e-05,1.0,0.486834853887558,0.9346666932106018
452,4.044371235067956e-05,1.0,0.4870510995388031,0.9346666932106018
453,4.573011028696783e-05,1.0,0.4871669411659241,0.9348888993263245
454,4.9785910960054025e-05,1.0,0.48717963695526123,0.9348888993263245
455,4.779059599968605e-05,1.0,0.48742350935935974,0.9348888993263245
456,2.639541526150424e-05,1.0,0.4874463975429535,0.9351111054420471
457,3.509461384965107e-05,1.0,0.4875023365020752,0.9348888993263245
458,4.655568773159757e-05,1.0,0.4874268174171448,0.9348888993263245
459,2.8930395274073817e-05,1.0,0.48713889718055725,0.9348888993263245
460,5.483077620738186e-05,1.0,0.4869363009929657,0.9355555772781372
461,2.9401529900496826e-05,1.0,0.4869416654109955,0.9346666932106018
462,6.487336213467643e-05,1.0,0.4869127571582794,0.9346666932106018
463,4.517631896305829e-05,1.0,0.4869302213191986,0.9346666932106018
464,3.265434497734532e-05,1.0,0.4869651198387146,0.9346666932106018
465,3.029317122127395e-05,1.0,0.48697054386138916,0.9348888993263245
466,1.8377919332124293e-05,1.0,0.4871073067188263,0.9348888993263245
467,4.7642904974054545e-05,1.0,0.48729822039604187,0.9351111054420471
468,2.696947740332689e-05,1.0,0.4873954653739929,0.9351111054420471
469,6.048735303920694e-05,1.0,0.48707786202430725,0.9351111054420471
470,3.3676322345854715e-05,1.0,0.4868183732032776,0.9351111054420471
471,2.7529742510523647e-05,1.0,0.4867362082004547,0.9351111054420471
472,5.7031302276300266e-05,1.0,0.48698124289512634,0.9351111054420471
473,2.5243165509891696e-05,1.0,0.48689866065979004,0.9351111054420471
474,3.604880839702673e-05,1.0,0.487187922000885,0.9355555772781372
475,3.122521593468264e-05,1.0,0.4873290956020355,0.9351111054420471
476,8.048482413869351e-05,1.0,0.48746195435523987,0.9351111054420471
477,2.9933653422631323e-05,1.0,0.4876917898654938,0.9348888993263245
478,3.6140281736152247e-05,1.0,0.4876800775527954,0.9346666932106018
479,3.471595482551493e-05,1.0,0.48782509565353394,0.9346666932106018
480,6.0115762607892975e-05,1.0,0.48789241909980774,0.9346666932106018
481,2.4481872969772667e-05,1.0,0.48764529824256897,0.9351111054420471
482,2.7363490517018363e-05,1.0,0.48751693964004517,0.9353333115577698
483,9.270323789678514e-05,1.0,0.48828357458114624,0.9344444274902344
484,5.1128692575730383e-05,1.0,0.4890192747116089,0.9344444274902344
485,3.454214311204851e-05,1.0,0.4894367456436157,0.9342222213745117
486,3.816589742200449e-05,1.0,0.48942887783050537,0.9344444274902344
487,4.899484702036716e-05,1.0,0.4900199770927429,0.9344444274902344
488,3.2975131034618244e-05,1.0,0.4903727173805237,0.9344444274902344
489,2.3759876057738438e-05,1.0,0.4904344081878662,0.9344444274902344
490,2.6832982257474214e-05,1.0,0.49051764607429504,0.9344444274902344
491,4.476031244848855e-05,1.0,0.49054232239723206,0.9344444274902344
492,8.322691428475082e-05,1.0,0.49115288257598877,0.9353333115577698
493,2.6434157916810364e-05,1.0,0.4915977120399475,0.9353333115577698
494,2.5713570721563883e-05,1.0,0.49172255396842957,0.9353333115577698
495,4.675277159549296e-05,1.0,0.4918515086174011,0.9351111054420471
496,3.2610940252197906e-05,1.0,0.491775780916214,0.9346666932106018
497,7.916193862911314e-05,1.0,0.49181923270225525,0.9351111054420471
498,3.722147812368348e-05,1.0,0.49162232875823975,0.9348888993263245
499,2.4652354113641195e-05,1.0,0.49152180552482605,0.9348888993263245
500,2.516904532967601e-05,1.0,0.4915888011455536,0.9346666932106018
501,4.069443457410671e-05,1.0,0.49181076884269714,0.9348888993263245
502,2.8137785193393938e-05,1.0,0.49161121249198914,0.9351111054420471
503,3.092153565376066e-05,1.0,0.4916096031665802,0.9351111054420471
504,3.0340173907461576e-05,1.0,0.4916580319404602,0.9351111054420471
505,4.495627581491135e-05,1.0,0.4919742941856384,0.9353333115577698
506,0.00016097033221740276,1.0,0.4920806288719177,0.9331111311912537
507,2.2986110707279295e-05,1.0,0.49463388323783875,0.93022221326828
508,4.2539930291241035e-05,1.0,0.4954923987388611,0.9295555353164673
509,0.00011623517639236525,1.0,0.4938009977340698,0.9300000071525574
510,3.332810592837632e-05,1.0,0.4931813180446625,0.9311110973358154
511,3.899974763044156e-05,1.0,0.4934390187263489,0.9313333630561829
512,3.813264629570767e-05,1.0,0.4940092861652374,0.9315555691719055
513,4.654581789509393e-05,1.0,0.4932834208011627,0.9319999814033508
514,3.156137609039433e-05,1.0,0.4928131401538849,0.9322222471237183
515,0.00019880049512721598,1.0,0.4940558671951294,0.9322222471237183
516,4.175065259914845e-05,1.0,0.49551916122436523,0.9324444532394409
517,2.7434385629021563e-05,1.0,0.4961252212524414,0.9324444532394409
518,2.869698619178962e-05,1.0,0.4962186813354492,0.9328888654708862
519,4.1835210140561685e-05,1.0,0.49659547209739685,0.9326666593551636
520,2.8390426450641826e-05,1.0,0.496885746717453,0.9326666593551636
521,2.598657192720566e-05,1.0,0.49697163701057434,0.9328888654708862
522,3.591925633372739e-05,1.0,0.4970620572566986,0.9331111311912537
523,3.962378468713723e-05,1.0,0.49728119373321533,0.9333333373069763
524,4.59554503322579e-05,1.0,0.4977564513683319,0.9333333373069763
525,2.3103748389985412e-05,1.0,0.4978555142879486,0.933555543422699
526,2.3196103938971646e-05,1.0,0.4980672597885132,0.933555543422699
527,3.1358489650301635e-05,1.0,0.49763980507850647,0.9337777495384216
528,3.3896729291882366e-05,1.0,0.49721983075141907,0.9340000152587891
529,2.5902860215865076e-05,1.0,0.49688947200775146,0.9340000152587891
530,3.021723750862293e-05,1.0,0.49711817502975464,0.9337777495384216
531,2.756448884611018e-05,1.0,0.4974951148033142,0.9337777495384216
532,2.040186336671468e-05,1.0,0.49735724925994873,0.9337777495384216
533,2.9526714570238255e-05,1.0,0.49726665019989014,0.9337777495384216
534,3.2184489100473e-05,1.0,0.49725592136383057,0.9340000152587891
535,4.018249819637276e-05,1.0,0.49797874689102173,0.9340000152587891
536,2.8467688025557436e-05,1.0,0.49848127365112305,0.9340000152587891
537,3.629852653830312e-05,1.0,0.49867090582847595,0.9340000152587891
538,2.9854767490178347e-05,1.0,0.49851882457733154,0.9340000152587891
539,5.266784137347713e-05,1.0,0.49822449684143066,0.9342222213745117
540,1.8591210391605273e-05,1.0,0.4977143108844757,0.9342222213745117
541,2.6547051675152034e-05,1.0,0.4976075291633606,0.9342222213745117
542,3.1922172638587654e-05,1.0,0.4978770613670349,0.9342222213745117
543,2.2418513253796846e-05,1.0,0.4982801079750061,0.9342222213745117
544,2.998121090058703e-05,1.0,0.4984671175479889,0.9342222213745117
545,5.058597889728844e-05,1.0,0.49872466921806335,0.9342222213745117
546,5.046172009315342e-05,1.0,0.49996450543403625,0.9342222213745117
547,1.759416045388207e-05,1.0,0.5001742243766785,0.9342222213745117
548,2.5801758965826593e-05,1.0,0.5004062652587891,0.9342222213745117
549,2.624084663693793e-05,1.0,0.5003265142440796,0.9342222213745117
550,3.8880145439179614e-05,1.0,0.5002729892730713,0.9342222213745117
551,2.5738163458299823e-05,1.0,0.49986425042152405,0.9342222213745117
552,4.0202121454058215e-05,1.0,0.4999332129955292,0.9342222213745117
553,2.165576552215498e-05,1.0,0.49985942244529724,0.9342222213745117
554,1.9233630155213177e-05,1.0,0.49946945905685425,0.9342222213745117
555,4.130248271394521e-05,1.0,0.4994674623012543,0.9342222213745117
556,3.8816509913885966e-05,1.0,0.4996927082538605,0.9340000152587891
557,4.117972275707871e-05,1.0,0.4999248683452606,0.9340000152587891
558,2.690611290745437e-05,1.0,0.4997958838939667,0.9340000152587891
559,3.280720193288289e-05,1.0,0.4997512996196747,0.9340000152587891
560,3.985394141636789e-05,1.0,0.49857133626937866,0.9340000152587891
561,1.9476407032925636e-05,1.0,0.4980756342411041,0.9340000152587891
562,1.7992490029428154e-05,1.0,0.4981721341609955,0.9340000152587891
563,3.432672019698657e-05,1.0,0.49830397963523865,0.9340000152587891
564,4.544370676740073e-05,1.0,0.49905115365982056,0.9331111311912537
565,2.3715319912298582e-05,1.0,0.4990752935409546,0.9331111311912537
566,9.4236085715238e-05,1.0,0.49694162607192993,0.9342222213745117
567,2.6643032470019534e-05,1.0,0.49639636278152466,0.9348888993263245
568,3.221258884877898e-05,1.0,0.4969252943992615,0.9348888993263245
569,2.7579500965657644e-05,1.0,0.4972960650920868,0.9348888993263245
570,2.8815493351430632e-05,1.0,0.497249573469162,0.9348888993263245
571,1.659467670833692e-05,1.0,0.49705609679222107,0.9348888993263245
572,2.2507956600748003e-05,1.0,0.49709010124206543,0.9348888993263245
573,2.0720135580631904e-05,1.0,0.4970504641532898,0.9348888993263245
574,6.548169767484069e-05,1.0,0.4984150528907776,0.9342222213745117
575,2.1123085389262997e-05,1.0,0.4996431767940521,0.9337777495384216
576,3.3254465961363167e-05,1.0,0.49950000643730164,0.9337777495384216
577,2.6612893634592183e-05,1.0,0.4989740252494812,0.933555543422699
578,2.6789446565089747e-05,1.0,0.4988333284854889,0.9333333373069763
579,3.3133994293166324e-05,1.0,0.4987441897392273,0.9337777495384216
580,2.9094946512486786e-05,1.0,0.4987882077693939,0.9337777495384216
581,2.9112450647517107e-05,1.0,0.4988230764865875,0.9337777495384216
582,1.804067869670689e-05,1.0,0.4987534284591675,0.9340000152587891
583,2.0397574189701118e-05,1.0,0.49894851446151733,0.9342222213745117
584,3.1266423320630565e-05,1.0,0.4991789162158966,0.9344444274902344
585,2.1446421669679694e-05,1.0,0.4998203217983246,0.9340000152587891
586,2.9193861337262206e-05,1.0,0.5000162720680237,0.9340000152587891
587,3.0982217140262946e-05,1.0,0.5003299117088318,0.9340000152587891
588,2.25142648559995e-05,1.0,0.5002925395965576,0.9340000152587891
589,2.4598730306024663e-05,1.0,0.5002017617225647,0.9340000152587891
590,2.7526964913704433e-05,1.0,0.5005368590354919,0.9342222213745117
591,1.9012381017091684e-05,1.0,0.500893235206604,0.9344444274902344
592,3.583679426810704e-05,1.0,0.5013165473937988,0.9337777495384216
593,1.7223390386789106e-05,1.0,0.5014570355415344,0.9337777495384216
594,2.8684189601335675e-05,1.0,0.5014539361000061,0.9333333373069763
595,2.4229362679761834e-05,1.0,0.5012022852897644,0.9333333373069763
596,2.0728655726998113e-05,1.0,0.5007997155189514,0.9333333373069763
597,1.9485272787278518e-05,1.0,0.5007290840148926,0.9333333373069763
598,2.8034139177179895e-05,1.0,0.5004635453224182,0.9337777495384216
599,2.716145354497712e-05,1.0,0.500487744808197,0.9337777495384216
600,2.3094991774996743e-05,1.0,0.5005086660385132,0.9342222213745117
601,2.7838894311571494e-05,1.0,0.5005123615264893,0.9342222213745117
602,3.5624063457362354e-05,1.0,0.49909260869026184,0.9351111054420471
603,2.9663038731087e-05,1.0,0.4990580379962921,0.9346666932106018
604,2.545811548770871e-05,1.0,0.49931466579437256,0.9346666932106018
605,6.420380668714643e-05,1.0,0.4995599389076233,0.9346666932106018
606,2.5223947886843234e-05,1.0,0.4998038113117218,0.9346666932106018
607,1.852338209573645e-05,1.0,0.500335693359375,0.9346666932106018
608,2.10752768907696e-05,1.0,0.5005159974098206,0.9346666932106018
609,2.336072975595016e-05,1.0,0.5007132291793823,0.9346666932106018
610,2.3655624318053015e-05,1.0,0.5012229681015015,0.9346666932106018
611,4.490065839490853e-05,1.0,0.501980721950531,0.9342222213745117
612,4.735904076369479e-05,1.0,0.5010024905204773,0.9342222213745117
613,2.2252790586207993e-05,1.0,0.5009976625442505,0.9342222213745117
614,2.4234006559709087e-05,1.0,0.5013049840927124,0.9342222213745117
615,1.8839838958228938e-05,1.0,0.5013337731361389,0.9342222213745117
616,2.4911767468438484e-05,1.0,0.5013988614082336,0.9342222213745117
617,2.5883337002596818e-05,1.0,0.5014949440956116,0.9342222213745117
618,2.5898754756781273e-05,1.0,0.5018536448478699,0.9342222213745117
619,1.7143764125648886e-05,1.0,0.5024275779724121,0.9342222213745117
620,3.498448131722398e-05,1.0,0.5021275281906128,0.9340000152587891
621,1.4508146705338731e-05,1.0,0.5021165609359741,0.9340000152587891
622,3.275645212852396e-05,1.0,0.5022569298744202,0.9340000152587891
623,2.0944440620951355e-05,1.0,0.5015251636505127,0.9344444274902344
624,2.1854099031770602e-05,1.0,0.5016140937805176,0.9342222213745117
625,2.1003692381782457e-05,1.0,0.5017769932746887,0.9344444274902344
626,1.63044169312343e-05,1.0,0.5016041398048401,0.9344444274902344
627,2.076513737847563e-05,1.0,0.5018991231918335,0.9342222213745117
628,2.7475061870063655e-05,1.0,0.5006524324417114,0.9351111054420471
629,2.29351226153085e-05,1.0,0.5004553198814392,0.9348888993263245
630,1.7533409845782444e-05,1.0,0.5008724927902222,0.9346666932106018
631,2.4632783606648445e-05,1.0,0.5013877749443054,0.9342222213745117
632,2.2540072677657008e-05,1.0,0.501583993434906,0.9342222213745117
633,1.992648140003439e-05,1.0,0.5011807084083557,0.9344444274902344
634,2.4489458155585453e-05,1.0,0.499790757894516,0.9348888993263245
635,2.0863864847342484e-05,1.0,0.49968060851097107,0.9351111054420471
636,3.712254692800343e-05,1.0,0.5002401471138,0.9351111054420471
637,6.093490810599178e-05,1.0,0.5022968649864197,0.9342222213745117
638,3.866730912704952e-05,1.0,0.5038031339645386,0.9340000152587891
639,1.854559377534315e-05,1.0,0.5050532817840576,0.9340000152587891
640,2.339425918762572e-05,1.0,0.5052528977394104,0.9340000152587891
641,2.291651617269963e-05,1.0,0.5049288868904114,0.9342222213745117
642,2.7361114916857332e-05,1.0,0.5051075220108032,0.9340000152587891
643,1.885066922113765e-05,1.0,0.5053987503051758,0.9340000152587891
644,2.495403532520868e-05,1.0,0.5050492286682129,0.9342222213745117
645,2.286892595293466e-05,1.0,0.5053351521492004,0.9344444274902344
646,1.897549554996658e-05,1.0,0.5056127905845642,0.9340000152587891
647,1.9236917069065385e-05,1.0,0.5056156516075134,0.9342222213745117
648,2.196189234382473e-05,1.0,0.5058209896087646,0.9344444274902344
649,2.6094452550751157e-05,1.0,0.5065518617630005,0.9344444274902344
650,2.5107008696068078e-05,1.0,0.5063247680664062,0.9342222213745117
651,1.8574133719084784e-05,1.0,0.5061852335929871,0.9340000152587891
652,1.9909683032892644e-05,1.0,0.5063848495483398,0.9342222213745117
653,1.2747812434099615e-05,1.0,0.5065476298332214,0.9342222213745117
654,2.0740646505146287e-05,1.0,0.5069406628608704,0.9342222213745117
655,2.64615191554185e-05,1.0,0.5076928734779358,0.9344444274902344
656,3.103848939645104e-05,1.0,0.5081560611724854,0.9346666932106018
657,2.5245859433198348e-05,1.0,0.5083112120628357,0.9346666932106018
658,1.670850360824261e-05,1.0,0.508275032043457,0.9344444274902344
659,2.1085883417981677e-05,1.0,0.5082844495773315,0.9342222213745117
660,1.9008812159881927e-05,1.0,0.5085935592651367,0.9337777495384216
661,1.8790924514178187e-05,1.0,0.5086116790771484,0.9340000152587891
662,2.3094407879398204e-05,1.0,0.5085179209709167,0.9337777495384216
663,3.1962037610355765e-05,1.0,0.5087637305259705,0.9333333373069763
664,2.0935134671162814e-05,1.0,0.5087807178497314,0.9331111311912537
665,1.805187093850691e-05,1.0,0.508826494216919,0.9333333373069763
666,5.850456000189297e-05,1.0,0.5050332546234131,0.933555543422699
667,3.749026291188784e-05,1.0,0.502400279045105,0.9344444274902344
668,3.0210923796403222e-05,1.0,0.5020318031311035,0.9344444274902344
669,3.2663829188095406e-05,1.0,0.5017651319503784,0.9342222213745117
670,2.127853258571122e-05,1.0,0.5014917850494385,0.9340000152587891
671,2.1348052541725338e-05,1.0,0.5022026300430298,0.9340000152587891
672,1.4549915249517653e-05,1.0,0.5027719140052795,0.9342222213745117
673,2.33253031183267e-05,1.0,0.5037856698036194,0.9344444274902344
674,2.441417018417269e-05,1.0,0.5050899982452393,0.9344444274902344
675,2.518011024221778e-05,1.0,0.5067858099937439,0.9344444274902344
676,1.5479787180083804e-05,1.0,0.5082439184188843,0.9344444274902344
677,3.673319588415325e-05,1.0,0.509200930595398,0.9340000152587891
678,3.6707202525576577e-05,1.0,0.5098802447319031,0.9340000152587891
679,2.691735244297888e-05,1.0,0.5107250213623047,0.9340000152587891
680,3.1324529118137434e-05,1.0,0.5114812254905701,0.9342222213745117
681,2.189925726270303e-05,1.0,0.5108823776245117,0.9344444274902344
682,1.800220343284309e-05,1.0,0.5104648470878601,0.9344444274902344
683,1.3354319889913313e-05,1.0,0.5101551413536072,0.9344444274902344
684,1.2288225661905017e-05,1.0,0.5098845362663269,0.9346666932106018
685,1.2411927855282556e-05,1.0,0.5098632574081421,0.9346666932106018
686,1.777686338755302e-05,1.0,0.5102264881134033,0.9344444274902344
687,1.8778027879307047e-05,1.0,0.5102503299713135,0.9342222213745117
688,1.5542640539933927e-05,1.0,0.5104840397834778,0.9340000152587891
689,2.541483445384074e-05,1.0,0.5104352235794067,0.9342222213745117
690,1.7553420548210852e-05,1.0,0.5107221007347107,0.9344444274902344
691,1.9810409867204726e-05,1.0,0.5110233426094055,0.9344444274902344
692,2.5155281036859378e-05,1.0,0.5107065439224243,0.9344444274902344
693,1.9787561541306786e-05,1.0,0.5105186104774475,0.9344444274902344
694,1.657335269555915e-05,1.0,0.5106391310691833,0.9346666932106018
695,9.238805796485394e-05,1.0,0.5108838081359863,0.9344444274902344
696,2.4728122298256494e-05,1.0,0.5152703523635864,0.9306666851043701
697,1.620065449969843e-05,1.0,0.5167327523231506,0.9293333292007446
698,2.8066891900380142e-05,1.0,0.51655113697052,0.9295555353164673
699,2.7125475753564388e-05,1.0,0.5141863226890564,0.9306666851043701
700,2.2657646695734002e-05,1.0,0.5116154551506042,0.9311110973358154
701,2.1148400264792144e-05,1.0,0.5104612708091736,0.9317777752876282
702,2.2462385459220968e-05,1.0,0.5108942985534668,0.9333333373069763
703,1.310591778747039e-05,1.0,0.511390209197998,0.9333333373069763
704,2.0791096176253632e-05,1.0,0.5119951963424683,0.9337777495384216
705,1.7677022697171196e-05,1.0,0.5128812789916992,0.9340000152587891
706,2.264310751343146e-05,1.0,0.5133959054946899,0.9344444274902344
707,1.0056436622107867e-05,1.0,0.5134166479110718,0.9344444274902344
708,1.2265971236047335e-05,1.0,0.5134134292602539,0.9344444274902344
709,3.5495319025358185e-05,1.0,0.5130631923675537,0.9344444274902344
710,2.135400973202195e-05,1.0,0.513274073600769,0.9342222213745117
711,2.4019827833399177e-05,1.0,0.5134576559066772,0.9340000152587891
712,1.7599351849639788e-05,1.0,0.5129762887954712,0.9342222213745117
713,1.81314826477319e-05,1.0,0.5134262442588806,0.9342222213745117
714,1.9385510313441046e-05,1.0,0.5140928030014038,0.9342222213745117
715,1.3654939721163828e-05,1.0,0.5140050053596497,0.9342222213745117
716,2.3925000277813524e-05,1.0,0.5127463936805725,0.9337777495384216
717,1.7926344298757613e-05,1.0,0.5128839612007141,0.9340000152587891
718,2.0553323338390328e-05,1.0,0.5127408504486084,0.9337777495384216
719,8.376456207770389e-06,1.0,0.5127376317977905,0.9346666932106018
720,1.82517778739566e-05,1.0,0.5128411054611206,0.9346666932106018
721,1.8983453628607094e-05,1.0,0.5134050846099854,0.9346666932106018
722,2.8604785256902687e-05,1.0,0.5141810178756714,0.9346666932106018
723,1.3066145584161859e-05,1.0,0.5146883130073547,0.9346666932106018
724,1.3904171282774769e-05,1.0,0.5151883959770203,0.9344444274902344
725,1.4820041542407125e-05,1.0,0.5158423781394958,0.9344444274902344
726,1.0582225513644516e-05,1.0,0.5160945653915405,0.9344444274902344
727,1.5450086721102707e-05,1.0,0.5162322521209717,0.9344444274902344
728,1.629761027288623e-05,1.0,0.516328752040863,0.9344444274902344
729,1.831447116273921e-05,1.0,0.5163216590881348,0.9348888993263245
730,1.2190176676085684e-05,1.0,0.5162503719329834,0.9346666932106018
731,4.6518758608726785e-05,1.0,0.5168604254722595,0.9340000152587891
732,2.4281196601805277e-05,1.0,0.517727255821228,0.9326666593551636
733,1.6901187336770818e-05,1.0,0.5167979598045349,0.9322222471237183
734,1.804693602025509e-05,1.0,0.5171454548835754,0.9319999814033508
735,1.5208184777293354e-05,1.0,0.5169653296470642,0.9328888654708862
736,3.024524630745873e-05,1.0,0.5167509913444519,0.933555543422699
737,2.9700673621846363e-05,1.0,0.516252875328064,0.9337777495384216
738,1.3286404282553121e-05,1.0,0.5143762826919556,0.9340000152587891
739,4.2782179662026465e-05,1.0,0.5135007500648499,0.9346666932106018
740,1.239552966580959e-05,1.0,0.5125874280929565,0.9348888993263245
741,3.2362200727220625e-05,1.0,0.5138048529624939,0.9351111054420471
742,2.1805875803693198e-05,1.0,0.5148388743400574,0.9351111054420471
743,1.2798218449461274e-05,1.0,0.5152477622032166,0.9348888993263245
744,1.3736354048887733e-05,1.0,0.515533447265625,0.9348888993263245
745,9.794047400646377e-06,1.0,0.5154231190681458,0.9348888993263245
746,1.874842928373255e-05,1.0,0.5153862237930298,0.9348888993263245
747,2.5073308279388584e-05,1.0,0.5160129070281982,0.9348888993263245
748,1.534441798867192e-05,1.0,0.5168157815933228,0.9346666932106018
749,2.5868561351671815e-05,1.0,0.5174703598022461,0.9346666932106018
750,1.6998243154375814e-05,1.0,0.5169297456741333,0.9348888993263245
751,1.2499142030719668e-05,1.0,0.5169194936752319,0.9351111054420471
752,1.4999627637735102e-05,1.0,0.5170156955718994,0.9351111054420471
753,1.080025867850054e-05,1.0,0.5171747207641602,0.9351111054420471
754,1.270909433515044e-05,1.0,0.517358124256134,0.9346666932106018
755,2.4549921363359317e-05,1.0,0.5178439021110535,0.9346666932106018
756,1.1221650311199483e-05,1.0,0.5174419283866882,0.9346666932106018
757,1.6825844795675948e-05,1.0,0.5178031921386719,0.9346666932106018
758,0.00030914146918803453,1.0,0.5251407623291016,0.9277777671813965
759,0.0003628211561590433,1.0,0.5329998731613159,0.9028888940811157
760,0.013344143517315388,0.9980000257492065,0.5070287585258484,0.9259999990463257
761,0.004886202048510313,0.9980000257492065,0.6708620190620422,0.9384444355964661
762,0.03845526650547981,0.9919999837875366,0.6589171290397644,0.929111123085022
763,0.008421339094638824,0.9940000176429749,0.7544388175010681,0.9377777576446533
764,0.009686792269349098,0.9959999918937683,0.6810056567192078,0.9364444613456726
765,0.002404509810730815,1.0,0.5864587426185608,0.9402222037315369
766,0.000881076673977077,1.0,0.5602114200592041,0.9419999718666077
767,0.000604393717367202,1.0,0.5246767401695251,0.9415555596351624
768,0.0004082564846612513,1.0,0.5044809579849243,0.940666675567627
769,0.0002676381263881922,1.0,0.4899391829967499,0.9402222037315369
770,0.0002670040703378618,1.0,0.4802362620830536,0.9388889074325562
771,0.00021934544201940298,1.0,0.4720228314399719,0.9375555515289307
772,0.00022215384524315596,1.0,0.4659899175167084,0.937333345413208
773,0.0002538402914069593,1.0,0.46114301681518555,0.9357777833938599
774,0.00023496315407101065,1.0,0.45775270462036133,0.9359999895095825
775,0.00018958377768285573,1.0,0.4547366201877594,0.9357777833938599
776,0.00020220030273776501,1.0,0.4518990218639374,0.9348888993263245
777,0.00013405214122030884,1.0,0.45038872957229614,0.9348888993263245
778,0.00011622440797509626,1.0,0.44949012994766235,0.9351111054420471
779,0.00010311986261513084,1.0,0.4487788677215576,0.9348888993263245
780,0.00013037190365139395,1.0,0.44859084486961365,0.9348888993263245
781,0.00011323830403853208,1.0,0.44847244024276733,0.9346666932106018
782,0.00018659851048141718,1.0,0.44841498136520386,0.9348888993263245
783,0.0001555390190333128,1.0,0.44855865836143494,0.9348888993263245
784,8.779389463597909e-05,1.0,0.4486154317855835,0.9348888993263245
785,0.00012854508531745523,1.0,0.44849708676338196,0.9346666932106018
786,0.00012177392636658624,1.0,0.4489416480064392,0.9340000152587891
787,0.0001410412514815107,1.0,0.44912728667259216,0.9337777495384216
788,8.532783976988867e-05,1.0,0.44967278838157654,0.9337777495384216
789,7.244257722049952e-05,1.0,0.45026895403862,0.9337777495384216
790,8.893159247236326e-05,1.0,0.450639009475708,0.9337777495384216
791,6.437464617192745e-05,1.0,0.4513930380344391,0.9337777495384216
792,8.491682092426345e-05,1.0,0.45222780108451843,0.9340000152587891
793,8.72067830641754e-05,1.0,0.4530505836009979,0.9337777495384216
794,0.00016032673011068255,1.0,0.4537884593009949,0.933555543422699
795,7.746170012978837e-05,1.0,0.45454490184783936,0.9331111311912537
796,0.0001094161270884797,1.0,0.4554326832294464,0.933555543422699
797,0.00017179276619572192,1.0,0.45607665181159973,0.9326666593551636
798,8.226174395531416e-05,1.0,0.4568976163864136,0.9328888654708862
799,0.00011456925858510658,1.0,0.4577414393424988,0.9328888654708862
