,loss,recall,val_loss,val_recall
0,0.6052206158638,0.41262755102040816,0.4359377324581146,0.7893990929705215
1,0.4815120995044708,0.8116780045351473,0.3829186260700226,0.8049878692735835
2,0.3224203884601593,0.821624407338693,0.34083250164985657,0.8216836734693878
3,0.2958221137523651,0.8304988662131519,0.31502994894981384,0.8379011861154718
4,0.23309719562530518,0.8757086167800453,0.33060088753700256,0.8697889412175126
5,0.18090902268886566,0.8734410430839004,0.3310936987400055,0.8691370137798708
6,0.17717675864696503,0.8839285714285714,0.33247536420822144,0.8694727891156463
7,0.2131064236164093,0.8573713984428271,0.29658961296081543,0.892929292929293
8,0.16912467777729034,0.8835361067503925,0.3075560927391052,0.896825396825397
9,0.15318574011325836,0.8607709750566893,0.28194689750671387,0.9098330241187383
10,0.1491522490978241,0.8748626373626373,0.29746896028518677,0.888404452690167
11,0.11537951976060867,0.9009070294784581,0.30701783299446106,0.9102040816326531
12,0.12031730264425278,0.8892050409907554,0.36158838868141174,0.9069049997621427
13,0.16131167113780975,0.9136904761904762,0.347809374332428,0.9121315192743765
14,0.09094856679439545,0.940391156462585,0.40276116132736206,0.8829099471956615
15,0.13333719968795776,0.9529761904761905,0.5383492708206177,0.8903715332286761
16,0.16861595213413239,0.9103475889190175,0.3307695686817169,0.9019274376417235
17,0.09688393026590347,0.9517006802721089,0.32850295305252075,0.9025759954331384
18,0.20048333704471588,0.9101731601731602,0.2944295108318329,0.9098330241187383
19,0.07928140461444855,0.9892857142857142,0.30563288927078247,0.8917534846106275
20,0.09305734932422638,0.9437615955473098,0.34216567873954773,0.8996598639455782
21,0.06850135326385498,0.9642857142857143,0.4112704396247864,0.8937324580181725
22,0.09708434343338013,0.902295918367347,0.3481423258781433,0.9044217687074829
23,0.09083043038845062,0.9484126984126985,0.4476109445095062,0.910374149659864
24,0.223453551530838,0.9589826839826839,0.37157177925109863,0.9187074829931973
25,0.1304483860731125,0.9036255411255413,0.3000808656215668,0.907312925170068
26,0.07249961048364639,0.9880952380952381,0.3096945285797119,0.9108011036582466
27,0.08123733848333359,0.9607683982683983,0.32208916544914246,0.9174860853432282
28,0.06878606230020523,0.9880952380952381,0.4082795977592468,0.9119915798487227
29,0.06175606697797775,0.9672619047619048,0.5567469000816345,0.8851473922902494
30,0.09301159530878067,0.9695578231292518,0.5049594044685364,0.899226963512678
31,0.07354120910167694,0.9778388278388279,0.44350314140319824,0.8937324580181725
32,0.054140400141477585,0.9816017316017316,0.4215882420539856,0.8939342403628119
33,0.05198637768626213,0.9910714285714286,0.4808272421360016,0.8852908995766139
34,0.03659452870488167,0.9880952380952381,0.5696293711662292,0.88139479568051
35,0.15991999208927155,0.9249999999999999,0.4330393671989441,0.8949546485260772
36,0.0686774030327797,0.9628117913832198,0.4359304904937744,0.8852908995766139
37,0.05619385465979576,0.9887445887445887,0.4064503312110901,0.9214285714285715
38,0.074785515666008,0.9637188208616781,0.3615347445011139,0.9108843537414967
39,0.038925401866436005,0.987012987012987,0.4368087947368622,0.9019575662432805
40,0.03377557173371315,0.9935064935064936,0.4600789546966553,0.9251700680272109
41,0.018026651814579964,1.0,0.49164071679115295,0.9251700680272109
42,0.034114938229322433,0.9696969696969697,0.5198463797569275,0.9025759954331384
43,0.019335955381393433,0.9935064935064936,0.4780040681362152,0.9174860853432282
44,0.041203822940588,0.9880952380952381,0.5498233437538147,0.9015040515040516
45,0.0930466577410698,0.9822510822510823,0.524591326713562,0.9174860853432282
46,0.07105144113302231,0.9653061224489796,0.7272206544876099,0.8691653584510728
47,0.11859094351530075,0.9642547928262214,0.43355467915534973,0.9108011036582466
48,0.054688338190317154,0.9761904761904762,0.36088916659355164,0.9119915798487227
49,0.06648833304643631,0.9928571428571429,0.5868737101554871,0.8763082155939299
50,0.06101292744278908,0.9694135229849515,0.5094234347343445,0.9149659863945578
51,0.051410723477602005,0.9833333333333334,0.42378515005111694,0.9119915798487227
52,0.02676546201109886,0.9761904761904762,0.43462827801704407,0.9167534846106274
53,0.024931838735938072,1.0,0.532668948173523,0.9142333856619571
54,0.033891674131155014,0.977891156462585,0.7117642164230347,0.8609925788497216
55,0.007976162247359753,1.0,0.5901647210121155,0.9244065458351173
56,0.013087855651974678,1.0,0.7345637083053589,0.8691653584510728
57,0.03368335962295532,0.994047619047619,0.586798369884491,0.925139146567718
58,0.014463069848716259,0.9952380952380953,0.5579583644866943,0.9226190476190476
59,0.01898178458213806,0.9880952380952381,0.5204569101333618,0.9167534846106274
60,0.0053940718062222,1.0,0.6117100715637207,0.9052146266431981
61,0.09293252229690552,0.9816017316017316,0.768555223941803,0.9044784580498867
62,0.03683394938707352,0.977891156462585,0.764307975769043,0.8920531849103277
63,0.019144510850310326,0.9880952380952381,0.6779749989509583,0.8917534846106275
64,0.006825586315244436,1.0,0.6268724203109741,0.9167534846106274
65,0.03799263387918472,0.9808150183150184,0.6920711398124695,0.9226190476190476
66,0.011958206072449684,0.9880952380952381,0.8980417847633362,0.8907854050711194
67,0.03628062456846237,0.9935064935064936,0.9358469247817993,0.8705389848246992
68,0.059574466198682785,0.9869047619047618,0.6561164259910583,0.9121315192743763
69,0.050751931965351105,0.9776334776334777,0.6519699096679688,0.8722789115646258
70,0.21434977650642395,0.9278293135435992,0.7276525497436523,0.8852908995766139
71,0.045049019157886505,0.9935064935064936,0.7636299729347229,0.9057539682539683
72,0.08996520191431046,0.9421768707482993,0.5554146766662598,0.9061224489795919
73,0.039299655705690384,0.9952380952380953,0.43999961018562317,0.9108011036582466
74,0.03417421504855156,0.9935064935064936,0.4627482295036316,0.9018184196755625
75,0.030158311128616333,0.9843014128728415,0.5843227505683899,0.9061224489795919
76,0.009554224088788033,1.0,0.6728280782699585,0.9061224489795919
77,0.016802240163087845,0.9897959183673469,0.7475108504295349,0.9162956091527521
78,0.02574268914759159,0.9880952380952381,0.8002272844314575,0.9108011036582466
79,0.05145951732993126,0.9526901669758813,0.6623918414115906,0.8984693877551021
80,0.009573644958436489,1.0,0.6969360709190369,0.8901360544217687
81,0.0652739629149437,0.9880952380952381,0.6816362142562866,0.870124716553288
82,0.041755497455596924,0.9720779220779221,0.5379716157913208,0.9018184196755625
83,0.025767331942915916,0.9619047619047619,0.6767188310623169,0.8917844060701204
84,0.00827503390610218,1.0,0.8654091954231262,0.8800401978973407
85,0.023885760456323624,0.9935064935064936,0.8130649328231812,0.8938157081014223
86,0.010755044408142567,1.0,0.7641580700874329,0.9125850340136054
87,0.025000806897878647,0.9778911564625851,0.7429009079933167,0.907452071737786
88,0.0098502766340971,1.0,0.7339469790458679,0.9078231292517006
89,0.058789364993572235,0.9557823129251701,0.8090264201164246,0.8937324580181725
90,0.05500393360853195,0.9832500832500832,0.8336045145988464,0.8996598639455782
91,0.09847843647003174,0.9484126984126985,0.6912737488746643,0.9166666666666667
92,0.013139822520315647,0.9928571428571429,0.7398309707641602,0.9091004233861378
93,0.0481322780251503,0.9821428571428571,0.8140015602111816,0.9125850340136054
94,0.05688727647066116,0.9706632653061226,0.7918921709060669,0.9125850340136054
95,0.009915140457451344,1.0,0.7732231020927429,0.8852908995766139
96,0.04672912508249283,0.9887445887445887,0.581960141658783,0.9108011036582466
97,0.022915879264473915,0.9910714285714286,0.5272113680839539,0.9167534846106274
98,0.012801198288798332,1.0,0.5465465784072876,0.9119915798487227
99,0.003459002822637558,1.0,0.5953688025474548,0.9263605442176871
100,0.0059142811223864555,1.0,0.6369172930717468,0.9311224489795918
101,0.007255553267896175,1.0,0.6860135793685913,0.897247990105133
102,0.017171109095215797,0.9952380952380953,0.704180896282196,0.9061224489795919
103,0.0021908837370574474,1.0,0.7120223045349121,0.9311224489795918
104,0.022691817954182625,0.9910714285714286,0.7250034213066101,0.906998556998557
105,0.10251275449991226,0.969047619047619,0.6983212232589722,0.9119915798487227
106,0.0238365326076746,0.9910714285714286,0.7268611192703247,0.890763997906855
107,0.06508692353963852,0.9570578231292517,0.8245136141777039,0.8890538033395176
108,0.05928335711359978,0.9869047619047618,0.660626232624054,0.8917534846106275
109,0.22837398946285248,0.9657287157287158,0.5015299916267395,0.8730460016174302
110,0.012434303760528564,1.0,0.4824196398258209,0.9019575662432805
111,0.02086408995091915,1.0,0.561494767665863,0.8691653584510728
112,0.025291357189416885,0.9945054945054945,0.5282813906669617,0.9251700680272109
113,0.02235369198024273,0.994047619047619,0.5122939348220825,0.9255102040816326
114,0.012306814081966877,1.0,0.5813547372817993,0.9263605442176871
115,0.004484973847866058,1.0,0.7930508255958557,0.916295609152752
116,0.003722911234945059,1.0,0.9220200181007385,0.907452071737786
117,0.00398994330316782,1.0,0.9423731565475464,0.907452071737786
118,0.02382590062916279,0.9928571428571429,0.8539071083068848,0.9251700680272109
119,0.0038983006961643696,1.0,0.7608224749565125,0.9115337043908472
120,0.0219877939671278,0.9857142857142858,0.9398216605186462,0.9019575662432805
121,0.001546178595162928,1.0,1.0825824737548828,0.8805813234384663
122,0.018145324662327766,0.994047619047619,0.8233355283737183,0.907452071737786
123,0.03594488278031349,0.9845779220779222,0.6970066428184509,0.9115337043908472
124,0.0025711972266435623,1.0,0.722055971622467,0.9115337043908472
125,0.03133097663521767,0.9863095238095239,0.7576724290847778,0.9251700680272109
126,0.0015447379555553198,1.0,0.8583651781082153,0.9251700680272109
127,0.0010326321935281157,1.0,0.9207514524459839,0.9163265306122449
128,0.001712673925794661,1.0,0.9463592767715454,0.907452071737786
129,0.060863055288791656,0.9935064935064936,0.7740122675895691,0.9214285714285714
130,0.023816024884581566,0.9880952380952381,0.6825375556945801,0.9340136054421769
131,0.004128994420170784,1.0,0.6714471578598022,0.9174860853432282
132,0.0032361014746129513,1.0,0.6853436827659607,0.9174860853432282
133,0.007832552306354046,1.0,0.7122915387153625,0.9263605442176871
134,0.002033710014075041,1.0,0.7472400665283203,0.9263605442176871
135,0.0010864065261557698,1.0,0.7655161023139954,0.9263605442176871
136,0.0026001136284321547,1.0,0.7764003872871399,0.9263605442176871
137,0.007552648428827524,1.0,0.8545206189155579,0.9263605442176871
138,0.012813749723136425,0.9935064935064936,0.8896968960762024,0.9125850340136054
139,0.009138689376413822,1.0,0.9121242165565491,0.9078231292517006
140,0.03751176968216896,0.9659863945578231,0.9856227040290833,0.8937324580181725
141,0.05426529049873352,0.9727272727272727,0.9743829369544983,0.917233560090703
142,0.11925316601991653,0.9850340136054422,0.6874895095825195,0.9122448979591837
143,0.020142246037721634,0.9857142857142858,0.6105206608772278,0.8926605140890855
144,0.02017154172062874,0.9952380952380953,0.6265788674354553,0.8926605140890855
145,0.030941171571612358,0.9880119880119881,0.7389383912086487,0.9044784580498867
146,0.04452881962060928,0.9808673469387755,0.642638087272644,0.9070294784580498
147,0.012732939794659615,0.9935064935064936,0.6542297601699829,0.8926605140890855
148,0.02716854214668274,1.0,0.6800404191017151,0.8926605140890855
149,0.009476120583713055,1.0,0.6660961508750916,0.8929748822605966
150,0.014726558700203896,1.0,0.6912440657615662,0.8929748822605966
151,0.029610751196742058,0.9897959183673469,0.7754335403442383,0.8926605140890855
152,0.038470517843961716,0.9863636363636364,0.8072843551635742,0.9175170068027211
153,0.06832613050937653,0.9380952380952381,0.892210066318512,0.9163265306122449
154,0.016809867694973946,0.994047619047619,0.7198839783668518,0.899226963512678
155,0.028932129964232445,0.987012987012987,0.5923506617546082,0.898155019583591
156,0.004445708356797695,1.0,0.6792691349983215,0.8586211407639979
157,0.026349196210503578,0.9857142857142858,0.6281295418739319,0.9175170068027211
158,0.05295297130942345,0.9761904761904762,0.7056898474693298,0.898155019583591
159,0.01843210682272911,0.9910714285714286,0.5851593613624573,0.9086425479282623
160,0.007076731882989407,1.0,0.7433627247810364,0.907452071737786
161,0.010812828317284584,0.9952380952380953,0.8122054934501648,0.907452071737786
162,0.0020449443254619837,1.0,0.8028227090835571,0.898155019583591
163,0.000418699870351702,1.0,0.8184673190116882,0.906998556998557
164,0.0017872549360617995,1.0,0.8433117866516113,0.906998556998557
165,0.03523914888501167,0.9880952380952381,0.8921788930892944,0.9015040515040516
166,0.05577194318175316,0.9952380952380953,0.7953901886940002,0.9117604617604618
167,0.00801483727991581,0.9761904761904762,0.7745477557182312,0.9121315192743763
168,0.016590643674135208,0.9857142857142858,0.8160192370414734,0.9163265306122449
169,0.016333192586898804,0.9952380952380953,0.8179121017456055,0.9019575662432805
170,0.003340990049764514,1.0,0.7622137665748596,0.9108011036582465
171,0.0024960862938314676,1.0,0.7467069625854492,0.9015040515040516
172,0.03154946491122246,0.9928571428571429,0.7394213676452637,0.9015040515040516
173,0.016661381348967552,0.9910714285714286,0.7159536480903625,0.8968253968253969
174,0.006730817258358002,1.0,0.7284484505653381,0.9015040515040516
175,0.0013047923566773534,1.0,0.7584026455879211,0.8917534846106275
176,0.0030402913689613342,1.0,0.7846916317939758,0.8917534846106275
177,0.03387964889407158,0.9935064935064936,0.8620385527610779,0.9073696145124716
178,0.009914502501487732,0.9880952380952381,0.8449999094009399,0.915873015873016
179,0.0011955496156588197,1.0,0.8365103006362915,0.906998556998557
180,0.0007611093460582197,1.0,0.8513858914375305,0.906998556998557
181,0.019666295498609543,0.9928571428571429,0.8701086640357971,0.915873015873016
182,0.002699455711990595,1.0,0.9646390676498413,0.899716553287982
183,0.02414451725780964,0.9880952380952381,0.8834819197654724,0.897247990105133
184,0.015496281906962395,0.9935064935064936,0.8316670060157776,0.9015040515040516
185,0.029959140345454216,0.994047619047619,0.6970364451408386,0.8865991151705437
186,0.016857584938406944,1.0,0.8299341797828674,0.8932840968555255
187,0.022244049236178398,0.9897959183673469,0.9339209794998169,0.9019575662432805
188,0.01399337686598301,0.9928571428571429,1.135764241218567,0.888265306122449
189,0.004284791182726622,1.0,1.024577260017395,0.9019575662432805
190,0.004365438595414162,1.0,0.9527230262756348,0.9166666666666666
191,0.0012157701421529055,1.0,0.9442947506904602,0.9073696145124716
192,0.030538422986865044,0.9897959183673469,0.9579041600227356,0.8870748299319728
193,0.018954062834382057,0.9935064935064936,0.9062488675117493,0.9073696145124716
194,0.0005343042430467904,1.0,0.8857527375221252,0.8968253968253969
195,0.0005778224440291524,1.0,0.8825678825378418,0.8968253968253969
196,0.0022829698864370584,1.0,0.8927802443504333,0.8968253968253969
197,0.001922072609886527,1.0,0.9068977236747742,0.8968253968253969
198,0.01729750633239746,0.9928571428571429,0.9168667793273926,0.906998556998557
199,0.0007267427863553166,1.0,0.9290498495101929,0.9073696145124716
200,0.0005791854346171021,1.0,0.9519807696342468,0.9073696145124716
201,0.0007906477549113333,1.0,0.9679530262947083,0.9073696145124716
202,0.009294552728533745,0.9897959183673469,0.96086585521698,0.915873015873016
203,0.0011483131675049663,1.0,0.9800404906272888,0.906998556998557
204,0.0003490323724690825,1.0,1.0004264116287231,0.906998556998557
205,0.0015939036384224892,1.0,1.0175750255584717,0.906998556998557
206,0.00017668140935711563,1.0,1.0298951864242554,0.906998556998557
207,0.000426426442572847,1.0,1.0429000854492188,0.906998556998557
208,0.0001908009871840477,1.0,1.054619550704956,0.906998556998557
209,0.0009050833759829402,1.0,1.0604677200317383,0.906998556998557
210,0.00012058257561875507,1.0,1.0696461200714111,0.906998556998557
211,0.0003667574201244861,1.0,1.0831048488616943,0.906998556998557
212,3.607263715821318e-05,1.0,1.0912364721298218,0.906998556998557
213,0.01696356199681759,0.9928571428571429,1.0284408330917358,0.9174860853432282
214,0.0038767701480537653,1.0,0.9532002210617065,0.9174860853432282
215,0.00024486868642270565,1.0,0.9312917590141296,0.9174860853432282
216,0.000967998115811497,1.0,0.9397169947624207,0.9174860853432282
217,0.0036791148595511913,1.0,1.0096763372421265,0.9174860853432282
218,0.0006671384326182306,1.0,1.120327353477478,0.925139146567718
219,1.725548463582527e-05,1.0,1.2620594501495361,0.9018184196755625
220,0.031308744102716446,0.9928571428571429,1.0790557861328125,0.925139146567718
221,0.0026077067013829947,1.0,0.9748034477233887,0.9255102040816326
222,0.014259351417422295,1.0,1.0018259286880493,0.9204081632653062
223,0.00029557017842307687,1.0,1.3433393239974976,0.899226963512678
224,0.009565019980072975,1.0,1.5423527956008911,0.8852908995766139
225,0.028835151344537735,0.9952380952380953,1.2571039199829102,0.915873015873016
226,0.016102788969874382,0.9910714285714286,1.3501036167144775,0.9044784580498867
227,0.17685329914093018,0.9755102040816327,1.1776297092437744,0.8890228818800247
228,0.03200031444430351,0.9952380952380953,1.1731537580490112,0.8800401978973407
229,0.028652386739850044,0.9875541125541126,0.6950289607048035,0.907452071737786
230,0.05025603249669075,0.9808673469387755,0.5636301040649414,0.9175170068027211
231,0.039500825107097626,0.9897959183673469,0.559646725654602,0.888404452690167
232,0.014733150601387024,0.9935064935064936,0.5693099498748779,0.898155019583591
233,0.015557539649307728,1.0,0.6188763380050659,0.898155019583591
234,0.0018645422533154488,1.0,0.665924608707428,0.915873015873016
235,0.0077078999020159245,1.0,0.7430514693260193,0.9070294784580498
236,0.002407929627224803,1.0,0.8142125010490417,0.9070294784580498
237,0.014724881388247013,0.994047619047619,0.735759437084198,0.9263605442176871
238,0.034726835787296295,0.9910714285714286,0.7322889566421509,0.9115337043908472
239,0.007865230552852154,0.9857142857142858,0.8051290512084961,0.898155019583591
240,0.0017553584184497595,1.0,0.8791065216064453,0.907452071737786
241,0.002417951123788953,1.0,0.932192862033844,0.907452071737786
242,0.0017813798040151596,1.0,0.9654361605644226,0.907452071737786
243,0.0006157607422210276,1.0,0.9872756004333496,0.907452071737786
244,0.004127260763198137,1.0,1.0038331747055054,0.907452071737786
245,0.0005990479839965701,1.0,1.02354896068573,0.907452071737786
246,0.0002725246886257082,1.0,1.0484281778335571,0.907452071737786
247,0.00033255902235396206,1.0,1.0802253484725952,0.907452071737786
248,0.0029591380152851343,1.0,1.1957961320877075,0.907452071737786
249,0.003056613262742758,1.0,1.2604087591171265,0.9019575662432805
250,0.0018005948513746262,1.0,1.2872639894485474,0.907452071737786
251,0.0001547319261590019,1.0,1.3080946207046509,0.898155019583591
252,0.007330782245844603,1.0,1.1709680557250977,0.9070294784580498
253,0.0005074479267932475,1.0,1.130088210105896,0.9032879818594104
254,0.015266692265868187,0.9880952380952381,1.1480748653411865,0.898155019583591
255,0.0006458340212702751,1.0,1.2204426527023315,0.8926605140890855
256,0.06189211085438728,0.9952380952380953,1.0928837060928345,0.898155019583591
257,0.005203681532293558,1.0,1.0262600183486938,0.9070294784580498
258,0.06078417971730232,0.977891156462585,0.9135872721672058,0.8926605140890855
259,0.01036201510578394,0.9935064935064936,0.8526638150215149,0.8926605140890855
260,0.0011152294464409351,1.0,0.8331536650657654,0.9029169243454958
261,0.003910243511199951,1.0,0.8586820363998413,0.9029169243454958
262,0.007454135920852423,1.0,0.9470964074134827,0.8926605140890855
263,0.0012186196399852633,1.0,1.0114041566848755,0.8829099471956615
264,0.001728435163386166,1.0,1.0443263053894043,0.8829099471956615
265,0.0008188106003217399,1.0,1.0633565187454224,0.8829099471956615
266,0.03639262914657593,0.9935064935064936,0.9393998980522156,0.898155019583591
267,0.036577824503183365,0.9897959183673469,0.8867431879043579,0.898155019583591
268,0.0033976216800510883,1.0,0.895577609539032,0.8926605140890855
269,0.02579110860824585,0.9952380952380953,0.893776535987854,0.898155019583591
270,0.022899270057678223,0.9880952380952381,0.8451926112174988,0.898155019583591
271,0.0030125505290925503,1.0,0.8404620289802551,0.8926605140890855
272,0.021387027576565742,0.9928571428571429,0.8616259694099426,0.8926605140890855
273,0.011255740188062191,0.9880952380952381,0.90660560131073,0.898155019583591
274,0.002082429127767682,1.0,0.9526726007461548,0.898155019583591
275,0.005639408715069294,1.0,0.9783570170402527,0.898155019583591
276,0.0018573928391560912,1.0,1.0057276487350464,0.9070294784580498
277,0.002781091956421733,1.0,1.0676265954971313,0.898155019583591
278,0.00048478186363354325,1.0,1.1533106565475464,0.907452071737786
279,0.000279895932180807,1.0,1.2148544788360596,0.907452071737786
280,0.005168388597667217,1.0,1.2014094591140747,0.9163265306122449
281,0.013236409984529018,0.9761904761904762,1.1764631271362305,0.907452071737786
282,0.001358854933641851,1.0,1.1888052225112915,0.9019575662432805
283,0.005437046755105257,1.0,1.1781848669052124,0.9019575662432805
284,0.0009429501369595528,1.0,1.1068480014801025,0.8926605140890855
285,0.00019079470075666904,1.0,1.0917490720748901,0.9015040515040516
286,0.00011729969264706597,1.0,1.0939868688583374,0.9015040515040516
287,0.0005479445680975914,1.0,1.1093405485153198,0.9015040515040516
288,0.00023706606589257717,1.0,1.1250271797180176,0.9015040515040516
289,0.002159279305487871,1.0,1.1318838596343994,0.9015040515040516
290,0.0009711350430734456,1.0,1.1469086408615112,0.906998556998557
291,0.007280233781784773,0.9910714285714286,1.2157055139541626,0.906998556998557
292,0.0013138630893081427,1.0,1.4716213941574097,0.888265306122449
293,4.808356970897876e-05,1.0,1.719450831413269,0.8644557823129252
294,0.001082575530745089,1.0,1.8632891178131104,0.8644557823129252
295,5.371426959754899e-05,1.0,1.8715174198150635,0.8644557823129252
296,0.005278627388179302,1.0,1.5481345653533936,0.888265306122449
297,0.0003314235364086926,1.0,1.3264895677566528,0.9015040515040516
298,6.42699669697322e-05,1.0,1.2681316137313843,0.9015040515040516
299,6.732358451699838e-05,1.0,1.2902634143829346,0.9108011036582465
300,0.00017836490587797016,1.0,1.3099254369735718,0.9108011036582465
301,0.0012047226773574948,1.0,1.3294416666030884,0.916295609152752
302,0.07888346165418625,0.9910714285714286,1.3017998933792114,0.906998556998557
303,6.716573261655867e-05,1.0,1.8870762586593628,0.8644557823129252
304,0.03699476271867752,0.994047619047619,1.1738221645355225,0.8687118437118436
305,0.005346941761672497,1.0,0.9893880486488342,0.9062659562659563
306,0.020587323233485222,0.9928571428571429,0.9305902719497681,0.9206349206349207
307,0.027362465858459473,0.9791666666666667,0.8731440305709839,0.9206349206349207
308,0.014281208626925945,0.9857142857142858,1.4748585224151611,0.8562306740878168
309,0.16766570508480072,0.9826007326007326,0.7721385359764099,0.8972789115646259
310,0.022004112601280212,0.9761904761904762,0.5461990237236023,0.9078231292517006
311,0.00998823344707489,1.0,0.5314636826515198,0.9163265306122449
312,0.006782977841794491,1.0,0.655295193195343,0.899226963512678
313,0.004455770831555128,1.0,0.7994615435600281,0.8937324580181725
314,0.019149810075759888,0.9928571428571429,0.8803947567939758,0.907452071737786
315,0.0045112259685993195,1.0,1.017685055732727,0.8985260770975056
316,0.012047119438648224,0.9761904761904762,1.0671478509902954,0.9078231292517006
317,0.00958854891359806,0.9910714285714286,1.1528608798980713,0.907452071737786
318,0.0009227928821928799,1.0,1.3812764883041382,0.8800401978973407
319,0.006429546978324652,1.0,1.4103049039840698,0.888265306122449
320,0.040783483535051346,0.9855769230769231,1.296521544456482,0.8879818594104308
321,0.0008532718056812882,1.0,1.1606382131576538,0.898155019583591
322,0.0007573142647743225,1.0,1.131250262260437,0.889172335600907
323,0.03661176189780235,0.969047619047619,1.0504578351974487,0.8926605140890855
324,0.019497156143188477,0.9935064935064936,0.9415766000747681,0.915873015873016
325,0.050131943076848984,0.9761904761904762,0.7958700060844421,0.915873015873016
326,0.005979401059448719,1.0,0.7071269154548645,0.897247990105133
327,0.031040828675031662,0.9952380952380953,0.6565670967102051,0.906998556998557
328,0.009838578291237354,1.0,0.6405593752861023,0.8968253968253969
329,0.01087927632033825,1.0,0.7307146191596985,0.9121315192743763
330,0.004003622569143772,1.0,0.7927852869033813,0.9121315192743763
331,0.02733682096004486,0.9880952380952381,0.8405670523643494,0.888404452690167
332,0.011750979349017143,1.0,0.9123788475990295,0.8972789115646258
333,0.0009415383101440966,1.0,0.9884204268455505,0.8972789115646258
334,0.004509918391704559,1.0,1.0299550294876099,0.915873015873016
335,0.0029651240911334753,1.0,1.0628894567489624,0.915873015873016
336,0.010429945774376392,0.9910714285714286,1.0966522693634033,0.906998556998557
337,0.04961875453591347,0.9928571428571429,1.1194398403167725,0.8926605140890855
338,0.03247145190834999,0.9696969696969697,1.1545689105987549,0.9070294784580498
339,0.010376319289207458,1.0,1.1910959482192993,0.8937324580181725
340,0.0024627107195556164,1.0,1.206807017326355,0.8937324580181725
341,0.004526606760919094,1.0,1.2208473682403564,0.8847497740354883
342,0.002325070556253195,1.0,1.2150593996047974,0.8800401978973407
343,0.009418862871825695,0.9952380952380953,1.1973397731781006,0.8984693877551021
344,0.0001598276721779257,1.0,1.2034337520599365,0.9163265306122449
345,0.0005293831927701831,1.0,1.2423137426376343,0.9163265306122449
346,0.00016928502009250224,1.0,1.2894335985183716,0.9163265306122449
347,0.015301321633160114,0.9880952380952381,1.3991564512252808,0.8847497740354883
348,0.04908670112490654,0.9952380952380953,1.3295732736587524,0.8800401978973407
349,0.011493672616779804,0.9935064935064936,1.1374231576919556,0.907452071737786
350,0.0017167339101433754,1.0,1.1448174715042114,0.9163265306122449
351,0.004073155578225851,1.0,1.1878992319107056,0.915873015873016
352,0.0020354720763862133,1.0,1.227862000465393,0.915873015873016
353,0.017254339531064034,0.9910714285714286,1.1807252168655396,0.9070294784580498
354,0.00021693263261113316,1.0,1.1587082147598267,0.8937324580181725
355,0.0006846261094324291,1.0,1.180185317993164,0.906286570572285
356,0.032616790384054184,0.9880952380952381,1.0480519533157349,0.915873015873016
357,0.04967885836958885,0.9897959183673469,1.0156075954437256,0.9081014223871365
358,0.0026577156968414783,1.0,1.0276182889938354,0.9081014223871365
359,0.0043760137632489204,1.0,1.0473641157150269,0.9081014223871365
360,0.006829294841736555,1.0,1.0453392267227173,0.9070294784580498
361,0.00915095116943121,0.9897959183673469,1.0482032299041748,0.898155019583591
362,0.0003590023552533239,1.0,1.0693204402923584,0.907452071737786
363,0.00024203052453231066,1.0,1.0857385396957397,0.907452071737786
364,0.00028475301223807037,1.0,1.099833607673645,0.907452071737786
365,0.00038245946052484214,1.0,1.1114548444747925,0.898155019583591
366,0.00026184070156887174,1.0,1.1243865489959717,0.898155019583591
367,0.00027654916630126536,1.0,1.1365182399749756,0.898155019583591
368,8.810519648250192e-05,1.0,1.147016167640686,0.898155019583591
369,0.0005096696550026536,1.0,1.1592036485671997,0.898155019583591
370,0.004689216148108244,1.0,1.1931085586547852,0.915873015873016
371,0.0016908105462789536,1.0,1.2696095705032349,0.915873015873016
372,0.0014752241550013423,1.0,1.3290722370147705,0.915873015873016
373,0.002382867503911257,1.0,1.3719409704208374,0.915873015873016
374,0.00024971782113425434,1.0,1.405964732170105,0.915873015873016
375,0.00027368677547201514,1.0,1.4284006357192993,0.915873015873016
376,9.088349906960502e-05,1.0,1.4428678750991821,0.915873015873016
377,0.0006070545641705394,1.0,1.4546658992767334,0.915873015873016
378,0.0015714454930275679,1.0,1.4647828340530396,0.897247990105133
379,0.01642012968659401,0.9935064935064936,1.3634204864501953,0.9073696145124716
380,0.00036362840910442173,1.0,1.3834953308105469,0.8831676260247688
381,0.01239251159131527,1.0,1.3922966718673706,0.9015040515040516
382,0.017406977713108063,1.0,1.461728811264038,0.8937324580181725
383,0.0055823856964707375,1.0,1.2461093664169312,0.907312925170068
384,0.027404651045799255,0.9897959183673469,1.2647546529769897,0.8926605140890855
385,0.012334277853369713,0.994047619047619,1.3584545850753784,0.8972789115646258
386,0.019467433914542198,0.9910714285714286,1.4071016311645508,0.915873015873016
387,0.0003854953683912754,1.0,1.2773030996322632,0.9015349729635443
388,0.00016845609934534878,1.0,1.2437762022018433,0.8926605140890855
389,0.009174270555377007,0.9935064935064936,1.286752700805664,0.915873015873016
390,0.0003790108021348715,1.0,1.3518880605697632,0.915873015873016
391,0.0013896726304665208,1.0,1.3729088306427002,0.915873015873016
392,0.0017580008134245872,1.0,1.3656301498413086,0.915873015873016
393,0.002959204837679863,1.0,1.3956372737884521,0.915873015873016
394,0.0004576608189381659,1.0,1.4665071964263916,0.915873015873016
395,0.004074385855346918,1.0,1.4419578313827515,0.9070294784580498
396,0.000258328189374879,1.0,1.3916232585906982,0.8972789115646258
397,0.0021954718977212906,1.0,1.4405663013458252,0.9070294784580498
398,0.007322841323912144,0.9880952380952381,1.4545427560806274,0.8829099471956615
399,0.00019033222633879632,1.0,1.5193902254104614,0.8937324580181725
400,0.026695264503359795,0.9935064935064936,1.3859964609146118,0.9090136054421769
401,0.020856324583292007,0.9880952380952381,1.2864478826522827,0.9090136054421769
402,0.0008101299172267318,1.0,1.2433875799179077,0.9090136054421769
403,0.0037517177406698465,1.0,1.2920714616775513,0.9078231292517006
404,0.03523341193795204,0.9816017316017316,1.4082080125808716,0.9078231292517006
405,0.022275080904364586,0.9841269841269842,1.441702961921692,0.9081014223871365
406,0.007661382667720318,0.9935064935064936,1.2794338464736938,0.9006279434850863
407,0.028943290933966637,0.9935064935064936,1.296501874923706,0.915873015873016
408,0.018656564876437187,0.9880952380952381,1.190891981124878,0.915873015873016
409,0.01039738766849041,0.9880952380952381,1.0864213705062866,0.906998556998557
410,0.002332208910956979,1.0,1.0747535228729248,0.9015040515040516
411,0.0422525629401207,0.9857142857142858,1.6311603784561157,0.8665620094191523
412,0.14014723896980286,0.9696969696969697,1.5987472534179688,0.8763082155939299
413,0.006766303908079863,1.0,0.7837210297584534,0.9178571428571428
414,0.034075457602739334,0.9880952380952381,0.7169888615608215,0.9263605442176871
415,0.0063888197764754295,1.0,0.7832868695259094,0.915873015873016
416,0.021088236942887306,0.9952380952380953,0.875465452671051,0.906998556998557
417,0.0008465090650133789,1.0,0.9423362612724304,0.906998556998557
418,0.0009665086981840432,1.0,0.993077278137207,0.906998556998557
419,0.005306764040142298,1.0,1.0289701223373413,0.906998556998557
420,0.003332969034090638,1.0,1.0968403816223145,0.906998556998557
421,0.00047125708078965545,1.0,1.1507139205932617,0.906998556998557
422,0.0004970052395947278,1.0,1.1877377033233643,0.906998556998557
423,0.0022989357821643353,1.0,1.2357251644134521,0.906998556998557
424,0.015841268002986908,0.9928571428571429,1.3089333772659302,0.915873015873016
425,0.0007295617833733559,1.0,1.4806077480316162,0.899716553287982
426,0.00519069517031312,1.0,1.5081446170806885,0.899716553287982
427,0.005431362893432379,1.0,1.4524409770965576,0.9073696145124716
428,0.006555693689733744,1.0,1.4441382884979248,0.9073696145124716
429,5.440976019599475e-05,1.0,1.4396696090698242,0.9178571428571428
430,0.0002255917788716033,1.0,1.4431573152542114,0.9178571428571428
431,0.00011252400872763246,1.0,1.4494282007217407,0.9178571428571428
432,0.00017487250443082303,1.0,1.4564403295516968,0.9178571428571428
433,0.003965761046856642,1.0,1.4885179996490479,0.907312925170068
434,0.04875018447637558,0.9880952380952381,1.3248614072799683,0.9015040515040516
435,0.0064334869384765625,0.9945054945054945,1.1689988374710083,0.9015040515040516
436,0.0092586949467659,0.9761904761904762,1.0982173681259155,0.906998556998557
437,0.00010875793668674305,1.0,1.0824594497680664,0.906998556998557
438,0.00039174934499897063,1.0,1.0809012651443481,0.897247990105133
439,0.00020925574062857777,1.0,1.0868515968322754,0.9061224489795919
440,0.010566018521785736,0.9928571428571429,1.090098261833191,0.915873015873016
441,0.0008865417912602425,1.0,1.130922555923462,0.9082199546485261
442,0.012712649069726467,0.9880952380952381,1.1007362604141235,0.915873015873016
443,0.0011576380347833037,1.0,1.1172767877578735,0.906998556998557
444,0.00015703275857958943,1.0,1.1488991975784302,0.9015040515040516
445,0.0012293985346332192,1.0,1.173331618309021,0.9015040515040516
446,0.00014017017383594066,1.0,1.189037561416626,0.906998556998557
447,0.0032814412843436003,1.0,1.2083346843719482,0.915873015873016
448,0.00010316365660401061,1.0,1.242091417312622,0.9263605442176871
449,0.000139305237098597,1.0,1.2640739679336548,0.9263605442176871
450,0.0002108401240548119,1.0,1.2807806730270386,0.9263605442176871
451,0.0002368547284277156,1.0,1.2928675413131714,0.9263605442176871
452,0.0007584988488815725,1.0,1.30532968044281,0.9263605442176871
453,5.1855236961273476e-05,1.0,1.31719172000885,0.915873015873016
454,0.00036050676135346293,1.0,1.3290387392044067,0.915873015873016
455,4.4179472752148286e-05,1.0,1.3396079540252686,0.915873015873016
456,5.0446775276213884e-05,1.0,1.3488225936889648,0.915873015873016
457,0.00018367148004472256,1.0,1.3556071519851685,0.915873015873016
458,0.0003971594269387424,1.0,1.3605865240097046,0.915873015873016
459,7.79805050115101e-05,1.0,1.3596149682998657,0.915873015873016
460,1.3469826626533177e-05,1.0,1.3613117933273315,0.915873015873016
461,0.003744530724361539,1.0,1.3831979036331177,0.9263605442176871
462,3.212577212252654e-05,1.0,1.4508037567138672,0.9263605442176871
463,0.0011843378888443112,1.0,1.4983092546463013,0.9102040816326531
464,0.006386931054294109,1.0,1.4261305332183838,0.915873015873016
465,8.112083742162213e-05,1.0,1.5400667190551758,0.9015040515040516
466,0.009560421109199524,0.9945054945054945,1.5158406496047974,0.9263605442176871
467,0.030950279906392097,0.9880952380952381,1.387323021888733,0.915873015873016
468,6.20404098299332e-05,1.0,1.313485860824585,0.906998556998557
469,2.3813729058019817e-05,1.0,1.3289215564727783,0.8917534846106275
470,0.0013376135611906648,1.0,1.3369245529174805,0.8917534846106275
471,0.0004710026259999722,1.0,1.3428469896316528,0.8917534846106275
472,0.000712428183760494,1.0,1.3301199674606323,0.8917534846106275
473,0.00017269133240915835,1.0,1.326081395149231,0.9015040515040516
474,0.000591981690376997,1.0,1.3118374347686768,0.9015040515040516
475,7.799504237482324e-05,1.0,1.3115283250808716,0.9015040515040516
476,0.0006883070454932749,1.0,1.3222856521606445,0.9015040515040516
477,0.00037448114017024636,1.0,1.3358850479125977,0.9015040515040516
478,0.00018098978034686297,1.0,1.3490923643112183,0.9015040515040516
479,9.169756958726794e-05,1.0,1.360371708869934,0.9015040515040516
480,0.00015857686230447143,1.0,1.3662426471710205,0.9015040515040516
481,0.02305292710661888,0.9928571428571429,1.3134254217147827,0.9263605442176871
482,0.04388890042901039,0.9863095238095239,1.419915795326233,0.9026360544217686
483,0.02326500415802002,0.9857142857142858,1.0436739921569824,0.9178571428571428
484,0.00038970462628640234,1.0,1.08440363407135,0.8926605140890855
485,0.0005354515160433948,1.0,1.2968684434890747,0.8691653584510728
486,0.08912331610918045,0.994047619047619,0.7827573418617249,0.8939342403628119
487,0.009457295760512352,1.0,0.938082754611969,0.8687074829931972
488,0.020335020497441292,0.9897959183673469,0.8025853037834167,0.898155019583591
489,0.005573514383286238,1.0,0.9173280596733093,0.8929748822605966
490,0.0084907878190279,0.994047619047619,0.9112330675125122,0.906998556998557
491,0.0007828332600183785,1.0,0.9476969838142395,0.906998556998557
492,0.024374643340706825,0.9935064935064936,1.1441295146942139,0.8981009070294784
493,0.03639490157365799,0.977891156462585,0.9261687994003296,0.915873015873016
494,0.0009024622268043458,1.0,0.9686018824577332,0.899226963512678
495,0.0008440310484729707,1.0,1.030013918876648,0.8937324580181725
496,0.011930749751627445,0.9952380952380953,0.9828731417655945,0.8917534846106275
497,0.0006134193972684443,1.0,1.1508978605270386,0.8841836734693878
498,0.01635509729385376,0.9897959183673469,1.0579419136047363,0.899226963512678
499,0.00031378865242004395,1.0,1.1615259647369385,0.8847497740354883
500,0.005746614653617144,1.0,1.1416467428207397,0.899226963512678
501,7.048045517876744e-05,1.0,1.086720585823059,0.907452071737786
502,7.503364031435922e-05,1.0,1.0716239213943481,0.898155019583591
503,0.0005558796692639589,1.0,1.0798965692520142,0.898155019583591
504,0.00018197916506323963,1.0,1.0919650793075562,0.898155019583591
505,4.993638867745176e-05,1.0,1.1025906801223755,0.898155019583591
506,0.0003446168266236782,1.0,1.1174179315567017,0.898155019583591
507,9.761557157617062e-05,1.0,1.130629062652588,0.898155019583591
508,0.0019306772155687213,1.0,1.1394197940826416,0.898155019583591
509,0.00013256361125968397,1.0,1.1549776792526245,0.898155019583591
510,0.0015292024472728372,1.0,1.203649878501892,0.898155019583591
511,0.0002782821247819811,1.0,1.2526553869247437,0.898155019583591
512,4.072309093317017e-05,1.0,1.278019905090332,0.898155019583591
513,0.0031636708881706,1.0,1.3665131330490112,0.888404452690167
514,0.07809505611658096,0.9952380952380953,1.2394737005233765,0.898155019583591
515,0.004102856386452913,1.0,1.1248514652252197,0.8985260770975056
516,0.0016845881473273039,1.0,1.1008411645889282,0.8985260770975056
517,0.0055967760272324085,1.0,1.0845355987548828,0.9070294784580498
518,0.004253423772752285,1.0,1.1118243932724,0.888404452690167
519,0.003267706837505102,1.0,1.1325876712799072,0.898155019583591
520,0.0008028647280298173,1.0,1.1526775360107422,0.898155019583591
521,7.910180283943191e-05,1.0,1.1710290908813477,0.898155019583591
522,0.0009649937856011093,1.0,1.1874427795410156,0.898155019583591
523,0.00017539779946673661,1.0,1.2092515230178833,0.898155019583591
524,7.538520003436133e-05,1.0,1.2289358377456665,0.898155019583591
525,9.77268282440491e-05,1.0,1.248567819595337,0.898155019583591
526,6.182528159115463e-05,1.0,1.2775428295135498,0.898155019583591
527,2.7776752176578157e-05,1.0,1.3127597570419312,0.898155019583591
528,0.00023788916587363929,1.0,1.3657349348068237,0.898155019583591
529,0.005458487663418055,1.0,1.5814952850341797,0.907452071737786
530,0.0005119218258187175,1.0,1.8069212436676025,0.9117477760334902
531,0.0013121621450409293,1.0,1.857609748840332,0.9117477760334902
532,0.0012190727284178138,1.0,1.6497609615325928,0.9163265306122449
533,7.36177244107239e-05,1.0,1.6068264245986938,0.9163265306122449
534,0.023406995460391045,0.9880952380952381,1.6876122951507568,0.899226963512678
535,0.13069987297058105,0.9952380952380953,1.4521769285202026,0.899226963512678
536,0.0002605379850137979,1.0,1.1333363056182861,0.907452071737786
537,0.0062671201303601265,1.0,1.0077598094940186,0.9251700680272109
538,0.00600424874573946,1.0,1.0416022539138794,0.9251700680272109
539,0.0024295696057379246,1.0,1.1102696657180786,0.9175170068027211
540,0.004330154042690992,1.0,1.1826409101486206,0.9175170068027211
541,0.026749875396490097,0.9952380952380953,1.3819009065628052,0.8901927437641725
542,0.0671653151512146,0.9665816326530613,1.4287751913070679,0.9140538033395177
543,0.20495860278606415,0.969047619047619,1.3097779750823975,0.8903715332286761
544,0.020236363634467125,1.0,0.7212114930152893,0.9108011036582466
545,0.050041522830724716,0.9785714285714286,1.0094250440597534,0.8917844060701204
546,0.009083048440515995,1.0,1.3044087886810303,0.8835592978450121
547,0.005902885925024748,1.0,1.4392644166946411,0.8903009688723975
548,0.010706097818911076,1.0,1.453572392463684,0.8985260770975056
549,0.000978406984359026,1.0,1.4752062559127808,0.8996598639455782
550,0.00042811347520910203,1.0,1.5123683214187622,0.8996598639455782
551,0.014507768675684929,1.0,1.5052825212478638,0.9081014223871365
552,0.16267439723014832,0.9607683982683983,1.3696922063827515,0.9166666666666667
553,0.0020137629471719265,1.0,1.0879465341567993,0.9163265306122449
554,0.012525985017418861,0.9952380952380953,1.0230979919433594,0.9081014223871365
555,0.002394692273810506,1.0,1.0130541324615479,0.9163265306122449
556,0.005324341356754303,1.0,1.0163278579711914,0.9251700680272109
557,0.0032469569705426693,1.0,1.03175950050354,0.9251700680272109
558,0.0013049115659669042,1.0,1.0468350648880005,0.9251700680272109
559,0.0006938462029211223,1.0,1.0693575143814087,0.9251700680272109
560,0.001094797975383699,1.0,1.0965825319290161,0.9251700680272109
561,0.00020271469838917255,1.0,1.1180680990219116,0.9251700680272109
562,0.00566356023773551,1.0,1.1826893091201782,0.9163265306122449
563,0.0005566723993979394,1.0,1.3554646968841553,0.9081014223871365
564,0.0036976169794797897,1.0,1.4417046308517456,0.8996598639455782
565,0.009202772751450539,0.9935064935064936,1.3210079669952393,0.9163265306122449
566,0.0004261559806764126,1.0,1.2744009494781494,0.907452071737786
567,0.00041670375503599644,1.0,1.2605721950531006,0.907452071737786
568,0.0015817465027794242,1.0,1.2681007385253906,0.907452071737786
569,3.871959779644385e-05,1.0,1.2767517566680908,0.907452071737786
570,0.001248658518306911,1.0,1.2979004383087158,0.907452071737786
571,0.00019542450900189579,1.0,1.3138058185577393,0.907452071737786
572,0.00016061025962699205,1.0,1.3258475065231323,0.907452071737786
573,0.00043056029244326055,1.0,1.336767554283142,0.907452071737786
574,3.106964140897617e-05,1.0,1.3421356678009033,0.907452071737786
575,0.010856492444872856,0.9761904761904762,1.345144271850586,0.9019575662432805
576,0.00011895837815245613,1.0,1.3362500667572021,0.8937324580181725
577,0.0026188422925770283,1.0,1.3386427164077759,0.9019575662432805
578,0.0003853832895401865,1.0,1.3377161026000977,0.9019575662432805
579,0.006675694137811661,1.0,1.2965819835662842,0.9108011036582466
580,0.03473518043756485,0.9910714285714286,1.330472707748413,0.9166666666666667
581,0.04725266620516777,0.9897959183673469,1.3477414846420288,0.8852908995766139
582,0.07539252191781998,0.9875541125541126,1.0837246179580688,0.9070294784580498
583,0.25542157888412476,0.9776334776334777,0.981744647026062,0.899716553287982
584,0.007964993827044964,1.0,0.9543875455856323,0.8937324580181725
585,0.024027105420827866,1.0,1.1223418712615967,0.8847497740354884
586,0.0452907495200634,0.9880952380952381,0.9003438949584961,0.8937324580181725
587,0.021840142086148262,0.9935064935064936,0.8223896622657776,0.9102040816326531
588,0.027023840695619583,0.9880952380952381,0.8315674066543579,0.9226190476190476
589,0.0026396524626761675,1.0,0.8325814008712769,0.9226190476190476
590,0.010739213787019253,0.9897959183673469,0.8534035086631775,0.8926605140890855
591,0.0008676843717694283,1.0,0.9347764849662781,0.9019575662432805
592,0.0014127296162769198,1.0,0.9908515810966492,0.9019575662432805
593,0.016411734744906425,0.9928571428571429,0.9996994137763977,0.9251700680272109
594,0.0006833745283074677,1.0,1.024411678314209,0.9251700680272109
595,0.0006145103252492845,1.0,1.0670684576034546,0.9073696145124718
596,0.0009414777741767466,1.0,1.0947030782699585,0.9073696145124718
597,0.015262591652572155,0.9897959183673469,1.0927635431289673,0.915873015873016
598,0.0020729713141918182,1.0,1.119154691696167,0.9163265306122449
599,0.0019189779413864017,1.0,1.125086784362793,0.9163265306122449
600,0.00024950108490884304,1.0,1.1362979412078857,0.9251700680272109
601,0.00027737676282413304,1.0,1.1459953784942627,0.9251700680272109
602,0.00022611247550230473,1.0,1.1545294523239136,0.9251700680272109
603,0.00023377977777272463,1.0,1.1644803285598755,0.9251700680272109
604,0.0005017228540964425,1.0,1.1703987121582031,0.9251700680272109
605,0.0022308144252747297,1.0,1.2129355669021606,0.9251700680272109
606,0.0002557208645157516,1.0,1.2412645816802979,0.9251700680272109
607,0.03289907053112984,0.9935064935064936,1.2566112279891968,0.915873015873016
608,0.022683575749397278,0.9791666666666667,1.1866534948349,0.9251700680272109
609,0.0029309208039194345,1.0,1.0763150453567505,0.9251700680272109
610,0.0026970314793288708,1.0,1.065157413482666,0.9162956091527521
611,0.0005821989034302533,1.0,1.069492220878601,0.9162956091527521
612,0.009407823905348778,0.9952380952380953,0.9819930195808411,0.9086425479282623
613,0.0010168367298319936,1.0,0.970230758190155,0.9222479901051329
614,0.040763191878795624,0.9785714285714286,1.0008186101913452,0.9263605442176871
615,0.0004567958239931613,1.0,1.0501829385757446,0.9263605442176871
616,0.0017833712045103312,1.0,1.0852841138839722,0.9082199546485261
617,0.011711396276950836,0.9761904761904762,1.0570740699768066,0.9175170068027211
618,0.0012182920472696424,1.0,1.0297361612319946,0.9251700680272109
619,0.007623832207173109,0.9880952380952381,1.0486167669296265,0.9162956091527521
620,0.009347337298095226,0.9952380952380953,1.046831488609314,0.9162956091527521
621,0.00010886132076848298,1.0,1.0230590105056763,0.9162956091527521
622,0.0005526648019440472,1.0,1.0210278034210205,0.9251700680272109
623,0.0008764183148741722,1.0,1.0311915874481201,0.9251700680272109
624,0.00021487219783011824,1.0,1.0406545400619507,0.9251700680272109
625,0.0002329057751921937,1.0,1.0489790439605713,0.9251700680272109
626,0.0008873100159689784,1.0,1.0601774454116821,0.9251700680272109
627,0.0031137026380747557,1.0,1.0909970998764038,0.9162956091527521
628,7.036170427454636e-05,1.0,1.1169911623001099,0.9162956091527521
629,4.390601679915562e-05,1.0,1.1310755014419556,0.9251700680272109
630,0.00012305723794270307,1.0,1.140588402748108,0.9251700680272109
631,2.9216442271717824e-05,1.0,1.1464893817901611,0.9251700680272109
632,0.00012074768164893612,1.0,1.1510993242263794,0.9251700680272109
633,0.0004132601316086948,1.0,1.1569522619247437,0.9251700680272109
634,0.00033646970405243337,1.0,1.1652239561080933,0.9251700680272109
635,0.002762542339041829,1.0,1.1516215801239014,0.9251700680272109
636,4.0627615817356855e-05,1.0,1.115167260169983,0.9175170068027211
637,4.0803315641824156e-05,1.0,1.1035544872283936,0.9263605442176871
638,0.0029123176354914904,1.0,1.119842767715454,0.9263605442176871
639,0.001314293360337615,1.0,1.1683320999145508,0.9263605442176871
640,0.00036694941809400916,1.0,1.205018401145935,0.9263605442176871
641,5.764752859249711e-05,1.0,1.2292397022247314,0.9263605442176871
642,0.0007799635059200227,1.0,1.260496735572815,0.9263605442176871
643,1.2669067473325413e-05,1.0,1.2844332456588745,0.9175170068027211
644,0.0002818494976963848,1.0,1.2997630834579468,0.9175170068027211
645,1.868908293545246e-05,1.0,1.3093270063400269,0.9175170068027211
646,7.165181887103245e-05,1.0,1.3163551092147827,0.9175170068027211
647,0.011083610355854034,0.9910714285714286,1.482118844985962,0.9163265306122449
648,0.043721701949834824,0.9928571428571429,1.7009142637252808,0.9081014223871365
649,0.0003112864797003567,1.0,1.4084432125091553,0.899716553287982
650,0.012846204452216625,0.9761904761904762,1.2837867736816406,0.9263605442176871
651,0.000535784347448498,1.0,1.1795940399169922,0.9263605442176871
652,0.00018633018771652132,1.0,1.1463314294815063,0.9263605442176871
653,0.0011586471227928996,1.0,1.149383544921875,0.9263605442176871
654,0.002745851641520858,1.0,1.1785811185836792,0.9263605442176871
655,0.004853756166994572,1.0,1.2363790273666382,0.915873015873016
656,0.0006147432141005993,1.0,1.3395625352859497,0.9108011036582465
657,0.018407152965664864,0.994047619047619,1.2197647094726562,0.9340136054421769
658,0.025209039449691772,0.9910714285714286,1.1636455059051514,0.9251700680272109
659,0.0004656813689507544,1.0,1.1640357971191406,0.9108320251177394
660,0.000955698371399194,1.0,1.196415662765503,0.8890228818800247
661,0.00017879930965136737,1.0,1.2237403392791748,0.8890228818800247
662,0.0005317252944223583,1.0,1.2311888933181763,0.8890228818800247
663,0.001237770775333047,1.0,1.2285836935043335,0.897247990105133
664,0.0018596231238916516,1.0,1.1970722675323486,0.9019575662432805
665,0.00018103195179719478,1.0,1.1897287368774414,0.9108011036582466
666,0.025775346904993057,0.9897959183673469,1.2499067783355713,0.888265306122449
667,0.020744791254401207,0.994047619047619,1.1158838272094727,0.9019575662432805
668,0.0005709758843295276,1.0,1.0477849245071411,0.9015040515040516
669,0.00018152692064177245,1.0,1.04549241065979,0.915873015873016
670,0.003918155562132597,1.0,1.066152572631836,0.9044784580498867
671,0.01755852811038494,0.9910714285714286,1.0794585943222046,0.9024943310657596
672,0.0003556008741725236,1.0,1.120367407798767,0.8838693052978768
673,0.0030110576190054417,1.0,1.2135335206985474,0.8729532372389516
674,0.03655052185058594,0.9935064935064936,1.0583711862564087,0.9070294784580498
675,0.017567366361618042,0.9880952380952381,1.0240033864974976,0.9070294784580498
676,0.007294061128050089,1.0,0.9798538088798523,0.915873015873016
677,0.00016312274965457618,1.0,0.9614743590354919,0.915873015873016
678,0.00034457925357855856,1.0,0.9597784876823425,0.915873015873016
679,0.0005336886970326304,1.0,0.9632241129875183,0.915873015873016
680,0.011583377607166767,0.9952380952380953,0.959031879901886,0.9263605442176871
681,0.0017577233957126737,1.0,0.9572683572769165,0.9263605442176871
682,0.017367538064718246,0.9880952380952381,0.9643235802650452,0.9263605442176871
683,0.0013790136436000466,1.0,0.9945861101150513,0.906998556998557
684,0.001054528751410544,1.0,1.0220658779144287,0.906998556998557
685,0.0007243718719109893,1.0,1.0419450998306274,0.906998556998557
686,0.00273723597638309,1.0,1.0848748683929443,0.915873015873016
687,0.0008454918279312551,1.0,1.122045636177063,0.915873015873016
688,0.0005092353676445782,1.0,1.146904706954956,0.915873015873016
689,0.00019793733372353017,1.0,1.1630489826202393,0.915873015873016
690,0.0005768892588093877,1.0,1.1738841533660889,0.915873015873016
691,0.0001630182086955756,1.0,1.181361436843872,0.915873015873016
692,9.977694571716711e-05,1.0,1.186431646347046,0.915873015873016
693,7.776679558446631e-05,1.0,1.190244436264038,0.915873015873016
694,0.0004910699208267033,1.0,1.1904219388961792,0.915873015873016
695,2.480792682035826e-05,1.0,1.1902185678482056,0.915873015873016
696,0.0021467090118676424,1.0,1.1820672750473022,0.906998556998557
697,0.00019132914894726127,1.0,1.2018710374832153,0.9015040515040516
698,0.00012761392281390727,1.0,1.2170809507369995,0.9015040515040516
699,0.0009741240064613521,1.0,1.2222175598144531,0.9015040515040516
700,0.0003517829463817179,1.0,1.2242799997329712,0.9015040515040516
701,6.906436465214938e-05,1.0,1.2284117937088013,0.9015040515040516
702,0.00031192018650472164,1.0,1.237092137336731,0.9015040515040516
703,0.000983331585302949,1.0,1.2422906160354614,0.9015040515040516
704,0.011805410496890545,1.0,1.2379320859909058,0.9174860853432282
705,0.0025130189023911953,1.0,1.3125420808792114,0.9178571428571428
706,0.07247995585203171,0.9897959183673469,1.2006242275238037,0.906998556998557
707,0.0019401416648179293,1.0,1.212312936782837,0.9015040515040516
708,0.0002311852149432525,1.0,1.246993064880371,0.8917534846106275
709,0.003791708964854479,1.0,1.2333530187606812,0.8917534846106275
710,0.009350980632007122,0.9935064935064936,1.2427617311477661,0.915873015873016
711,0.010020971298217773,0.9880952380952381,1.1877315044403076,0.915873015873016
712,8.906458970159292e-05,1.0,1.14077627658844,0.906998556998557
713,0.0003788587055169046,1.0,1.1531444787979126,0.906998556998557
714,0.003846353618428111,1.0,1.147165060043335,0.915873015873016
715,0.005079296883195639,1.0,1.168185830116272,0.9082199546485261
716,0.0003179713967256248,1.0,1.1745067834854126,0.915873015873016
717,0.0008876999490894377,1.0,1.1825376749038696,0.915873015873016
718,0.0008511706837452948,1.0,1.1832786798477173,0.915873015873016
719,3.349897815496661e-05,1.0,1.1886831521987915,0.906998556998557
720,0.000657665659673512,1.0,1.2029081583023071,0.906998556998557
721,0.0002599326253402978,1.0,1.2173196077346802,0.915873015873016
722,0.0008691199473105371,1.0,1.2246315479278564,0.915873015873016
723,4.643014835892245e-05,1.0,1.2293529510498047,0.915873015873016
724,0.00017308758106082678,1.0,1.2329498529434204,0.915873015873016
725,5.52815108676441e-05,1.0,1.2360363006591797,0.915873015873016
726,1.745538247632794e-05,1.0,1.237845540046692,0.915873015873016
727,0.0014030548045411706,1.0,1.2456817626953125,0.915873015873016
728,0.00010702131839934736,1.0,1.2640466690063477,0.915873015873016
729,0.00022885609359946102,1.0,1.2772749662399292,0.897247990105133
730,0.00012603274080902338,1.0,1.2866853475570679,0.897247990105133
731,7.487485709134489e-05,1.0,1.2928202152252197,0.897247990105133
732,0.0020166500471532345,1.0,1.328290343284607,0.897247990105133
733,0.00010140467929886654,1.0,1.36735999584198,0.897247990105133
734,0.0001962388341780752,1.0,1.3861587047576904,0.897247990105133
735,5.789014539914206e-05,1.0,1.3959778547286987,0.897247990105133
736,0.00021718829520978034,1.0,1.4040576219558716,0.897247990105133
737,0.00016658418462611735,1.0,1.4133299589157104,0.906998556998557
738,3.2133022614289075e-05,1.0,1.4197397232055664,0.906998556998557
739,8.351996075361967e-05,1.0,1.4246551990509033,0.906998556998557
740,5.9545604017330334e-05,1.0,1.4282207489013672,0.906998556998557
741,1.658202199905645e-05,1.0,1.4304648637771606,0.906998556998557
742,0.00017724449571687728,1.0,1.4320766925811768,0.906998556998557
743,3.1246985599864274e-05,1.0,1.4337869882583618,0.906998556998557
744,0.01518569327890873,0.994047619047619,1.3042374849319458,0.9174860853432282
745,0.025557279586791992,0.9841269841269842,1.2711740732192993,0.925139146567718
746,6.130656402092427e-05,1.0,1.5586755275726318,0.907452071737786
747,0.016737859696149826,0.9952380952380953,1.4002450704574585,0.907452071737786
748,0.0029222883749753237,1.0,1.3212426900863647,0.9263605442176871
749,0.00020542368292808533,1.0,1.373924970626831,0.9226190476190476
750,0.029375851154327393,0.9857142857142858,1.283457636833191,0.9196755625327054
751,0.0036833169870078564,1.0,1.520986557006836,0.8929748822605966
752,0.05656912922859192,0.9952380952380953,1.3136184215545654,0.888265306122449
753,0.0005277575110085309,1.0,1.0745292901992798,0.9060915275200989
754,0.0004295051621738821,1.0,1.015093207359314,0.916295609152752
755,0.0005787267000414431,1.0,1.006441354751587,0.916295609152752
756,9.417196997674182e-05,1.0,1.0104042291641235,0.916295609152752
757,0.0010744165629148483,1.0,1.0259549617767334,0.916295609152752
758,0.007198589388281107,0.9935064935064936,1.273202896118164,0.9178571428571429
759,0.04239450767636299,0.9557823129251701,0.9598530530929565,0.9108011036582465
760,0.001570533961057663,1.0,1.0742074251174927,0.906286570572285
761,0.029379578307271004,0.994047619047619,0.9727993607521057,0.9025759954331384
762,0.00062136712949723,1.0,0.9716455340385437,0.9169449598021028
763,0.0003713809419423342,1.0,1.0373437404632568,0.9169449598021028
764,0.0005581556470133364,1.0,1.0900671482086182,0.9169449598021028
765,0.020770682021975517,0.9935064935064936,1.0822393894195557,0.9251700680272109
766,0.0097084054723382,0.9910714285714286,1.0540497303009033,0.9251700680272109
767,0.0001074856918421574,1.0,0.9985151290893555,0.916295609152752
768,0.000742680742405355,1.0,1.048883318901062,0.9108011036582465
769,0.0016355738043785095,1.0,1.075635313987732,0.9108011036582465
770,0.0017967235762625933,1.0,1.0811454057693481,0.916295609152752
771,0.0008843838586471975,1.0,1.1448251008987427,0.9251700680272109
772,0.00031435309210792184,1.0,1.1798303127288818,0.9251700680272109
773,7.277452095877379e-05,1.0,1.2049602270126343,0.9251700680272109
774,4.965938933310099e-05,1.0,1.2247062921524048,0.9251700680272109
775,0.0032488186843693256,1.0,1.2535055875778198,0.916295609152752
776,7.829149399185553e-05,1.0,1.2993743419647217,0.916295609152752
777,7.021058536338387e-06,1.0,1.3314083814620972,0.9108011036582465
778,0.001587628503330052,1.0,1.3029088973999023,0.916295609152752
779,0.0005585103644989431,1.0,1.2609750032424927,0.916295609152752
780,0.0003226058906875551,1.0,1.2780636548995972,0.9251700680272109
781,8.523755968781188e-05,1.0,1.2938117980957031,0.9251700680272109
782,1.820733814383857e-05,1.0,1.3046733140945435,0.9251700680272109
783,9.153338760370389e-05,1.0,1.315349817276001,0.9251700680272109
784,3.114901119261049e-05,1.0,1.3249022960662842,0.9251700680272109
785,0.0001090555961127393,1.0,1.3340685367584229,0.9251700680272109
786,0.00035114469937980175,1.0,1.3459491729736328,0.9251700680272109
787,8.185386832337826e-05,1.0,1.365606427192688,0.9251700680272109
788,0.0019149977015331388,1.0,1.3854787349700928,0.9251700680272109
789,0.000892906857188791,1.0,1.4145853519439697,0.9251700680272109
790,1.0177938747801818e-05,1.0,1.4409153461456299,0.9169449598021028
791,6.124807259766385e-05,1.0,1.4628204107284546,0.9114504543075971
792,1.3472087630361784e-05,1.0,1.475601315498352,0.9114504543075971
793,1.3641614714288153e-05,1.0,1.4832220077514648,0.9114504543075971
794,2.3044314730213955e-05,1.0,1.490466833114624,0.9114504543075971
795,0.00010549441503826529,1.0,1.4854458570480347,0.9114504543075971
796,2.4519822545698844e-05,1.0,1.485071063041687,0.9114504543075971
797,1.4798116353631485e-05,1.0,1.486075758934021,0.9114504543075971
798,4.604511195793748e-05,1.0,1.4810491800308228,0.9114504543075971
799,7.268320587172639e-06,1.0,1.4800786972045898,0.9114504543075971
800,3.666530756163411e-05,1.0,1.4829591512680054,0.9114504543075971
801,2.7363621484255418e-05,1.0,1.4847123622894287,0.9114504543075971
802,3.128050138911931e-06,1.0,1.4846465587615967,0.9114504543075971
803,3.997410203737672e-06,1.0,1.4853743314743042,0.9169449598021028
804,0.0003141655761282891,1.0,1.5167455673217773,0.9169449598021028
805,0.00015748139412607998,1.0,1.5328724384307861,0.9169449598021028
806,0.0015668916748836637,1.0,1.5261963605880737,0.9251700680272109
807,1.2296099157538265e-05,1.0,1.5316274166107178,0.9251700680272109
808,2.401856181677431e-05,1.0,1.5365065336227417,0.9251700680272109
809,8.442809303232934e-06,1.0,1.5399731397628784,0.9251700680272109
810,4.3147629185114056e-05,1.0,1.5462234020233154,0.9251700680272109
811,1.2799057003576308e-05,1.0,1.5502809286117554,0.9251700680272109
812,0.00017324638611171395,1.0,1.555225133895874,0.9251700680272109
813,0.0006849638884887099,1.0,1.5410569906234741,0.9169449598021028
814,9.983492645915248e-07,1.0,1.545940637588501,0.9169449598021028
815,0.0007310019573196769,1.0,1.524930715560913,0.9169449598021028
816,4.496325345826335e-05,1.0,1.537049412727356,0.9251700680272109
817,3.4854394925787346e-06,1.0,1.5480766296386719,0.9251700680272109
818,0.12881040573120117,0.9880952380952381,1.1372840404510498,0.9025759954331384
819,0.07156501710414886,0.9928571428571429,0.8697772026062012,0.9025759954331384
820,0.007325824815779924,1.0,0.723148763179779,0.9251700680272109
821,0.004202775191515684,1.0,0.766200602054596,0.9166666666666666
822,0.006231999956071377,1.0,0.8105056881904602,0.9166666666666666
823,0.005859487224370241,1.0,0.8485435843467712,0.9251700680272109
824,0.0017986331367865205,1.0,0.8966367840766907,0.9251700680272109
825,0.0007855564472265542,1.0,0.9495924115180969,0.916295609152752
826,0.00044481665827333927,1.0,0.98652184009552,0.916295609152752
827,0.00022977964545134455,1.0,1.0148048400878906,0.916295609152752
828,0.000829302123747766,1.0,1.0459450483322144,0.916295609152752
829,4.7080375225050375e-05,1.0,1.0810139179229736,0.916295609152752
830,0.00010430044494569302,1.0,1.1047896146774292,0.916295609152752
831,9.925826452672482e-05,1.0,1.140496015548706,0.916295609152752
832,0.0006736683426424861,1.0,1.199255347251892,0.916295609152752
833,9.402143768966198e-05,1.0,1.2528575658798218,0.916295609152752
834,7.352206012001261e-05,1.0,1.2839490175247192,0.916295609152752
835,4.22968078055419e-05,1.0,1.3020641803741455,0.916295609152752
836,0.024372771382331848,0.9928571428571429,1.1898616552352905,0.916295609152752
837,0.00472326809540391,1.0,1.0765113830566406,0.9115337043908472
838,0.005116505082696676,1.0,1.0920644998550415,0.9060391988963418
839,0.0006218581693246961,1.0,1.2031069993972778,0.9025759954331384
840,0.02944714017212391,0.9952380952380953,1.1284133195877075,0.9108011036582465
841,0.0393928699195385,0.9880952380952381,1.1476236581802368,0.9166666666666666
842,0.0007520975777879357,1.0,1.162665605545044,0.9166666666666666
843,0.0008736200397834182,1.0,1.1790845394134521,0.9251700680272109
844,0.002543303882703185,1.0,1.2120065689086914,0.9251700680272109
845,0.0004338896251283586,1.0,1.2688392400741577,0.9251700680272109
846,0.00030774486367590725,1.0,1.3041154146194458,0.9251700680272109
847,0.008538639172911644,0.9935064935064936,1.2089484930038452,0.9251700680272109
848,0.005865153856575489,1.0,1.1229795217514038,0.9251700680272109
849,0.0015353246126323938,1.0,1.1170247793197632,0.916295609152752
850,0.032862551510334015,0.9928571428571429,1.1314318180084229,0.916295609152752
851,0.0026228136848658323,1.0,1.1199100017547607,0.9166666666666666
852,0.0027356953360140324,1.0,1.1145437955856323,0.9166666666666666
853,0.009830712340772152,0.9935064935064936,1.2139414548873901,0.9166666666666666
854,0.0015458358684554696,1.0,1.2730315923690796,0.9166666666666666
855,0.009913139045238495,0.9910714285714286,1.302194356918335,0.9166666666666666
856,4.814164276467636e-05,1.0,1.2979766130447388,0.916295609152752
857,0.0005668373196385801,1.0,1.3497153520584106,0.9025759954331384
858,0.004333823453634977,1.0,1.2754472494125366,0.9025759954331384
859,0.006061219144612551,1.0,1.2410601377487183,0.9108011036582465
860,0.0007059308118186891,1.0,1.3943793773651123,0.9025759954331384
861,0.00036534611717797816,1.0,1.4932241439819336,0.9025759954331384
862,0.0008322655339725316,1.0,1.5613014698028564,0.8890228818800247
863,0.0014036933425813913,1.0,1.5961949825286865,0.8937324580181725
864,0.022253377363085747,0.9952380952380953,1.5081853866577148,0.9166666666666666
865,0.00017629710782784969,1.0,1.467772126197815,0.9178571428571428
866,0.030429964885115623,0.9897959183673469,1.3775498867034912,0.9226190476190476
867,0.006753175053745508,1.0,1.3531427383422852,0.9166666666666666
868,0.002799401758238673,1.0,1.3922691345214844,0.9080705009276439
869,0.000759292917791754,1.0,1.433947205543518,0.9080705009276439
870,0.02102877013385296,0.9935064935064936,1.4852943420410156,0.9007884972170687
871,0.02354389615356922,0.9880952380952381,1.3776187896728516,0.9169449598021028
872,0.02832186594605446,0.9850340136054422,1.2093888521194458,0.8917534846106275
873,0.007570341695100069,1.0,1.15910804271698,0.8960927960927961
874,0.0779135674238205,0.9835164835164836,1.3151061534881592,0.9085884353741497
875,0.03821190074086189,0.9689625850340136,1.2996662855148315,0.9255102040816326
876,0.0029289876110851765,1.0,1.6183511018753052,0.9163265306122449
877,0.03009016439318657,0.9880952380952381,1.7557098865509033,0.9026069168926311
878,0.0007269204361364245,1.0,1.828722596168518,0.9026069168926311
879,0.03241448849439621,0.9945054945054945,1.4392942190170288,0.9163265306122449
880,0.0015008144546300173,1.0,1.2865601778030396,0.9251700680272109
881,0.0007451361743733287,1.0,1.2371257543563843,0.9251700680272109
882,0.00014204131730366498,1.0,1.2255746126174927,0.9251700680272109
883,0.0005030861939303577,1.0,1.2270995378494263,0.9251700680272109
884,0.0006691013113595545,1.0,1.2405933141708374,0.9251700680272109
885,0.002924299333244562,1.0,1.256886601448059,0.9251700680272109
886,0.0002708745887503028,1.0,1.2741968631744385,0.9251700680272109
887,0.0002753201115410775,1.0,1.2903410196304321,0.9251700680272109
888,0.0003442124871071428,1.0,1.3078337907791138,0.9251700680272109
889,9.101343312067911e-05,1.0,1.3307946920394897,0.9251700680272109
890,0.003950709942728281,1.0,1.3569425344467163,0.9251700680272109
891,0.0003644516982603818,1.0,1.3905317783355713,0.9251700680272109
892,0.00026536689256317914,1.0,1.4157817363739014,0.9251700680272109
893,0.00022292164794635028,1.0,1.4381110668182373,0.9251700680272109
894,8.160953439073637e-05,1.0,1.4578500986099243,0.9251700680272109
895,0.0001792242837836966,1.0,1.4791193008422852,0.9251700680272109
896,0.0005626546917483211,1.0,1.5088952779769897,0.9251700680272109
897,7.477875624317676e-05,1.0,1.5286942720413208,0.9251700680272109
898,0.00025626292335800827,1.0,1.5434728860855103,0.9251700680272109
899,0.00016322836745530367,1.0,1.5581406354904175,0.9251700680272109
900,0.0005448751035146415,1.0,1.5776859521865845,0.9251700680272109
901,9.992554987547919e-05,1.0,1.5952733755111694,0.9251700680272109
902,6.379020487656817e-05,1.0,1.610681176185608,0.9251700680272109
903,0.0001581853866809979,1.0,1.651741623878479,0.9251700680272109
904,0.00116756244096905,1.0,1.6755759716033936,0.9251700680272109
905,5.588547537627164e-06,1.0,1.6811248064041138,0.9251700680272109
906,2.4168142772396095e-05,1.0,1.6890898942947388,0.9162956091527521
907,0.00011549676855793223,1.0,1.6973544359207153,0.9162956091527521
908,6.337284139590338e-05,1.0,1.706605315208435,0.9162956091527521
909,4.126205021748319e-05,1.0,1.7152471542358398,0.9162956091527521
910,2.5683273634058423e-05,1.0,1.721157193183899,0.9162956091527521
911,4.210069528198801e-05,1.0,1.7345846891403198,0.9162956091527521
912,1.3763436072622426e-05,1.0,1.7427341938018799,0.9251700680272109
913,4.5181095629232004e-05,1.0,1.7487351894378662,0.9251700680272109
914,0.0008136864053085446,1.0,1.7927751541137695,0.9251700680272109
915,1.6694302757969126e-05,1.0,1.824962854385376,0.9251700680272109
916,0.0001149496019934304,1.0,1.8506066799163818,0.9251700680272109
917,2.335177896384266e-06,1.0,1.8643001317977905,0.9251700680272109
918,9.228989256371278e-06,1.0,1.871565580368042,0.9251700680272109
919,6.52117669233121e-05,1.0,1.876961588859558,0.9251700680272109
920,0.00013905142259318382,1.0,1.885080099105835,0.9251700680272109
921,2.3643518943572417e-05,1.0,1.891198992729187,0.9251700680272109
922,7.4951103670173325e-06,1.0,1.895116925239563,0.9251700680272109
923,1.0598257176752668e-05,1.0,1.897894263267517,0.9251700680272109
924,0.0014259414747357368,1.0,1.8736531734466553,0.9251700680272109
925,1.2329534911259543e-05,1.0,1.8599478006362915,0.9251700680272109
926,7.243946583912475e-06,1.0,1.857487678527832,0.9162956091527521
927,1.7668128293735208e-06,1.0,1.8579076528549194,0.9162956091527521
928,1.4815310578342178e-06,1.0,1.8584562540054321,0.9162956091527521
929,4.773380624101264e-06,1.0,1.8592798709869385,0.9162956091527521
930,3.1770123314345255e-06,1.0,1.860411286354065,0.9162956091527521
931,5.208519269217504e-06,1.0,1.861621618270874,0.9162956091527521
932,4.722231096820906e-06,1.0,1.863464593887329,0.9162956091527521
933,4.138776057516225e-05,1.0,1.8688429594039917,0.9162956091527521
934,0.0009281677193939686,1.0,1.868040680885315,0.9251700680272109
935,2.1143079720786773e-05,1.0,1.8756812810897827,0.9251700680272109
936,2.698412208701484e-05,1.0,1.882920265197754,0.9251700680272109
937,7.709141755185556e-06,1.0,1.8880928754806519,0.9251700680272109
938,6.038742867531255e-06,1.0,1.8912265300750732,0.9251700680272109
939,1.0410342838440556e-05,1.0,1.8935068845748901,0.9251700680272109
940,2.8174939870950766e-05,1.0,1.8958104848861694,0.9251700680272109
941,0.026163088157773018,0.9935064935064936,2.202122211456299,0.9009920634920635
942,0.05070851370692253,0.979591836734694,1.7834032773971558,0.9251700680272109
943,0.00021969371300656348,1.0,1.8291056156158447,0.9019575662432805
944,0.015377195551991463,0.9935064935064936,1.6058177947998047,0.9108011036582466
945,0.00587505754083395,1.0,1.5714832544326782,0.9108011036582466
946,0.022410476580262184,0.9935064935064936,1.5930513143539429,0.9162956091527521
947,0.0323021225631237,0.9897959183673469,1.5372028350830078,0.907452071737786
948,0.0015709152212366462,1.0,1.5406862497329712,0.9163265306122449
949,0.02084517665207386,0.9935064935064936,1.4500714540481567,0.9251700680272109
950,0.013093626126646996,0.9761904761904762,1.4235166311264038,0.9251700680272109
951,0.0003397277614567429,1.0,1.4047917127609253,0.9251700680272109
952,0.001419229549355805,1.0,1.4063899517059326,0.9251700680272109
953,0.0013699968112632632,1.0,1.4177333116531372,0.9251700680272109
954,5.87958529649768e-05,1.0,1.437031626701355,0.9251700680272109
955,0.00031216442584991455,1.0,1.449491262435913,0.9251700680272109
956,0.00021332110918592662,1.0,1.462569236755371,0.9251700680272109
957,0.00045884426799602807,1.0,1.476912260055542,0.9251700680272109
958,0.00032804373768158257,1.0,1.4943134784698486,0.9251700680272109
959,0.0003523940686136484,1.0,1.5102978944778442,0.9251700680272109
960,9.050760854734108e-05,1.0,1.5213062763214111,0.9251700680272109
961,0.00020079709065612406,1.0,1.5296518802642822,0.9251700680272109
962,0.00012303913536015898,1.0,1.5396082401275635,0.9251700680272109
963,0.0032321109902113676,1.0,1.5538480281829834,0.9251700680272109
964,7.927245314931497e-05,1.0,1.5747791528701782,0.9251700680272109
965,5.4668187658535317e-05,1.0,1.588252067565918,0.9251700680272109
966,9.155870793620124e-05,1.0,1.5997850894927979,0.9251700680272109
967,0.00025235506473109126,1.0,1.6157742738723755,0.9251700680272109
968,5.5312204494839534e-05,1.0,1.6279842853546143,0.9251700680272109
969,0.0006582610658369958,1.0,1.621377944946289,0.9251700680272109
970,4.936153345624916e-05,1.0,1.6049654483795166,0.9251700680272109
971,0.00035683411988429725,1.0,1.6041826009750366,0.9251700680272109
972,2.8783764719264582e-05,1.0,1.611190676689148,0.9251700680272109
973,0.0019869348034262657,1.0,1.6186927556991577,0.9251700680272109
974,9.447794582229108e-06,1.0,1.633849859237671,0.9162956091527521
975,0.0007713868981227279,1.0,1.6475211381912231,0.9162956091527521
976,1.4990000636316836e-05,1.0,1.656981110572815,0.9162956091527521
977,1.928513029270107e-06,1.0,1.6637581586837769,0.9162956091527521
978,8.993846449811826e-07,1.0,1.6674200296401978,0.9251700680272109
979,9.866605523711769e-07,1.0,1.6694955825805664,0.9251700680272109
980,9.789403520699125e-06,1.0,1.6711570024490356,0.9251700680272109
981,6.658092752331868e-05,1.0,1.6742435693740845,0.9251700680272109
982,1.2235685971972998e-05,1.0,1.678540587425232,0.9251700680272109
983,1.0705995009629987e-05,1.0,1.6816927194595337,0.9251700680272109
984,1.7738406313583255e-05,1.0,1.685321569442749,0.9251700680272109
985,0.000426710321335122,1.0,1.7081016302108765,0.9162956091527521
986,2.110416789946612e-05,1.0,1.7265751361846924,0.9162956091527521
987,3.37003220920451e-05,1.0,1.7469158172607422,0.9162956091527521
988,1.9189808426745003e-06,1.0,1.767691731452942,0.9162956091527521
989,1.3793852531307493e-06,1.0,1.7790820598602295,0.9162956091527521
990,1.2939439329784364e-05,1.0,1.792540431022644,0.9162956091527521
991,6.67776703267009e-06,1.0,1.8059319257736206,0.9162956091527521
992,7.72849398344988e-06,1.0,1.8149513006210327,0.9162956091527521
993,6.0465350543381646e-05,1.0,1.8413307666778564,0.9162956091527521
994,0.001626567100174725,1.0,1.8643344640731812,0.9251700680272109
995,0.00031422756728716195,1.0,1.9007269144058228,0.9251700680272109
996,0.0016225380823016167,1.0,1.922230839729309,0.9251700680272109
997,0.00035558437230065465,1.0,1.945607304573059,0.9251700680272109
998,8.32328282740491e-07,1.0,1.9677971601486206,0.9162956091527521
999,7.738005479041021e-06,1.0,1.9839093685150146,0.9162956091527521
