,loss,recall,val_loss,val_recall
0,0.5568743944168091,0.699535583464155,0.6789568662643433,0.3125
1,0.4042956829071045,0.7862708719851577,0.66950923204422,0.3125
2,0.3328082859516144,0.8229231086373944,0.6257466673851013,0.7893939393939393
3,0.233389750123024,0.888682745825603,0.6653783917427063,0.6442842871414299
4,0.19642500579357147,0.9248299319727892,0.54693204164505,0.8212018140589569
5,0.14221546053886414,0.9523809523809524,1.1174534559249878,0.1875
6,0.08045759052038193,0.9761904761904762,0.3563053607940674,0.9053571428571429
7,0.060586363077163696,0.980952380952381,0.3941427767276764,0.858336901194044
8,0.056033749133348465,0.9761904761904762,1.2735365629196167,0.7230507587650444
9,0.08794893324375153,1.0,1.1251345872879028,0.8205389848246991
10,0.10058710724115372,0.9207482993197279,4.230053901672363,0.3125
11,0.05620286241173744,0.9863636363636364,3.9695260524749756,0.3125
12,0.06996990740299225,0.9761904761904762,3.581256628036499,0.3125
13,0.13875646889209747,0.9272959183673469,0.3064505457878113,0.8969387755102041
14,0.11791165173053741,0.9460884353741497,0.6044775247573853,0.8525926454497883
15,0.10586332529783249,0.9438775510204083,1.956356406211853,0.38690476190476186
16,0.053270358592271805,1.0,1.1938269138336182,0.5427001569858713
17,0.03911861032247543,0.9642857142857143,0.42210349440574646,0.8541666666666666
18,0.03280387073755264,0.9928571428571429,0.33958157896995544,0.8952380952380953
19,0.011704393662512302,1.0,0.39045029878616333,0.8827965685108542
20,0.009779342450201511,1.0,0.3468642830848694,0.8901618223046794
21,0.006320311222225428,1.0,0.32830336689949036,0.8859410430839002
22,0.004696961957961321,1.0,0.3370869755744934,0.9054112554112554
23,0.003821076126769185,1.0,0.3532032370567322,0.8964285714285714
24,0.003277179319411516,1.0,0.36879903078079224,0.8964285714285714
25,0.002819853601977229,1.0,0.37964361906051636,0.8952380952380953
26,0.0024943307507783175,1.0,0.3874766230583191,0.8952380952380953
27,0.0022546586114913225,1.0,0.39421048760414124,0.8952380952380953
28,0.0020564149599522352,1.0,0.4006703197956085,0.8952380952380953
29,0.0018913735402747989,1.0,0.4066711366176605,0.8952380952380953
30,0.0017517517553642392,1.0,0.41193732619285583,0.8952380952380953
31,0.001630261423997581,1.0,0.4166082739830017,0.8952380952380953
32,0.001523915445432067,1.0,0.42156845331192017,0.8952380952380953
33,0.0014304788783192635,1.0,0.4266371428966522,0.8952380952380953
34,0.0013478236505761743,1.0,0.4319794774055481,0.8952380952380953
35,0.0012741353129968047,1.0,0.43718695640563965,0.8952380952380953
36,0.001208050292916596,1.0,0.442281574010849,0.9095238095238095
37,0.0011485220165923238,1.0,0.4472426772117615,0.9095238095238095
38,0.001094549079425633,1.0,0.4520895481109619,0.9095238095238095
39,0.0010454157600179315,1.0,0.45670032501220703,0.9095238095238095
40,0.0010003785137087107,1.0,0.4611041843891144,0.9095238095238095
41,0.0009589481051079929,1.0,0.465258926153183,0.9095238095238095
42,0.0009206629474647343,1.0,0.4691770076751709,0.9095238095238095
43,0.0008851506863720715,1.0,0.4728359580039978,0.9095238095238095
44,0.0008521295385435224,1.0,0.47635865211486816,0.9095238095238095
45,0.0008212774409912527,1.0,0.47960948944091797,0.9095238095238095
46,0.0007923830999061465,1.0,0.4825499951839447,0.9095238095238095
47,0.0007652611238881946,1.0,0.4852199852466583,0.9095238095238095
48,0.0007397386361844838,1.0,0.48766353726387024,0.9095238095238095
49,0.0007157012005336583,1.0,0.4900342524051666,0.9095238095238095
50,0.0006930055096745491,1.0,0.4923812747001648,0.9095238095238095
51,0.0006715370691381395,1.0,0.49468693137168884,0.9095238095238095
52,0.0006512058316729963,1.0,0.4968753457069397,0.9095238095238095
53,0.0006318811210803688,1.0,0.4989977180957794,0.9095238095238095
54,0.0006135291769169271,1.0,0.5010460019111633,0.9095238095238095
55,0.000596078869421035,1.0,0.5030517578125,0.9095238095238095
56,0.0005794473690912127,1.0,0.5049700140953064,0.9095238095238095
57,0.000563576293643564,1.0,0.5067852735519409,0.9095238095238095
58,0.0005484168068505824,1.0,0.5085656046867371,0.9095238095238095
59,0.00053392443805933,1.0,0.5102468729019165,0.9095238095238095
60,0.0005200408049859107,1.0,0.5118765830993652,0.9095238095238095
61,0.0005067604943178594,1.0,0.5134910345077515,0.9095238095238095
62,0.0004940135404467583,1.0,0.5150880217552185,0.9095238095238095
63,0.0004817818116862327,1.0,0.516633927822113,0.9095238095238095
64,0.00047003882355056703,1.0,0.5181814432144165,0.9095238095238095
65,0.0004587569856084883,1.0,0.5197350978851318,0.9095238095238095
66,0.0004479129274841398,1.0,0.5212494134902954,0.9095238095238095
67,0.00043747483869083226,1.0,0.5227473378181458,0.9095238095238095
68,0.00042744260281324387,1.0,0.5241230130195618,0.9095238095238095
69,0.000417755771195516,1.0,0.5254741311073303,0.9095238095238095
70,0.00040842071757651865,1.0,0.5268951654434204,0.9095238095238095
71,0.00039941936847753823,1.0,0.528386652469635,0.9095238095238095
72,0.0003907314676325768,1.0,0.5298425555229187,0.9095238095238095
73,0.0003823539591394365,1.0,0.5312303900718689,0.9095238095238095
74,0.0003742612898349762,1.0,0.5325717329978943,0.9095238095238095
75,0.00036643006023950875,1.0,0.5339094996452332,0.9095238095238095
76,0.00035887950798496604,1.0,0.5352448225021362,0.9095238095238095
77,0.0003515744174364954,1.0,0.5365546345710754,0.9095238095238095
78,0.00034448830410838127,1.0,0.537871778011322,0.9095238095238095
79,0.00033763822284527123,1.0,0.5391745567321777,0.9095238095238095
80,0.0003310049360152334,1.0,0.5404029488563538,0.9095238095238095
81,0.0003245800908189267,1.0,0.5415592193603516,0.9095238095238095
82,0.0003183422959409654,1.0,0.542713463306427,0.9095238095238095
83,0.0003122926573269069,1.0,0.5438545346260071,0.9095238095238095
84,0.00030642375349998474,1.0,0.5449551343917847,0.9095238095238095
85,0.00030072598019614816,1.0,0.5460820198059082,0.9095238095238095
86,0.00029518984956666827,1.0,0.5472169518470764,0.9095238095238095
87,0.0002898227539844811,1.0,0.548311173915863,0.9095238095238095
88,0.00028460027533583343,1.0,0.5493595004081726,0.9095238095238095
89,0.00027952450909651816,1.0,0.5503917932510376,0.9095238095238095
90,0.000274585880106315,1.0,0.5514388680458069,0.9095238095238095
91,0.00026978758978657424,1.0,0.5525100231170654,0.9095238095238095
92,0.000265113718342036,1.0,0.5535730719566345,0.9095238095238095
93,0.0002605738409329206,1.0,0.554609477519989,0.9095238095238095
94,0.0002561583532951772,1.0,0.5556650757789612,0.9095238095238095
95,0.0002518385590519756,1.0,0.5567836165428162,0.9095238095238095
96,0.0002476485096849501,1.0,0.5579122304916382,0.9095238095238095
97,0.0002435573551338166,1.0,0.5590476393699646,0.9095238095238095
98,0.00023957570374477655,1.0,0.5601715445518494,0.9095238095238095
99,0.0002356812619837001,1.0,0.5612972378730774,0.9095238095238095
100,0.00023189315106719732,1.0,0.5624064803123474,0.9095238095238095
101,0.00022818481374997646,1.0,0.5634927153587341,0.9095238095238095
102,0.0002245828218292445,1.0,0.5645497441291809,0.9095238095238095
103,0.00022106801043264568,1.0,0.5655952095985413,0.9095238095238095
104,0.0002176212437916547,1.0,0.5666409134864807,0.9095238095238095
105,0.00021427447791211307,1.0,0.5677201151847839,0.9095238095238095
106,0.00021100215963087976,1.0,0.5688225626945496,0.9095238095238095
107,0.00020779254555236548,1.0,0.5698628425598145,0.9095238095238095
108,0.00020466487330850214,1.0,0.5709022879600525,0.9095238095238095
109,0.00020160202984698117,1.0,0.5719442963600159,0.9095238095238095
110,0.00019861687906086445,1.0,0.5729843974113464,0.9095238095238095
111,0.00019569335563573986,1.0,0.5740190744400024,0.9095238095238095
112,0.00019282412540633231,1.0,0.575031578540802,0.9095238095238095
113,0.00019002398767042905,1.0,0.5760259032249451,0.9095238095238095
114,0.00018727385031525046,1.0,0.5770679116249084,0.9095238095238095
115,0.0001845864753704518,1.0,0.578127920627594,0.9095238095238095
116,0.0001819586323108524,1.0,0.5792008638381958,0.9095238095238095
117,0.00017937227676156908,1.0,0.5802918076515198,0.9095238095238095
118,0.0001768390939105302,1.0,0.5814262628555298,0.9095238095238095
119,0.00017435911286156625,1.0,0.5826004147529602,0.9095238095238095
120,0.00017189932987093925,1.0,0.5838322043418884,0.8857142857142856
121,0.00016949592099990696,1.0,0.5851299166679382,0.8857142857142856
122,0.00016712334763724357,1.0,0.586487889289856,0.8857142857142856
123,0.00016474651056341827,1.0,0.5879844427108765,0.8857142857142856
124,0.0001624036958673969,1.0,0.5895155072212219,0.8857142857142856
125,0.00016006408259272575,1.0,0.5911707878112793,0.8857142857142856
126,0.00015767550212331116,1.0,0.5930196642875671,0.8857142857142856
127,0.00015529754455201328,1.0,0.5947216153144836,0.8857142857142856
128,0.00015304297266993672,1.0,0.5954185128211975,0.8857142857142856
129,0.00015101931057870388,1.0,0.5949267745018005,0.8857142857142856
130,0.0001491051953053102,1.0,0.5936193466186523,0.8857142857142856
131,0.00014722300693392754,1.0,0.5920981764793396,0.9095238095238095
132,0.00014536209346260875,1.0,0.5911348462104797,0.9095238095238095
133,0.00014356712927110493,1.0,0.5913748741149902,0.9095238095238095
134,0.00014179982827045023,1.0,0.5924715399742126,0.9095238095238095
135,0.00014007615391165018,1.0,0.5937625169754028,0.9095238095238095
136,0.00013836735161021352,1.0,0.5948833227157593,0.9095238095238095
137,0.00013669367763213813,1.0,0.5957775712013245,0.9095238095238095
138,0.00013504551316145808,1.0,0.5964559316635132,0.9095238095238095
139,0.0001334388362010941,1.0,0.5971013307571411,0.9095238095238095
140,0.0001318576978519559,1.0,0.5978086590766907,0.9095238095238095
141,0.00013030422269366682,1.0,0.5985581278800964,0.9095238095238095
142,0.00012878158304374665,1.0,0.5993467569351196,0.9095238095238095
143,0.00012727385910693556,1.0,0.6001471877098083,0.9095238095238095
144,0.0001258023112313822,1.0,0.600926399230957,0.9095238095238095
145,0.0001243573206011206,1.0,0.6016823649406433,0.9095238095238095
146,0.00012294002226553857,1.0,0.6024085283279419,0.9095238095238095
147,0.00012154293654020876,1.0,0.6031384468078613,0.9095238095238095
148,0.00012015859829261899,1.0,0.6038719415664673,0.9095238095238095
149,0.00011880724196089432,1.0,0.6046160459518433,0.9095238095238095
150,0.0001174824865302071,1.0,0.6053670644760132,0.9095238095238095
151,0.00011616730625974014,1.0,0.6061298251152039,0.9095238095238095
152,0.00011487871961435303,1.0,0.6068931818008423,0.9095238095238095
153,0.00011362632358213887,1.0,0.6076458692550659,0.9095238095238095
154,0.00011236751015530899,1.0,0.6083839535713196,0.9095238095238095
155,0.00011114596418337896,1.0,0.6091145277023315,0.9095238095238095
156,0.00010994355397997424,1.0,0.6098408102989197,0.9095238095238095
157,0.00010876136366277933,1.0,0.6105757355690002,0.9095238095238095
158,0.00010759300494100899,1.0,0.6113252639770508,0.9095238095238095
159,0.00010645123256836087,1.0,0.6120563745498657,0.9095238095238095
160,0.00010531691805226728,1.0,0.612747848033905,0.9095238095238095
161,0.00010419962200103328,1.0,0.6134154200553894,0.9095238095238095
162,0.00010310891957487911,1.0,0.614087700843811,0.9095238095238095
163,0.00010202886915067211,1.0,0.6147833466529846,0.9095238095238095
164,0.00010096689220517874,1.0,0.6154880523681641,0.9095238095238095
165,9.992087871069089e-05,1.0,0.6161655187606812,0.9095238095238095
166,9.888656495604664e-05,1.0,0.6168261170387268,0.9095238095238095
167,9.787245653569698e-05,1.0,0.6175093650817871,0.9095238095238095
168,9.687858255347237e-05,1.0,0.6181755661964417,0.9095238095238095
169,9.589002729626372e-05,1.0,0.6188069581985474,0.9095238095238095
170,9.491956006968394e-05,1.0,0.6194518804550171,0.9095238095238095
171,9.396929090144113e-05,1.0,0.6201038956642151,0.9095238095238095
172,9.30286041693762e-05,1.0,0.6207517385482788,0.9095238095238095
173,9.209644485963508e-05,1.0,0.6214178204536438,0.9095238095238095
174,9.118447633227333e-05,1.0,0.622085452079773,0.9095238095238095
175,9.028528438648209e-05,1.0,0.6227442026138306,0.9095238095238095
176,8.93967371666804e-05,1.0,0.6233871579170227,0.9095238095238095
177,8.852628525346518e-05,1.0,0.6240207552909851,0.9095238095238095
178,8.766328392084688e-05,1.0,0.6246160864830017,0.9095238095238095
179,8.681089821038768e-05,1.0,0.6252108216285706,0.9095238095238095
180,8.596491534262896e-05,1.0,0.6258236169815063,0.9095238095238095
181,8.513913053320721e-05,1.0,0.6264633536338806,0.9095238095238095
182,8.433357288595289e-05,1.0,0.6270964741706848,0.9095238095238095
183,8.35184400784783e-05,1.0,0.6277338266372681,0.9095238095238095
184,8.272990817204118e-05,1.0,0.6283590197563171,0.9095238095238095
185,8.194457041099668e-05,1.0,0.6289746165275574,0.9095238095238095
186,8.118370169540867e-05,1.0,0.6295952796936035,0.9095238095238095
187,8.041963883442804e-05,1.0,0.6302325129508972,0.9095238095238095
188,7.966515113366768e-05,1.0,0.6308809518814087,0.8857142857142856
189,7.893301517469808e-05,1.0,0.6315136551856995,0.8857142857142856
190,7.81955459387973e-05,1.0,0.632146418094635,0.8857142857142856
191,7.746872870484367e-05,1.0,0.6327796578407288,0.8857142857142856
192,7.67631790949963e-05,1.0,0.6333966255187988,0.8857142857142856
193,7.605231803609058e-05,1.0,0.6339905858039856,0.8857142857142856
194,7.536380871897563e-05,1.0,0.6346002221107483,0.8857142857142856
195,7.468167314073071e-05,1.0,0.6352066397666931,0.8857142857142856
196,7.400592585327104e-05,1.0,0.6358066201210022,0.8857142857142856
197,7.333869143621996e-05,1.0,0.6364263892173767,0.8857142857142856
198,7.268103217938915e-05,1.0,0.6370307803153992,0.8857142857142856
199,7.203508721431717e-05,1.0,0.6376032829284668,0.8857142857142856
200,7.138912769732997e-05,1.0,0.6381562352180481,0.8857142857142856
201,7.07548824721016e-05,1.0,0.6386972069740295,0.8857142857142856
202,7.012807327555493e-05,1.0,0.6392497420310974,0.8857142857142856
203,6.951085379114375e-05,1.0,0.6398182511329651,0.8857142857142856
204,6.889255746500567e-05,1.0,0.6403745412826538,0.8857142857142856
205,6.829448830103502e-05,1.0,0.6409420371055603,0.8857142857142856
206,6.770386244170368e-05,1.0,0.6415128707885742,0.8857142857142856
207,6.71153684379533e-05,1.0,0.6420839428901672,0.8857142857142856
208,6.654283788520843e-05,1.0,0.6426419615745544,0.8857142857142856
209,6.59724319120869e-05,1.0,0.6432172060012817,0.8857142857142856
210,6.540096364915371e-05,1.0,0.6437878012657166,0.8857142857142856
211,6.483907054644078e-05,1.0,0.6443348526954651,0.8857142857142856
212,6.428143387893215e-05,1.0,0.6448774933815002,0.8857142857142856
213,6.374188524205238e-05,1.0,0.6454353332519531,0.8857142857142856
214,6.320127431536093e-05,1.0,0.6459645628929138,0.8857142857142856
215,6.266811396926641e-05,1.0,0.6464975476264954,0.8857142857142856
216,6.213600863702595e-05,1.0,0.647048830986023,0.8857142857142856
217,6.162306090118363e-05,1.0,0.6475998163223267,0.8857142857142856
218,6.110585673013702e-05,1.0,0.6481585502624512,0.8857142857142856
219,6.0591853980440646e-05,1.0,0.6486959457397461,0.8857142857142856
220,6.009486605762504e-05,1.0,0.6492270827293396,0.8857142857142856
221,5.959681948297657e-05,1.0,0.6497395634651184,0.8857142857142856
222,5.91030293435324e-05,1.0,0.6502541899681091,0.8857142857142856
223,5.861029421794228e-05,1.0,0.6507593989372253,0.8857142857142856
224,5.8135661674896255e-05,1.0,0.6512750387191772,0.8857142857142856
225,5.766102549387142e-05,1.0,0.6518133878707886,0.8857142857142856
226,5.7197023124899715e-05,1.0,0.6523292660713196,0.8857142857142856
227,5.6729833886493e-05,1.0,0.6528424620628357,0.8857142857142856
228,5.626903293887153e-05,1.0,0.6533499360084534,0.8857142857142856
229,5.5822059948695824e-05,1.0,0.6538776159286499,0.8857142857142856
230,5.5365515436278656e-05,1.0,0.6544190645217896,0.8857142857142856
231,5.4914278734941036e-05,1.0,0.6549328565597534,0.8857142857142856
232,5.448646334116347e-05,1.0,0.655443012714386,0.8857142857142856
233,5.404907278716564e-05,1.0,0.6559614539146423,0.8857142857142856
234,5.362125375540927e-05,1.0,0.656476616859436,0.8857142857142856
235,5.3197691158857197e-05,1.0,0.6569691896438599,0.8857142857142856
236,5.277306627249345e-05,1.0,0.6574720740318298,0.8857142857142856
237,5.2359089750098065e-05,1.0,0.6579775214195251,0.8857142857142856
238,5.194509867578745e-05,1.0,0.6584601402282715,0.8857142857142856
239,5.154707469046116e-05,1.0,0.6589303612709045,0.8857142857142856
240,5.114160740049556e-05,1.0,0.6594274640083313,0.8857142857142856
241,5.0740396545734257e-05,1.0,0.6599224209785461,0.8857142857142856
242,5.034343121224083e-05,1.0,0.6603866219520569,0.8857142857142856
243,4.9961374315898865e-05,1.0,0.6608505249023438,0.8857142857142856
244,4.957399141858332e-05,1.0,0.6613329648971558,0.8857142857142856
245,4.918022750644013e-05,1.0,0.6617913842201233,0.8857142857142856
246,4.8805617552716285e-05,1.0,0.6622653007507324,0.8857142857142856
247,4.842675480176695e-05,1.0,0.6627647280693054,0.8857142857142856
248,4.806065044249408e-05,1.0,0.6632469296455383,0.8857142857142856
249,4.7695619286969304e-05,1.0,0.6637516617774963,0.8857142857142856
250,4.7336972784250975e-05,1.0,0.6642722487449646,0.8857142857142856
251,4.696235555456951e-05,1.0,0.6647719740867615,0.8857142857142856
252,4.660902777686715e-05,1.0,0.6652307510375977,0.8857142857142856
253,4.625676228897646e-05,1.0,0.665703296661377,0.8857142857142856
254,4.590663229464553e-05,1.0,0.6662177443504333,0.8857142857142856
255,4.5561817387351766e-05,1.0,0.6667031049728394,0.8857142857142856
256,4.521699884207919e-05,1.0,0.6671954989433289,0.8857142857142856
257,4.487218757276423e-05,1.0,0.6676875352859497,0.8857142857142856
258,4.453695146366954e-05,1.0,0.6681972146034241,0.8857142857142856
259,4.4198513933224604e-05,1.0,0.6687137484550476,0.8857142857142856
260,4.386540604173206e-05,1.0,0.6691964268684387,0.8857142857142856
261,4.353868280304596e-05,1.0,0.6696876883506775,0.8857142857142856
262,4.3216215999564156e-05,1.0,0.6701759696006775,0.8857142857142856
263,4.290119977667928e-05,1.0,0.670651376247406,0.8857142857142856
264,4.258085755282082e-05,1.0,0.6711186766624451,0.8857142857142856
265,4.2262643546564505e-05,1.0,0.6715746521949768,0.8857142857142856
266,4.1952946048695594e-05,1.0,0.67198646068573,0.8857142857142856
267,4.1637929825810716e-05,1.0,0.6723442673683167,0.8857142857142856
268,4.133780748816207e-05,1.0,0.6727064251899719,0.8857142857142856
269,4.103450191905722e-05,1.0,0.6730769276618958,0.8857142857142856
270,4.0736507799010724e-05,1.0,0.6734122633934021,0.8857142857142856
271,4.044383967993781e-05,1.0,0.6737056970596313,0.8857142857142856
272,4.014797377749346e-05,1.0,0.6739664077758789,0.8857142857142856
273,3.9863814890850335e-05,1.0,0.6742005944252014,0.8857142857142856
274,3.9581787859788164e-05,1.0,0.674436628818512,0.9095238095238095
275,3.929337253794074e-05,1.0,0.6746578216552734,0.9095238095238095
276,3.901453601429239e-05,1.0,0.6748774647712708,0.9095238095238095
277,3.873888999805786e-05,1.0,0.6750882863998413,0.9095238095238095
278,3.845792525680736e-05,1.0,0.6752387285232544,0.9095238095238095
279,3.8186542951734737e-05,1.0,0.6753434538841248,0.9095238095238095
280,3.7908768717898056e-05,1.0,0.6754022836685181,0.9095238095238095
281,3.7643767427653074e-05,1.0,0.6753786206245422,0.9095238095238095
282,3.737131555681117e-05,1.0,0.6751490831375122,0.9095238095238095
283,3.709673183038831e-05,1.0,0.6746963262557983,0.9095238095238095
284,3.682108945213258e-05,1.0,0.6739091873168945,0.9095238095238095
285,3.654438114608638e-05,1.0,0.6726446151733398,0.9095238095238095
286,3.6259156331652775e-05,1.0,0.6706683039665222,0.9095238095238095
287,3.596967871999368e-05,1.0,0.6681427955627441,0.9095238095238095
288,3.568658576114103e-05,1.0,0.6667909622192383,0.9095238095238095
289,3.543541970429942e-05,1.0,0.6708399653434753,0.9095238095238095
290,3.5209788620704785e-05,1.0,0.6814521551132202,0.9095238095238095
291,3.4969267289852723e-05,1.0,0.689606785774231,0.8857142857142856
292,3.4730870538624004e-05,1.0,0.6912475228309631,0.8857142857142856
293,3.4491407859604806e-05,1.0,0.6896068453788757,0.8857142857142856
294,3.4266846341779456e-05,1.0,0.6884967088699341,0.8857142857142856
295,3.403590017114766e-05,1.0,0.6891544461250305,0.8857142857142856
296,3.380069392733276e-05,1.0,0.6908251047134399,0.8857142857142856
297,3.358145113452338e-05,1.0,0.6919845938682556,0.8857142857142856
298,3.335582368890755e-05,1.0,0.6922453045845032,0.8857142857142856
299,3.3133394026663154e-05,1.0,0.6922317147254944,0.8857142857142856
300,3.291415123385377e-05,1.0,0.6925743222236633,0.8857142857142856
301,3.2699168514227495e-05,1.0,0.6933102011680603,0.8857142857142856
302,3.248311986681074e-05,1.0,0.6938514113426208,0.8857142857142856
303,3.226387707400136e-05,1.0,0.6941989064216614,0.8857142857142856
304,3.205953544238582e-05,1.0,0.6947451829910278,0.8857142857142856
305,3.185306559316814e-05,1.0,0.694969117641449,0.8857142857142856
306,3.164127338095568e-05,1.0,0.6954077482223511,0.8857142857142856
307,3.143693174934015e-05,1.0,0.6957679390907288,0.8857142857142856
308,3.123259011772461e-05,1.0,0.6960964202880859,0.8857142857142856
309,3.102824848610908e-05,1.0,0.6964295506477356,0.8857142857142856
310,3.082816328969784e-05,1.0,0.6968649625778198,0.8857142857142856
311,3.0627012165496126e-05,1.0,0.6974378824234009,0.8857142857142856
312,3.0429058824665844e-05,1.0,0.6978367567062378,0.8857142857142856
313,3.0238550607464276e-05,1.0,0.698243260383606,0.8857142857142856
314,3.0039529519854113e-05,1.0,0.6987034678459167,0.8857142857142856
315,2.9849021302652545e-05,1.0,0.6991443037986755,0.8857142857142856
316,2.9656386686838232e-05,1.0,0.6995582580566406,0.8857142857142856
317,2.9469070796039887e-05,1.0,0.6999408602714539,0.8857142857142856
318,2.9288145015016198e-05,1.0,0.7002687454223633,0.8857142857142856
319,2.9089122108416632e-05,1.0,0.7006012201309204,0.8857142857142856
320,2.8908192689414136e-05,1.0,0.7010551691055298,0.8857142857142856
321,2.8730455596814863e-05,1.0,0.7015143632888794,0.8857142857142856
322,2.854739796021022e-05,1.0,0.7018693685531616,0.8857142857142856
323,2.8366470360197127e-05,1.0,0.702294647693634,0.8857142857142856
324,2.8184475013404153e-05,1.0,0.702847957611084,0.8857142857142856
325,2.8016318537993357e-05,1.0,0.703279972076416,0.8857142857142856
326,2.7840709662996233e-05,1.0,0.7036185264587402,0.8857142857142856
327,2.7664036679198034e-05,1.0,0.7039939761161804,0.8857142857142856
328,2.7491620130604133e-05,1.0,0.7044066786766052,0.8857142857142856
329,2.7321335437591188e-05,1.0,0.7048071622848511,0.8857142857142856
330,2.7153177143190987e-05,1.0,0.7051398158073425,0.8857142857142856
331,2.698608659557067e-05,1.0,0.7055031657218933,0.8857142857142856
332,2.681686237337999e-05,1.0,0.7059110403060913,0.8857142857142856
333,2.6656154659576714e-05,1.0,0.7063971757888794,0.8857142857142856
334,2.6484802219783887e-05,1.0,0.7067948579788208,0.8857142857142856
335,2.632622272358276e-05,1.0,0.7071294188499451,0.8857142857142856
336,2.6165511371800676e-05,1.0,0.7074712514877319,0.8857142857142856
337,2.6010126020992175e-05,1.0,0.7078481912612915,0.8857142857142856
338,2.5850482415989973e-05,1.0,0.7082157731056213,0.8857142857142856
339,2.5682324121589772e-05,1.0,0.708473265171051,0.8857142857142856
340,2.5533323423587717e-05,1.0,0.708696186542511,0.8857142857142856
341,2.5382190870004706e-05,1.0,0.7091926336288452,0.8857142857142856
342,2.522893191780895e-05,1.0,0.7096272706985474,0.8857142857142856
343,2.507780482119415e-05,1.0,0.7100529670715332,0.8857142857142856
344,2.4919223506003618e-05,1.0,0.7105292081832886,0.8857142857142856
345,2.476383451721631e-05,1.0,0.7109651565551758,0.8857142857142856
346,2.4619090254418552e-05,1.0,0.7113891243934631,0.8857142857142856
347,2.4475410100421868e-05,1.0,0.711758553981781,0.8857142857142856
348,2.432214932923671e-05,1.0,0.7120540738105774,0.8857142857142856
349,2.417847099422943e-05,1.0,0.7124546766281128,0.8857142857142856
350,2.4035851311055012e-05,1.0,0.7129124999046326,0.8857142857142856
351,2.389642941125203e-05,1.0,0.7132914662361145,0.8857142857142856
352,2.3759135729051195e-05,1.0,0.7136071920394897,0.8857142857142856
353,2.3609069103258662e-05,1.0,0.7140442728996277,0.8857142857142856
354,2.3469645384466276e-05,1.0,0.714470386505127,0.8857142857142856
355,2.3333413992077112e-05,1.0,0.7147771716117859,0.8857142857142856
356,2.319718259968795e-05,1.0,0.7150817513465881,0.8857142857142856
357,2.3057758880895562e-05,1.0,0.715487539768219,0.8857142857142856
358,2.292259523528628e-05,1.0,0.715867817401886,0.8857142857142856
359,2.2789554350310937e-05,1.0,0.7162337303161621,0.8857142857142856
360,2.265438888571225e-05,1.0,0.7166212201118469,0.8857142857142856
361,2.2524543965118937e-05,1.0,0.7169592976570129,0.8857142857142856
362,2.2390440790331922e-05,1.0,0.7172706723213196,0.8857142857142856
363,2.2264852304942906e-05,1.0,0.7176682353019714,0.8857142857142856
364,2.2127558622742072e-05,1.0,0.7180310487747192,0.8857142857142856
365,2.200090602855198e-05,1.0,0.7184519171714783,0.8857142857142856
366,2.187531572417356e-05,1.0,0.7187660932540894,0.8857142857142856
367,2.1745470803580247e-05,1.0,0.7191861271858215,0.8857142857142856
368,2.1619884137180634e-05,1.0,0.7195832133293152,0.8857142857142856
369,2.1496423869393766e-05,1.0,0.7199307084083557,0.8857142857142856
370,2.1375091819209047e-05,1.0,0.7203040719032288,0.8857142857142856
371,2.123992635461036e-05,1.0,0.720676839351654,0.8857142857142856
372,2.112178844981827e-05,1.0,0.7210482358932495,0.8857142857142856
373,2.101003519783262e-05,1.0,0.721437931060791,0.8857142857142856
374,2.08844448934542e-05,1.0,0.721824049949646,0.8857142857142856
375,2.0768435206264257e-05,1.0,0.7221408486366272,0.8857142857142856
376,2.0646040866267867e-05,1.0,0.7225454449653625,0.8857142857142856
377,2.0530031179077923e-05,1.0,0.7229611277580261,0.8857142857142856
378,2.0416149709490128e-05,1.0,0.7233361005783081,0.8857142857142856
379,2.029694769589696e-05,1.0,0.7237472534179688,0.8857142857142856
380,2.0180936189717613e-05,1.0,0.7241348028182983,0.8857142857142856
381,2.0074507119716145e-05,1.0,0.7244831323623657,0.8857142857142856
382,1.9951045032939874e-05,1.0,0.7248131036758423,0.8857142857142856
383,1.984780828934163e-05,1.0,0.7251429557800293,0.8857142857142856
384,1.9730732674361207e-05,1.0,0.7255433201789856,0.8857142857142856
385,1.9623239495558664e-05,1.0,0.7259518504142761,0.8857142857142856
386,1.9510422134771943e-05,1.0,0.7263146042823792,0.8857142857142856
387,1.9403989426791668e-05,1.0,0.7266374826431274,0.8857142857142856
388,1.9297558537800796e-05,1.0,0.7269664406776428,0.8857142857142856
389,1.917729059641715e-05,1.0,0.727325975894928,0.8857142857142856
390,1.90783084690338e-05,1.0,0.7277273535728455,0.8857142857142856
391,1.8968685253639705e-05,1.0,0.728031575679779,0.8857142857142856
392,1.886651079985313e-05,1.0,0.7284228205680847,0.8857142857142856
393,1.8761144019663334e-05,1.0,0.7288364171981812,0.8857142857142856
394,1.8651518985279836e-05,1.0,0.7291622757911682,0.8857142857142856
395,1.8544020349509083e-05,1.0,0.72952800989151,0.8857142857142856
396,1.8448236005497165e-05,1.0,0.7299065589904785,0.8857142857142856
397,1.834818976931274e-05,1.0,0.7302014231681824,0.8857142857142856
398,1.8250271750730462e-05,1.0,0.730573832988739,0.8857142857142856
399,1.8147033188142814e-05,1.0,0.730911135673523,0.8857142857142856
400,1.8041666407953016e-05,1.0,0.731211245059967,0.8857142857142856
401,1.795013486116659e-05,1.0,0.7315918803215027,0.8857142857142856
402,1.784582855179906e-05,1.0,0.731961727142334,0.8857142857142856
403,1.775004420778714e-05,1.0,0.7323102355003357,0.8857142857142856
404,1.765106208040379e-05,1.0,0.732613742351532,0.8857142857142856
405,1.7553144061821513e-05,1.0,0.7329534292221069,0.8857142857142856
406,1.746054840623401e-05,1.0,0.7333363890647888,0.8857142857142856
407,1.736156627885066e-05,1.0,0.7336694002151489,0.8857142857142856
408,1.7271098840865307e-05,1.0,0.7339631915092468,0.8857142857142856
409,1.7182761439471506e-05,1.0,0.7343644499778748,0.8857142857142856
410,1.70901639648946e-05,1.0,0.7348049879074097,0.8857142857142856
411,1.6992247765301727e-05,1.0,0.7351647615432739,0.8857142857142856
412,1.6894331565708853e-05,1.0,0.7354912757873535,0.8857142857142856
413,1.680279638094362e-05,1.0,0.7359235882759094,0.8857142857142856
414,1.671446079853922e-05,1.0,0.7363168597221375,0.8857142857142856
415,1.6632508049951866e-05,1.0,0.7365976572036743,0.8857142857142856
416,1.6538846466573887e-05,1.0,0.7369089722633362,0.8857142857142856
417,1.644731491978746e-05,1.0,0.7372823357582092,0.8857142857142856
418,1.6354719264199957e-05,1.0,0.7375970482826233,0.8857142857142856
419,1.626957418920938e-05,1.0,0.7379379272460938,0.8857142857142856
420,1.6185493223019876e-05,1.0,0.7383331060409546,0.8857142857142856
421,1.6089703422039747e-05,1.0,0.7386501431465149,0.8857142857142856
422,1.6008814782253467e-05,1.0,0.738968014717102,0.8857142857142856
423,1.592579974385444e-05,1.0,0.7393169403076172,0.8857142857142856
424,1.5841716958675534e-05,1.0,0.7396835684776306,0.8857142857142856
425,1.5752313629491255e-05,1.0,0.7399304509162903,0.8857142857142856
426,1.5674617316108197e-05,1.0,0.7398951649665833,0.8857142857142856
427,1.559160227770917e-05,1.0,0.7401209473609924,0.8857142857142856
428,1.5517098290729336e-05,1.0,0.740812361240387,0.8857142857142856
429,1.542343852634076e-05,1.0,0.7415438890457153,0.8857142857142856
430,1.534787043055985e-05,1.0,0.742027759552002,0.8857142857142856
431,1.5265917681972496e-05,1.0,0.7422922849655151,0.8857142857142856
432,1.5185027223196812e-05,1.0,0.7426103949546814,0.8857142857142856
433,1.5102011275303084e-05,1.0,0.7430132031440735,0.8857142857142856
434,1.502218765381258e-05,1.0,0.7434253096580505,0.8857142857142856
435,1.4946620467526373e-05,1.0,0.7438367009162903,0.8857142857142856
436,1.486360179114854e-05,1.0,0.7441573739051819,0.8857142857142856
437,1.478697140555596e-05,1.0,0.7445055842399597,0.8857142857142856
438,1.4702889529871754e-05,1.0,0.7448273301124573,0.8857142857142856
439,1.462838554289192e-05,1.0,0.7451285123825073,0.8857142857142856
440,1.4554948393197265e-05,1.0,0.7454259991645813,0.8857142857142856
441,1.4479380297416355e-05,1.0,0.7457674741744995,0.8857142857142856
442,1.4405942238226999e-05,1.0,0.7460833191871643,0.8857142857142856
443,1.4334631487145089e-05,1.0,0.7464527487754822,0.8857142857142856
444,1.4251615539251361e-05,1.0,0.7467599511146545,0.8857142857142856
445,1.4179239769873675e-05,1.0,0.7471516728401184,0.8857142857142856
446,1.4108994037087541e-05,1.0,0.7474972009658813,0.8857142857142856
447,1.4036620086699259e-05,1.0,0.7478498220443726,0.8857142857142856
448,1.39589237733162e-05,1.0,0.7481865286827087,0.8857142857142856
449,1.3889743058825843e-05,1.0,0.7485108971595764,0.8857142857142856
450,1.3818433217238635e-05,1.0,0.7488579154014587,0.8857142857142856
451,1.3744995158049278e-05,1.0,0.7491510510444641,0.8857142857142856
452,1.3671555279870518e-05,1.0,0.7494522929191589,0.8857142857142856
453,1.3604502782982308e-05,1.0,0.749781608581543,0.8857142857142856
454,1.3528936506190803e-05,1.0,0.7501283288002014,0.8857142857142856
455,1.3456561646307819e-05,1.0,0.7504445314407349,0.8857142857142856
456,1.3392701475822832e-05,1.0,0.7507895231246948,0.8857142857142856
457,1.3323519851837773e-05,1.0,0.7511476278305054,0.8857142857142856
458,1.3256466445454862e-05,1.0,0.75152987241745,0.8857142857142856
459,1.3191543075663503e-05,1.0,0.7518841624259949,0.8857142857142856
460,1.3128747013979591e-05,1.0,0.7522077560424805,0.8857142857142856
461,1.3056373063591309e-05,1.0,0.7525138854980469,0.8857142857142856
462,1.2990383766009472e-05,1.0,0.7528042793273926,0.8857142857142856
463,1.2924395377922338e-05,1.0,0.7530916929244995,0.8857142857142856
464,1.285521466343198e-05,1.0,0.7534241676330566,0.8857142857142856
465,1.2789226275344845e-05,1.0,0.7537955045700073,0.8857142857142856
466,1.2725365195365157e-05,1.0,0.7541357278823853,0.8857142857142856
467,1.266150502488017e-05,1.0,0.7544772028923035,0.8857142857142856
468,1.259658074559411e-05,1.0,0.7548335194587708,0.8857142857142856
469,1.2532721484603826e-05,1.0,0.7551807761192322,0.8857142857142856
470,1.2472055459511466e-05,1.0,0.7555033564567566,0.8857142857142856
471,1.2413517652021255e-05,1.0,0.7558413743972778,0.8857142857142856
472,1.2348592463240493e-05,1.0,0.7562020421028137,0.8857142857142856
473,1.2282603165658657e-05,1.0,0.7565492987632751,0.8857142857142856
474,1.2218742085678969e-05,1.0,0.7568795084953308,0.8857142857142856
475,1.215807697008131e-05,1.0,0.7572096586227417,0.8857142857142856
476,1.2102731488994323e-05,1.0,0.7575122117996216,0.8857142857142856
477,1.2039936336805113e-05,1.0,0.7577639222145081,0.8857142857142856
478,1.1980334420513827e-05,1.0,0.7580702900886536,0.8857142857142856
479,1.1919665666937362e-05,1.0,0.7584285736083984,0.8857142857142856
480,1.1861127859447151e-05,1.0,0.7587345838546753,0.8857142857142856
481,1.1795140380854718e-05,1.0,0.7590824961662292,0.8857142857142856
482,1.1739793080778327e-05,1.0,0.759448230266571,0.8857142857142856
483,1.1679126146191265e-05,1.0,0.7597694993019104,0.8857142857142856
484,1.1623780665104277e-05,1.0,0.760160505771637,0.8857142857142856
485,1.1567371075216215e-05,1.0,0.7605144381523132,0.8857142857142856
486,1.150776915892493e-05,1.0,0.7608699202537537,0.8857142857142856
487,1.1451359569036867e-05,1.0,0.7611643075942993,0.8857142857142856
488,1.1392819942557253e-05,1.0,0.7613493800163269,0.8857142857142856
489,1.1338539479766041e-05,1.0,0.7614458799362183,0.8857142857142856
490,1.1286386325082276e-05,1.0,0.7619214653968811,0.8857142857142856
491,1.123104175348999e-05,1.0,0.7624903321266174,0.8857142857142856
492,1.1177825399499852e-05,1.0,0.7628494501113892,0.8857142857142856
493,1.1124609045509715e-05,1.0,0.763105571269989,0.8857142857142856
494,1.10660694190301e-05,1.0,0.7634020447731018,0.8857142857142856
495,1.1003273357346188e-05,1.0,0.7637773156166077,0.8857142857142856
496,1.0955378456856124e-05,1.0,0.7639278173446655,0.8857142857142856
497,1.0904290320468135e-05,1.0,0.7638292908668518,0.8857142857142856
498,1.0839366041182075e-05,1.0,0.764251708984375,0.8857142857142856
499,1.0792534339998383e-05,1.0,0.7648413777351379,0.8857142857142856
500,1.073825296771247e-05,1.0,0.7653383612632751,0.8857142857142856
501,1.0687165740819182e-05,1.0,0.765704333782196,0.8857142857142856
502,1.064033403963549e-05,1.0,0.7659888863563538,0.8857142857142856
503,1.0583923540252727e-05,1.0,0.7662870287895203,0.8857142857142856
504,1.052857896866044e-05,1.0,0.7665882110595703,0.8857142857142856
505,1.0479619959369302e-05,1.0,0.7668472528457642,0.8857142857142856
506,1.0428530913486611e-05,1.0,0.7671316266059875,0.8857142857142856
507,1.037957099470077e-05,1.0,0.7674630880355835,0.8857142857142856
508,1.0329547876608558e-05,1.0,0.7677634358406067,0.8857142857142856
509,1.0276330613123719e-05,1.0,0.7681424021720886,0.8857142857142856
510,1.0224177458439954e-05,1.0,0.7684845924377441,0.8857142857142856
511,1.0176283467444591e-05,1.0,0.7687812447547913,0.8857142857142856
512,1.01251944215619e-05,1.0,0.7691243290901184,0.8857142857142856
513,1.0079427738673985e-05,1.0,0.7694019675254822,0.8857142857142856
514,1.0028340511780698e-05,1.0,0.769739031791687,0.8857142857142856
515,9.981507901102304e-06,1.0,0.77008056640625,0.8857142857142856
516,9.93574212770909e-06,1.0,0.7703765630722046,0.8857142857142856
517,9.889976354315877e-06,1.0,0.7706831693649292,0.8857142857142856
518,9.834629054239485e-06,1.0,0.7709812521934509,0.8857142857142856
519,9.790992407943122e-06,1.0,0.7712907195091248,0.8857142857142856
520,9.743096597958356e-06,1.0,0.7715777158737183,0.8857142857142856
521,9.698394023871515e-06,1.0,0.77183997631073,0.8857142857142856
522,9.650500032876153e-06,1.0,0.7721859812736511,0.8857142857142856
523,9.608990694687236e-06,1.0,0.7725095748901367,0.8857142857142856
524,9.56109488470247e-06,1.0,0.772779107093811,0.8857142857142856
525,9.515328201814555e-06,1.0,0.7731084823608398,0.8857142857142856
526,9.470625627727713e-06,1.0,0.7734398245811462,0.8857142857142856
527,9.429116289538797e-06,1.0,0.7737512588500977,0.8857142857142856
528,9.38547782425303e-06,1.0,0.7740092277526855,0.8857142857142856
529,9.336518814961892e-06,1.0,0.774272084236145,0.8857142857142856
530,9.298201803176198e-06,1.0,0.7745673060417175,0.8857142857142856
531,9.250307812180836e-06,1.0,0.7748755812644958,0.8857142857142856
532,9.205604328599293e-06,1.0,0.7751259207725525,0.8857142857142856
533,9.154516192211304e-06,1.0,0.7754809260368347,0.8857142857142856
534,9.109812708629761e-06,1.0,0.7757554054260254,0.8857142857142856
535,9.074690751731396e-06,1.0,0.7760767340660095,0.8857142857142856
536,9.031051376950927e-06,1.0,0.776433527469635,0.8857142857142856
537,8.990607966552489e-06,1.0,0.7766221165657043,0.8857142857142856
538,8.941648047766648e-06,1.0,0.7769057154655457,0.8857142857142856
539,8.898009582480881e-06,1.0,0.7772642970085144,0.8857142857142856
540,8.85969348018989e-06,1.0,0.7775158286094666,0.8857142857142856
541,8.820313269097824e-06,1.0,0.7777413129806519,0.8857142857142856
542,8.783061275607906e-06,1.0,0.77804034948349,0.8857142857142856
543,8.73516546562314e-06,1.0,0.7783398628234863,0.8857142857142856
544,8.704299943929072e-06,1.0,0.7786062359809875,0.8857142857142856
545,8.66385471454123e-06,1.0,0.7788602113723755,0.8857142857142856
546,8.613829777459614e-06,1.0,0.7791972756385803,0.8857142857142856
547,8.574449566367548e-06,1.0,0.7794975638389587,0.8857142857142856
548,8.537196663382929e-06,1.0,0.7797501683235168,0.8857142857142856
549,8.504202924086712e-06,1.0,0.7800921201705933,0.8857142857142856
550,8.455243005300872e-06,1.0,0.7804256081581116,0.8857142857142856
551,8.415862794208806e-06,1.0,0.7807313799858093,0.8857142857142856
552,8.383932254218962e-06,1.0,0.7809975743293762,0.8857142857142856
553,8.344551133632194e-06,1.0,0.7812911868095398,0.8857142857142856
554,8.306235031341203e-06,1.0,0.7815775871276855,0.8857142857142856
555,8.256210094259586e-06,1.0,0.7818594574928284,0.8857142857142856
556,8.215765774366446e-06,1.0,0.7821221947669983,0.8857142857142856
557,8.183835234376602e-06,1.0,0.7823280096054077,0.8857142857142856
558,8.14551913208561e-06,1.0,0.7826200723648071,0.8857142857142856
559,8.11465270089684e-06,1.0,0.7828802466392517,0.8857142857142856
560,8.075272489804775e-06,1.0,0.7831637263298035,0.8857142857142856
561,8.032698133320082e-06,1.0,0.7834433913230896,0.8857142857142856
562,7.996510248631239e-06,1.0,0.7837273478507996,0.8857142857142856
563,7.948615348141175e-06,1.0,0.7839909791946411,0.8857142857142856
564,7.91881302575348e-06,1.0,0.7842506766319275,0.8857142857142856
565,7.879432814661413e-06,1.0,0.7845647931098938,0.8857142857142856
566,7.841116712370422e-06,1.0,0.7848249673843384,0.8857142857142856
567,7.805992936482653e-06,1.0,0.7850255966186523,0.8857142857142856
568,7.775126505293883e-06,1.0,0.785279393196106,0.8857142857142856
569,7.738939530099742e-06,1.0,0.785576343536377,0.8857142857142856
570,7.705943971814122e-06,1.0,0.7857722043991089,0.8857142857142856
571,7.669756087125279e-06,1.0,0.7860112190246582,0.8857142857142856
572,7.626118986081565e-06,1.0,0.7862969040870667,0.8857142857142856
573,7.585673301946372e-06,1.0,0.7865146994590759,0.8857142857142856
574,7.54948587200488e-06,1.0,0.7866524457931519,0.8857142857142856
575,7.514362550864462e-06,1.0,0.7867635488510132,0.8857142857142856
576,7.480302883777767e-06,1.0,0.7868164777755737,0.8857142857142856
577,7.446244126185775e-06,1.0,0.7867669463157654,0.8857142857142856
578,7.412184913846431e-06,1.0,0.7866172194480896,0.8857142857142856
579,7.374932465609163e-06,1.0,0.786491870880127,0.8857142857142856
580,7.333423127420247e-06,1.0,0.7863572239875793,0.8857142857142856
581,7.298299806279829e-06,1.0,0.7860501408576965,0.8857142857142856
582,7.264240593940485e-06,1.0,0.7855620980262756,0.8857142857142856
583,7.225924036902143e-06,1.0,0.7850550413131714,0.8857142857142856
584,7.188672043412225e-06,1.0,0.7843603491783142,0.8857142857142856
585,7.150355941121234e-06,1.0,0.7832103967666626,0.8857142857142856
586,7.110974365787115e-06,1.0,0.781391978263855,0.8857142857142856
587,7.077979716996197e-06,1.0,0.7816342115402222,0.8857142857142856
588,7.042856395855779e-06,1.0,0.7868472337722778,0.8857142857142856
589,7.010925855865935e-06,1.0,0.7954530715942383,0.8857142857142856
590,6.978995770623442e-06,1.0,0.8009757995605469,0.8857142857142856
591,6.952387138881022e-06,1.0,0.8020992875099182,0.8857142857142856
592,6.913006018294254e-06,1.0,0.8013189435005188,0.8857142857142856
593,6.8853328230034094e-06,1.0,0.8005765080451965,0.8857142857142856
594,6.85872419126099e-06,1.0,0.8007398247718811,0.8857142857142856
595,6.82785776007222e-06,1.0,0.8014890551567078,0.8857142857142856
596,6.8012491283298004e-06,1.0,0.8022397756576538,0.8857142857142856
597,6.771447715436807e-06,1.0,0.8028014302253723,0.8857142857142856
598,6.734194812452188e-06,1.0,0.803123414516449,0.8857142857142856
599,6.696943273709621e-06,1.0,0.8032606840133667,0.8857142857142856
600,6.669270078418776e-06,1.0,0.8034579157829285,0.8857142857142856
601,6.639468210778432e-06,1.0,0.8038037419319153,0.8857142857142856
602,6.618181032536086e-06,1.0,0.8042269945144653,0.8857142857142856
603,6.583057711395668e-06,1.0,0.8045656085014343,0.8857142857142856
604,6.552191734954249e-06,1.0,0.8048535585403442,0.8857142857142856
605,6.523454885609681e-06,1.0,0.8051563501358032,0.8857142857142856
606,6.490459327324061e-06,1.0,0.8055073618888855,0.8857142857142856
607,6.465979367931141e-06,1.0,0.8057973980903625,0.8857142857142856
608,6.435113846237073e-06,1.0,0.8060827255249023,0.8857142857142856
609,6.408504304999951e-06,1.0,0.8063651323318481,0.8857142857142856
610,6.378703346854309e-06,1.0,0.8066059350967407,0.8857142857142856
611,6.340386335068615e-06,1.0,0.8069000840187073,0.8857142857142856
612,6.313777248578845e-06,1.0,0.807223916053772,0.8857142857142856
613,6.287168616836425e-06,1.0,0.8075576424598694,0.8857142857142856
614,6.25949542154558e-06,1.0,0.8079128861427307,0.8857142857142856
615,6.227564881555736e-06,1.0,0.8082098960876465,0.8857142857142856
616,6.211600521055516e-06,1.0,0.8084757924079895,0.8857142857142856
617,6.179669526318321e-06,1.0,0.8087577819824219,0.8857142857142856
618,6.150931767479051e-06,1.0,0.8089436888694763,0.8857142857142856
619,6.123259026935557e-06,1.0,0.8089722394943237,0.8857142857142856
620,6.090263923397288e-06,1.0,0.8092886805534363,0.8857142857142856
621,6.060462055756943e-06,1.0,0.80977863073349,0.8857142857142856
622,6.039174877514597e-06,1.0,0.8101462125778198,0.8857142857142856
623,6.011501682223752e-06,1.0,0.8104357123374939,0.8857142857142856
624,5.985957159282407e-06,1.0,0.810716986656189,0.8857142857142856
625,5.955091182840988e-06,1.0,0.8110107779502869,0.8857142857142856
626,5.924225206399569e-06,1.0,0.8112679123878479,0.8857142857142856
627,5.9050667005067226e-06,1.0,0.8114944100379944,0.8857142857142856
628,5.8805862863664515e-06,1.0,0.8117815852165222,0.8857142857142856
629,5.855042218172457e-06,1.0,0.8121274709701538,0.8857142857142856
630,5.832691385876387e-06,1.0,0.8124062418937683,0.8857142857142856
631,5.805017735838192e-06,1.0,0.8127626776695251,0.8857142857142856
632,5.779473667644197e-06,1.0,0.8130900263786316,0.8857142857142856
633,5.76031516175135e-06,1.0,0.8133405447006226,0.8857142857142856
634,5.727320058213081e-06,1.0,0.8135790824890137,0.8857142857142856
635,5.701775990019087e-06,1.0,0.8138373494148254,0.8857142857142856
636,5.675166903529316e-06,1.0,0.814130961894989,0.8857142857142856
637,5.659202543029096e-06,1.0,0.8144933581352234,0.8857142857142856
638,5.627271548291901e-06,1.0,0.8148520588874817,0.8857142857142856
639,5.599598353001056e-06,1.0,0.815190315246582,0.8857142857142856
640,5.5761825024092104e-06,1.0,0.8155385255813599,0.8857142857142856
641,5.555959887715289e-06,1.0,0.8158323168754578,0.8857142857142856
642,5.5314790188276675e-06,1.0,0.8161041140556335,0.8857142857142856
643,5.504870841832599e-06,1.0,0.8163873553276062,0.8857142857142856
644,5.483583663590252e-06,1.0,0.8167393803596497,0.8857142857142856
645,5.461232376546832e-06,1.0,0.8171207308769226,0.8857142857142856
646,5.4399451983044855e-06,1.0,0.8174982666969299,0.8857142857142856
647,5.4112074394652154e-06,1.0,0.8178094029426575,0.8857142857142856
648,5.3877920436207205e-06,1.0,0.8181059956550598,0.8857142857142856
649,5.369698101276299e-06,1.0,0.8184061646461487,0.8857142857142856
650,5.344153578334954e-06,1.0,0.818724513053894,0.8857142857142856
651,5.3196736189420335e-06,1.0,0.8190985918045044,0.8857142857142856
652,5.293064987199614e-06,1.0,0.8194384574890137,0.8857142857142856
653,5.276034698908916e-06,1.0,0.8197516798973083,0.8857142857142856
654,5.2472973948169965e-06,1.0,0.82007896900177,0.8857142857142856
655,5.224946107773576e-06,1.0,0.8204518556594849,0.8857142857142856
656,5.20365892953123e-06,1.0,0.8207870125770569,0.8857142857142856
657,5.183435860089958e-06,1.0,0.8210946321487427,0.8857142857142856
658,5.160020918992814e-06,1.0,0.8214243054389954,0.8857142857142856
659,5.139797849551542e-06,1.0,0.8217228651046753,0.8857142857142856
660,5.1185102165618446e-06,1.0,0.8220926523208618,0.8857142857142856
661,5.094031166663626e-06,1.0,0.8224151730537415,0.8857142857142856
662,5.077000878372928e-06,1.0,0.8228119611740112,0.8857142857142856
663,5.056778263679007e-06,1.0,0.8230733871459961,0.8857142857142856
664,5.024848178436514e-06,1.0,0.8233174085617065,0.8857142857142856
665,5.0024964366457425e-06,1.0,0.8236989378929138,0.8857142857142856
666,4.985467057849746e-06,1.0,0.8240123987197876,0.8857142857142856
667,4.95779340781155e-06,1.0,0.8242677450180054,0.8857142857142856
668,4.932248884870205e-06,1.0,0.8246033787727356,0.8857142857142856
669,4.922669631923782e-06,1.0,0.8249431848526001,0.8857142857142856
670,4.897125563729787e-06,1.0,0.8252650499343872,0.8857142857142856
671,4.872645604336867e-06,1.0,0.825620174407959,0.8857142857142856
672,4.863065896643093e-06,1.0,0.8259111642837524,0.8857142857142856
673,4.834328137803823e-06,1.0,0.8262748122215271,0.8857142857142856
674,4.822621122002602e-06,1.0,0.8265371322631836,0.8857142857142856
675,4.80026938021183e-06,1.0,0.8268712759017944,0.8857142857142856
676,4.77366029372206e-06,1.0,0.8271160125732422,0.8857142857142856
677,4.761951913678786e-06,1.0,0.827524721622467,0.8857142857142856
678,4.738536972581642e-06,1.0,0.8278695344924927,0.8857142857142856
679,4.711927886091871e-06,1.0,0.8280550837516785,0.8857142857142856
680,4.698090833699098e-06,1.0,0.8284026980400085,0.8857142857142856
681,4.675739091908326e-06,1.0,0.8287001252174377,0.8857142857142856
682,4.651260042010108e-06,1.0,0.8290415406227112,0.8857142857142856
683,4.63635888081626e-06,1.0,0.8293774724006653,0.8857142857142856
684,4.615071247826563e-06,1.0,0.8297138810157776,0.8857142857142856
685,4.596976850734791e-06,1.0,0.8300855755805969,0.8857142857142856
686,4.576754690788221e-06,1.0,0.8303390145301819,0.8857142857142856
687,4.5565320760942996e-06,1.0,0.8306961059570312,0.8857142857142856
688,4.540566351352027e-06,1.0,0.8310948610305786,0.8857142857142856
689,4.522472409007605e-06,1.0,0.8313735723495483,0.8857142857142856
690,4.496927431318909e-06,1.0,0.8316483497619629,0.8857142857142856
691,4.4798985072702635e-06,1.0,0.8320419192314148,0.8857142857142856
692,4.456482656678418e-06,1.0,0.832321047782898,0.8857142857142856
693,4.44371016783407e-06,1.0,0.8326159119606018,0.8857142857142856
694,4.423488007887499e-06,1.0,0.832955539226532,0.8857142857142856
695,4.405393610795727e-06,1.0,0.8333256840705872,0.8857142857142856
696,4.3830418690049555e-06,1.0,0.8336352109909058,0.8857142857142856
697,4.369205271359533e-06,1.0,0.8339264988899231,0.8857142857142856
698,4.3468539843161125e-06,1.0,0.8342775702476501,0.8857142857142856
699,4.325566806073766e-06,1.0,0.8346280455589294,0.8857142857142856
700,4.309601536078844e-06,1.0,0.834900975227356,0.8857142857142856
701,4.2904430301859975e-06,1.0,0.8353208899497986,0.8857142857142856
702,4.269155851943651e-06,1.0,0.8357042670249939,0.8857142857142856
703,4.252126018400304e-06,1.0,0.8358754515647888,0.8857142857142856
704,4.231903403706383e-06,1.0,0.8362706303596497,0.8857142857142856
705,4.2180668060609605e-06,1.0,0.8366442322731018,0.8857142857142856
706,4.2021015360660385e-06,1.0,0.8369166254997253,0.8857142857142856
707,4.187200829619542e-06,1.0,0.8371579051017761,0.8857142857142856
708,4.171235104877269e-06,1.0,0.8375226259231567,0.8857142857142856
709,4.146755145484349e-06,1.0,0.8378931283950806,0.8857142857142856
710,4.130789875489427e-06,1.0,0.8381742238998413,0.8857142857142856
711,4.11163136959658e-06,1.0,0.8384453058242798,0.8857142857142856
712,4.098858880752232e-06,1.0,0.8388334512710571,0.8857142857142856
713,4.0850222831068095e-06,1.0,0.839296281337738,0.8857142857142856
714,4.065864231961314e-06,1.0,0.8396251797676086,0.8857142857142856
715,4.05202717956854e-06,1.0,0.8399468064308167,0.8857142857142856
716,4.0328691284230445e-06,1.0,0.8402706384658813,0.8857142857142856
717,4.015839294879697e-06,1.0,0.8406884074211121,0.8857142857142856
718,3.99880946133635e-06,1.0,0.8410094976425171,0.8857142857142856
719,3.982844191341428e-06,1.0,0.8412436246871948,0.8857142857142856
720,3.958364231948508e-06,1.0,0.8416018486022949,0.8857142857142856
721,3.941334398405161e-06,1.0,0.8419570922851562,0.8857142857142856
722,3.918982656614389e-06,1.0,0.8423457741737366,0.8857142857142856
723,3.906210167770041e-06,1.0,0.842646062374115,0.8857142857142856
724,3.891309461323544e-06,1.0,0.8429946899414062,0.8857142857142856
725,3.875344646075973e-06,1.0,0.8434118628501892,0.8857142857142856
726,3.858314357785275e-06,1.0,0.8437118530273438,0.8857142857142856
727,3.842349087790353e-06,1.0,0.8440503478050232,0.8857142857142856
728,3.8274483813438565e-06,1.0,0.8444221615791321,0.8857142857142856
729,3.8157404560479335e-06,1.0,0.8447346687316895,0.8857142857142856
730,3.7955173866066616e-06,1.0,0.8450561165809631,0.8857142857142856
731,3.780616225412814e-06,1.0,0.8455032706260681,0.8857142857142856
732,3.7646511827915674e-06,1.0,0.845859944820404,0.8857142857142856
733,3.7454926768987207e-06,1.0,0.8461939096450806,0.8857142857142856
734,3.726334171005874e-06,1.0,0.8466295003890991,0.8857142857142856
735,3.7178192542342003e-06,1.0,0.8470233082771301,0.8857142857142856
736,3.6986607483413536e-06,1.0,0.8474111557006836,0.8857142857142856
737,3.6858887142443564e-06,1.0,0.8478406667709351,0.8857142857142856
738,3.667794317152584e-06,1.0,0.8482269048690796,0.8857142857142856
739,3.6518288197839865e-06,1.0,0.8485726714134216,0.8857142857142856
740,3.6358640045364155e-06,1.0,0.8489332795143127,0.8857142857142856
741,3.6252204154152423e-06,1.0,0.8493512868881226,0.8857142857142856
742,3.6071262456971454e-06,1.0,0.8497022986412048,0.8857142857142856
743,3.5922250845032977e-06,1.0,0.8501152992248535,0.8857142857142856
744,3.5773241506831255e-06,1.0,0.8505362868309021,0.8857142857142856
745,3.5624232168629533e-06,1.0,0.8508543968200684,0.8857142857142856
746,3.5496509553922806e-06,1.0,0.8512725830078125,0.8857142857142856
747,3.536878693921608e-06,1.0,0.8517597317695618,0.8857142857142856
748,3.518784524203511e-06,1.0,0.8522903323173523,0.8857142857142856
749,3.5060122627328383e-06,1.0,0.8526140451431274,0.8857142857142856
750,3.4868537568399915e-06,1.0,0.8529638648033142,0.8857142857142856
751,3.4740812679956434e-06,1.0,0.8535128831863403,0.8857142857142856
752,3.461309233898646e-06,1.0,0.8539581894874573,0.8857142857142856
753,3.4453437365300488e-06,1.0,0.8543151021003723,0.8857142857142856
754,3.430443030083552e-06,1.0,0.8547940850257874,0.8857142857142856
755,3.4219281133118784e-06,1.0,0.8553353548049927,0.8857142857142856
756,3.405962615943281e-06,1.0,0.8558119535446167,0.8857142857142856
757,3.3857397738756845e-06,1.0,0.8562608361244202,0.8857142857142856
758,3.3793535294535104e-06,1.0,0.8566796183586121,0.8857142857142856
759,3.3570020150364144e-06,1.0,0.8571843504905701,0.8857142857142856
760,3.3506159979879158e-06,1.0,0.8577958941459656,0.8857142857142856
761,3.3282644835708197e-06,1.0,0.8582302331924438,0.8857142857142856
762,3.3218782391486457e-06,1.0,0.8586011528968811,0.8857142857142856
763,3.3059129691537237e-06,1.0,0.8590003848075867,0.8857142857142856
764,3.2899474717851263e-06,1.0,0.8594350814819336,0.8857142857142856
765,3.2814325550134527e-06,1.0,0.8598458170890808,0.8857142857142856
766,3.2622742764942814e-06,1.0,0.8602465391159058,0.8857142857142856
767,3.252695023547858e-06,1.0,0.8607726097106934,0.8857142857142856
768,3.232471954106586e-06,1.0,0.8610963821411133,0.8857142857142856
769,3.2228927011601627e-06,1.0,0.8616564869880676,0.8857142857142856
770,3.210120894436841e-06,1.0,0.8621636033058167,0.8857142857142856
771,3.1952197332429932e-06,1.0,0.8624909520149231,0.8857142857142856
772,3.1845759167481447e-06,1.0,0.8628243207931519,0.8857142857142856
773,3.169674755554297e-06,1.0,0.8632903099060059,0.8857142857142856
774,3.1590313938067993e-06,1.0,0.863716185092926,0.8857142857142856
775,3.1441302326129517e-06,1.0,0.8641327619552612,0.8857142857142856
776,3.1324223073170288e-06,1.0,0.864425539970398,0.8857142857142856
777,3.1207146093947813e-06,1.0,0.8647903800010681,0.8857142857142856
778,3.107942120550433e-06,1.0,0.865223228931427,0.8857142857142856
779,3.09729853142926e-06,1.0,0.8655251860618591,0.8857142857142856
780,3.0855903787596617e-06,1.0,0.8658556342124939,0.8857142857142856
781,3.070689217565814e-06,1.0,0.866143524646759,0.8857142857142856
782,3.0600458558183163e-06,1.0,0.8664688467979431,0.8857142857142856
783,3.0494024940708186e-06,1.0,0.8667901158332825,0.8857142857142856
784,3.034501332876971e-06,1.0,0.8670960664749146,0.8857142857142856
785,3.028115088454797e-06,1.0,0.8674127459526062,0.8857142857142856
786,3.012149818459875e-06,1.0,0.8677464723587036,0.8857142857142856
787,2.9972486572660273e-06,1.0,0.8681414723396301,0.8857142857142856
788,2.983412059620605e-06,1.0,0.8683667182922363,0.8857142857142856
789,2.973833034047857e-06,1.0,0.8686798810958862,0.8857142857142856
790,2.9621248813782586e-06,1.0,0.8689939379692078,0.8857142857142856
791,2.948288283732836e-06,1.0,0.8692827820777893,0.8857142857142856
792,2.9387088034127373e-06,1.0,0.8695076704025269,0.8857142857142856
793,2.9152929528208915e-06,1.0,0.8698965907096863,0.8857142857142856
794,2.912099944296642e-06,1.0,0.8701878190040588,0.8857142857142856
795,2.8993276828259695e-06,1.0,0.8704035878181458,0.8857142857142856
796,2.8876197575300466e-06,1.0,0.8707624673843384,0.8857142857142856
797,2.8759116048604483e-06,1.0,0.8709126114845276,0.8857142857142856
798,2.862075007215026e-06,1.0,0.8711881041526794,0.8857142857142856
799,2.851431645467528e-06,1.0,0.8715143203735352,0.8857142857142856
800,2.8375948204484303e-06,1.0,0.8718301057815552,0.8857142857142856
801,2.8290799036767567e-06,1.0,0.8721643090248108,0.8857142857142856
802,2.8184363145555835e-06,1.0,0.8722794651985168,0.8857142857142856
803,2.8045994895364856e-06,1.0,0.8724653124809265,0.8857142857142856
804,2.796085027512163e-06,1.0,0.872757613658905,0.8857142857142856
805,2.782248202493065e-06,1.0,0.8731057047843933,0.8857142857142856
806,2.769475713648717e-06,1.0,0.8733087182044983,0.8857142857142856
807,2.7598964607022936e-06,1.0,0.8735442757606506,0.8857142857142856
808,2.7471244266052963e-06,1.0,0.873911440372467,0.8857142857142856
809,2.7364806101104477e-06,1.0,0.8743254542350769,0.8857142857142856
810,2.72583724836295e-06,1.0,0.8745012283325195,0.8857142857142856
811,2.7141290956933517e-06,1.0,0.8747839331626892,0.8857142857142856
812,2.702421170397429e-06,1.0,0.8751416206359863,0.8857142857142856
813,2.6970992621500045e-06,1.0,0.875381350517273,0.8857142857142856
814,2.6843267733056564e-06,1.0,0.8756613731384277,0.8857142857142856
815,2.672619075383409e-06,1.0,0.8760084509849548,0.8857142857142856
816,2.6598468139127363e-06,1.0,0.8762223124504089,0.8857142857142856
817,2.650267560966313e-06,1.0,0.8764788508415222,0.8857142857142856
818,2.6406883080198895e-06,1.0,0.8767825961112976,0.8857142857142856
819,2.630044491525041e-06,1.0,0.877088725566864,0.8857142857142856
820,2.6172724574280437e-06,1.0,0.877286434173584,0.8857142857142856
821,2.6044999685836956e-06,1.0,0.8775267004966736,0.8857142857142856
822,2.5949207156372722e-06,1.0,0.8777992129325867,0.8857142857142856
823,2.5864057988655986e-06,1.0,0.8780894875526428,0.8857142857142856
824,2.5778906547202496e-06,1.0,0.8782562613487244,0.8857142857142856
825,2.5619253847253276e-06,1.0,0.8786048293113708,0.8857142857142856
826,2.549153123254655e-06,1.0,0.8787760138511658,0.8857142857142856
827,2.5438312150072306e-06,1.0,0.87882000207901,0.8857142857142856
828,2.529994617361808e-06,1.0,0.878957211971283,0.8857142857142856
829,2.5193512556143105e-06,1.0,0.8792042136192322,0.8857142857142856
830,2.5129650111921364e-06,1.0,0.8794743418693542,0.8857142857142856
831,2.5023214220709633e-06,1.0,0.8796969652175903,0.8857142857142856
832,2.4874202608771157e-06,1.0,0.8797593712806702,0.8857142857142856
833,2.4831629161781166e-06,1.0,0.8796874284744263,0.8857142857142856
834,2.4650687464600196e-06,1.0,0.879676342010498,0.8857142857142856
835,2.4597468382125953e-06,1.0,0.8794959783554077,0.8857142857142856
836,2.449103249091422e-06,1.0,0.8791141510009766,0.8857142857142856
837,2.4320731881743995e-06,1.0,0.8786128759384155,0.8857142857142856
838,2.421429826426902e-06,1.0,0.8777962327003479,0.8857142857142856
839,2.4129151370289037e-06,1.0,0.8776267170906067,0.8857142857142856
840,2.40440022025723e-06,1.0,0.8792915940284729,0.8857142857142856
841,2.3916279587865574e-06,1.0,0.8827080726623535,0.8857142857142856
842,2.382048705840134e-06,1.0,0.8844057321548462,0.8857142857142856
843,2.37566246141796e-06,1.0,0.8839530348777771,0.8857142857142856
844,2.361825636398862e-06,1.0,0.8834673166275024,0.8857142857142856
845,2.3533107196271885e-06,1.0,0.8837328553199768,0.8857142857142856
846,2.343731466680765e-06,1.0,0.8841621279716492,0.8857142857142856
847,2.3341524411080172e-06,1.0,0.8845881223678589,0.8857142857142856
848,2.3267018605110934e-06,1.0,0.8848890662193298,0.8857142857142856
849,2.3192512799141696e-06,1.0,0.8850880265235901,0.8857142857142856
850,2.314993707841495e-06,1.0,0.8852748870849609,0.8857142857142856
851,2.301157337569748e-06,1.0,0.8854610323905945,0.8857142857142856
852,2.292642193424399e-06,1.0,0.8857539296150208,0.8857142857142856
853,2.2830629404779756e-06,1.0,0.8860746622085571,0.8857142857142856
854,2.2724193513568025e-06,1.0,0.8863567113876343,0.8857142857142856
855,2.2639046619588044e-06,1.0,0.8867407441139221,0.8857142857142856
856,2.2532608454639558e-06,1.0,0.8869748711585999,0.8857142857142856
857,2.240488583993283e-06,1.0,0.8871453404426575,0.8857142857142856
858,2.22984499487211e-06,1.0,0.8873969912528992,0.8857142857142856
859,2.22878065869736e-06,1.0,0.8876663446426392,0.8857142857142856
860,2.219201405750937e-06,1.0,0.8879126310348511,0.8857142857142856
861,2.2096221528045135e-06,1.0,0.8882519006729126,0.8857142857142856
862,2.2000426724844147e-06,1.0,0.8886765241622925,0.8857142857142856
863,2.1957853277854156e-06,1.0,0.8889439702033997,0.8857142857142856
864,2.179819830416818e-06,1.0,0.8891265988349915,0.8857142857142856
865,2.1649186692229705e-06,1.0,0.8893616795539856,0.8857142857142856
866,2.162789996873471e-06,1.0,0.8895901441574097,0.8857142857142856
867,2.1564039798249723e-06,1.0,0.8898452520370483,0.8857142857142856
868,2.1457601633301238e-06,1.0,0.8902919888496399,0.8857142857142856
869,2.1383098101068754e-06,1.0,0.8906790614128113,0.8857142857142856
870,2.1297948933352018e-06,1.0,0.8908737301826477,0.8857142857142856
871,2.1244729850877775e-06,1.0,0.8910309672355652,0.8857142857142856
872,2.114893732141354e-06,1.0,0.8913876414299011,0.8857142857142856
873,2.104250143020181e-06,1.0,0.8916527032852173,0.8857142857142856
874,2.1010569071222562e-06,1.0,0.891893208026886,0.8857142857142856
875,2.092542217724258e-06,1.0,0.8923246264457703,0.8857142857142856
876,2.0850916371273343e-06,1.0,0.8927261233329773,0.8857142857142856
877,2.0723193756566616e-06,1.0,0.8929298520088196,0.8857142857142856
878,2.0680620309576625e-06,1.0,0.8930951356887817,0.8857142857142856
879,2.057418214462814e-06,1.0,0.8933599591255188,0.8857142857142856
880,2.0510321974143153e-06,1.0,0.8936260342597961,0.8857142857142856
881,2.0425172806426417e-06,1.0,0.8938481211662292,0.8857142857142856
882,2.0361310362204676e-06,1.0,0.8941799402236938,0.8857142857142856
883,2.028680455623544e-06,1.0,0.8945004343986511,0.8857142857142856
884,2.016972530327621e-06,1.0,0.8947742581367493,0.8857142857142856
885,2.013779294429696e-06,1.0,0.8950003385543823,0.8857142857142856
886,2.0084576135559473e-06,1.0,0.8953523635864258,0.8857142857142856
887,1.997814024434774e-06,1.0,0.8956882357597351,0.8857142857142856
888,1.9871702079399256e-06,1.0,0.8959094285964966,0.8857142857142856
889,1.986105871765176e-06,1.0,0.896155834197998,0.8857142857142856
890,1.974397946469253e-06,1.0,0.8964436650276184,0.8857142857142856
891,1.9616256849985803e-06,1.0,0.8967767953872681,0.8857142857142856
892,1.9499177597026573e-06,1.0,0.8969950079917908,0.8857142857142856
893,1.9467245238047326e-06,1.0,0.8970719575881958,0.8857142857142856
894,1.9403382793825585e-06,1.0,0.8971732258796692,0.8857142857142856
895,1.927566017911886e-06,1.0,0.8972684144973755,0.8857142857142856
896,1.920115437314962e-06,1.0,0.8976410627365112,0.8857142857142856
897,1.911600293169613e-06,1.0,0.897872269153595,0.8857142857142856
898,1.907342948470614e-06,1.0,0.8981292843818665,0.8857142857142856
899,1.8998925952473655e-06,1.0,0.8985520601272583,0.8857142857142856
900,1.8903132286141044e-06,1.0,0.8989484906196594,0.8857142857142856
901,1.888184556264605e-06,1.0,0.8992493748664856,0.8857142857142856
902,1.8817983118424308e-06,1.0,0.8995010256767273,0.8857142857142856
903,1.8732833950707573e-06,1.0,0.8997579216957092,0.8857142857142856
904,1.8605112472869223e-06,1.0,0.899970531463623,0.8857142857142856
905,1.8530606666899985e-06,1.0,0.9001337885856628,0.8857142857142856
906,1.8498675444789114e-06,1.0,0.9004759788513184,0.8857142857142856
907,1.8445456362314872e-06,1.0,0.9008108377456665,0.8857142857142856
908,1.8296444750376395e-06,1.0,0.9009795188903809,0.8857142857142856
909,1.82751580268814e-06,1.0,0.9013643264770508,0.8857142857142856
910,1.8232584579891409e-06,1.0,0.9016640782356262,0.8857142857142856
911,1.8168722135669668e-06,1.0,0.9019374251365662,0.8857142857142856
912,1.8019711660599569e-06,1.0,0.9022788405418396,0.8857142857142856
913,1.7998424937104573e-06,1.0,0.9025435447692871,0.8857142857142856
914,1.7934562492882833e-06,1.0,0.9027523398399353,0.8857142857142856
915,1.7891987909024465e-06,1.0,0.9029874801635742,0.8857142857142856
916,1.7774909792933613e-06,1.0,0.9034225344657898,0.8857142857142856
917,1.7721691847327747e-06,1.0,0.9036335945129395,0.8857142857142856
918,1.7689760625216877e-06,1.0,0.9037958383560181,0.8857142857142856
919,1.7604610320631764e-06,1.0,0.9041670560836792,0.8857142857142856
920,1.75407490132784e-06,1.0,0.9043750762939453,0.8857142857142856
921,1.741302753544005e-06,1.0,0.904636561870575,0.8857142857142856
922,1.7370451814713306e-06,1.0,0.9050103425979614,0.8857142857142856
923,1.731723386910744e-06,1.0,0.9053112864494324,0.8857142857142856
924,1.7295946008744068e-06,1.0,0.90553218126297,0.8857142857142856
925,1.7157578895421466e-06,1.0,0.9057099223136902,0.8857142857142856
926,1.7029854006977985e-06,1.0,0.9055701494216919,0.8857142857142856
927,1.6987279423119617e-06,1.0,0.90576171875,0.8857142857142856
928,1.6955348201008746e-06,1.0,0.90638667345047,0.8857142857142856
929,1.6912774754018756e-06,1.0,0.9070354700088501,0.8857142857142856
930,1.679569436419115e-06,1.0,0.9074079394340515,0.8857142857142856
931,1.676376314208028e-06,1.0,0.9076005816459656,0.8857142857142856
932,1.668925733611104e-06,1.0,0.9079211950302124,0.8857142857142856
933,1.6604108168394305e-06,1.0,0.9082980751991272,0.8857142857142856
934,1.6497672277182573e-06,1.0,0.9086226224899292,0.8857142857142856
935,1.643381096982921e-06,1.0,0.9089525938034058,0.8857142857142856
936,1.6391235249102465e-06,1.0,0.9089800119400024,0.8857142857142856
937,1.6359305163859972e-06,1.0,0.9091483354568481,0.8857142857142856
938,1.6306086081385729e-06,1.0,0.9094051718711853,0.8857142857142856
939,1.617836460354738e-06,1.0,0.909643292427063,0.8857142857142856
940,1.6103858797578141e-06,1.0,0.9099053740501404,0.8857142857142856
941,1.6082570937214768e-06,1.0,0.9101741909980774,0.8857142857142856
942,1.6061284213719773e-06,1.0,0.9103336334228516,0.8857142857142856
943,1.6018709629861405e-06,1.0,0.9107189178466797,0.8857142857142856
944,1.5880341379670426e-06,1.0,0.9109014272689819,0.8857142857142856
945,1.5837766795812058e-06,1.0,0.9111520051956177,0.8857142857142856
946,1.5816478935448686e-06,1.0,0.9113555550575256,0.8857142857142856
947,1.5773904351590318e-06,1.0,0.9115877747535706,0.8857142857142856
948,1.573132976773195e-06,1.0,0.9118867516517639,0.8857142857142856
949,1.5603607153025223e-06,1.0,0.9121060371398926,0.8857142857142856
950,1.5582320429530228e-06,1.0,0.9124131202697754,0.8857142857142856
951,1.553974584567186e-06,1.0,0.9127348065376282,0.8857142857142856
952,1.5486527900065994e-06,1.0,0.912738025188446,0.8857142857142856
953,1.540137759548088e-06,1.0,0.9127928614616394,0.8857142857142856
954,1.5326871789511642e-06,1.0,0.9132426381111145,0.8857142857142856
955,1.5273653843905777e-06,1.0,0.9136155843734741,0.8857142857142856
956,1.5273653843905777e-06,1.0,0.9137434363365173,0.8857142857142856
957,1.5252365983542404e-06,1.0,0.9142025709152222,0.8857142857142856
958,1.5209794810289168e-06,1.0,0.914431631565094,0.8857142857142856
959,1.5082069921845687e-06,1.0,0.9147650003433228,0.8857142857142856
960,1.499692075412895e-06,1.0,0.9152584075927734,0.8857142857142856
961,1.496498953201808e-06,1.0,0.9152525067329407,0.8857142857142856
962,1.493305830990721e-06,1.0,0.9155722260475159,0.8857142857142856
963,1.4890483726048842e-06,1.0,0.9159378409385681,0.8857142857142856
964,1.4773404473089613e-06,1.0,0.9160884022712708,0.8857142857142856
965,1.4666967445009504e-06,1.0,0.9163834452629089,0.8857142857142856
966,1.4624392861151136e-06,1.0,0.9165468811988831,0.8857142857142856
967,1.4581818277292768e-06,1.0,0.9167205095291138,0.8857142857142856
968,1.4549887055181898e-06,1.0,0.9169424176216125,0.8857142857142856
969,1.4496669109576032e-06,1.0,0.9171279668807983,0.8857142857142856
970,1.4368945358000929e-06,1.0,0.9174085259437561,0.8857142857142856
971,1.4337014135890058e-06,1.0,0.9177488684654236,0.8857142857142856
972,1.429443955203169e-06,1.0,0.9178894758224487,0.8857142857142856
973,1.426250832992082e-06,1.0,0.918361246585846,0.8857142857142856
974,1.4209290384314954e-06,1.0,0.9187529683113098,0.8857142857142856
975,1.4102854493103223e-06,1.0,0.9190807938575745,0.8857142857142856
976,1.403899318574986e-06,1.0,0.9193434715270996,0.8857142857142856
977,1.4017705325386487e-06,1.0,0.9194301962852478,0.8857142857142856
978,1.397513074152812e-06,1.0,0.9196702837944031,0.8857142857142856
979,1.3921911659053876e-06,1.0,0.9198626279830933,0.8857142857142856
980,1.386869371344801e-06,1.0,0.9201830625534058,0.8857142857142856
981,1.3783544545731274e-06,1.0,0.9204802513122559,0.8857142857142856
982,1.3740969961872906e-06,1.0,0.9208969473838806,0.8857142857142856
983,1.3698394241146161e-06,1.0,0.9211432337760925,0.8857142857142856
984,1.3666465292772045e-06,1.0,0.9215739965438843,0.8857142857142856
985,1.3634534070661175e-06,1.0,0.9218282699584961,0.8857142857142856
986,1.3517453680833569e-06,1.0,0.9221096634864807,0.8857142857142856
987,1.344294787486433e-06,1.0,0.9224710464477539,0.8857142857142856
988,1.344294787486433e-06,1.0,0.9225355386734009,0.8857142857142856
989,1.3389729929258465e-06,1.0,0.9228552579879761,0.8857142857142856
990,1.3325868621905101e-06,1.0,0.9229879975318909,0.8857142857142856
991,1.3283294038046733e-06,1.0,0.9231958985328674,0.8857142857142856
992,1.3187500371714123e-06,1.0,0.9235600829124451,0.8857142857142856
993,1.3144925787855755e-06,1.0,0.9238630533218384,0.8857142857142856
994,1.3123637927492382e-06,1.0,0.9239397644996643,0.8857142857142856
995,1.3112994565744884e-06,1.0,0.9240602254867554,0.8857142857142856
996,1.3059776620139019e-06,1.0,0.9243183135986328,0.8857142857142856
997,1.3006558674533153e-06,1.0,0.9247470498085022,0.8857142857142856
998,1.2921409506816417e-06,1.0,0.9250439405441284,0.8857142857142856
999,1.283626033909968e-06,1.0,0.9253867268562317,0.8857142857142856
