,loss,recall,val_loss,val_recall
0,2.0539753437042236,0.1637428048142334,1.646344780921936,0.08775974407568209
1,1.4295735359191895,0.3490463389656938,1.5519485473632812,0.1519960043439837
2,1.0952844619750977,0.4160578386605784,1.4082318544387817,0.37028300688906585
3,0.8884344100952148,0.4842261904761905,1.2268595695495605,0.3442688948858387
4,0.7557358741760254,0.5439189189189189,1.0340508222579956,0.38944537401410995
5,0.6632291078567505,0.6108367346938776,0.8568522930145264,0.4144230173110977
6,0.5912990570068359,0.5709436133486767,0.7152445316314697,0.46392157005967743
7,0.5305342078208923,0.5734011627906976,0.6121659278869629,0.4931594765962437
8,0.47735852003097534,0.7007475083056479,0.538489580154419,0.49885176395394304
9,0.42964303493499756,0.706388888888889,0.48372697830200195,0.5056797307339467
10,0.38724619150161743,0.7052342394447658,0.44324734807014465,0.5053506046338611
11,0.35003405809402466,0.7080957857553603,0.4141698181629181,0.5193498355684355
12,0.3181796669960022,0.7085647859841409,0.3921301066875458,0.5415234247665623
13,0.29092937707901,0.7038024726854514,0.3734692633152008,0.5432114454001591
14,0.26692527532577515,0.8096808510638298,0.35742512345314026,0.5445308067089538
15,0.24528458714485168,0.8105899419729207,0.3439956605434418,0.5416645990536648
16,0.22603552043437958,0.7605899419729207,0.3324911296367645,0.541790088931895
17,0.2091003954410553,0.7605899419729207,0.3216950595378876,0.5584906298145543
18,0.1937597095966339,0.9368279569892473,0.3122992515563965,0.5760422237777911
19,0.17995278537273407,0.9368279569892473,0.30428051948547363,0.5761409932432048
20,0.16781090199947357,0.9374689826302729,0.2977641522884369,0.5741000057913271
21,0.15692469477653503,0.9374689826302729,0.29253560304641724,0.5642997641962116
22,0.14700990915298462,0.9374689826302729,0.2881717085838318,0.578111013463479
23,0.13800688087940216,0.9379598662207358,0.28466159105300903,0.5701430536636897
24,0.12975379824638367,0.9379598662207358,0.28126493096351624,0.572773858241397
25,0.12213852256536484,0.939010989010989,0.27870431542396545,0.5726885357873623
26,0.11510880291461945,0.939010989010989,0.2767159342765808,0.5636154430508179
27,0.10866376757621765,0.939010989010989,0.2753470540046692,0.5565905508171327
28,0.1026591807603836,0.939010989010989,0.27418577671051025,0.5565693450534751
29,0.09694471210241318,0.939010989010989,0.2735779285430908,0.550949955582213
30,0.09165944904088974,0.9423494983277592,0.2722320556640625,0.5509472674101701
31,0.08662911504507065,0.9423494983277592,0.2704888880252838,0.5578796647783473
32,0.08192981779575348,0.9423494983277592,0.2691078782081604,0.5550385621512978
33,0.078170545399189,0.9914148351648352,0.26816526055336,0.5550264263714175
34,0.07531346380710602,0.9862637362637363,0.26608023047447205,0.563555303717452
35,0.07014481723308563,0.9875,0.2664884328842163,0.5634476840674054
36,0.06645116955041885,0.9914148351648352,0.26748669147491455,0.5676430532105248
37,0.06258963793516159,0.9958791208791209,0.2682549059391022,0.5606865367151274
38,0.059178587049245834,0.9958791208791209,0.2676405608654022,0.5676305776057509
39,0.055612508207559586,0.9958791208791209,0.26679620146751404,0.5685492977447844
40,0.052847184240818024,0.9958791208791209,0.2662992477416992,0.5801092619364143
41,0.04957694932818413,0.9965277777777778,0.26888507604599,0.5731741458957578
42,0.04705650359392166,0.9965277777777778,0.2705712616443634,0.567580213400785
43,0.044211164116859436,0.997191011235955,0.27078983187675476,0.5685469227889528
44,0.04204472899436951,0.9985632183908046,0.27078789472579956,0.5628860002475012
45,0.039351023733615875,0.9985632183908046,0.2726365625858307,0.5628612302448678
46,0.03734008967876434,0.9985632183908046,0.2722117602825165,0.5770032312616794
47,0.03550959378480911,0.9992732558139534,0.2743751108646393,0.5909695761592881
48,0.033781468868255615,0.9992732558139534,0.27440446615219116,0.5909695761592881
49,0.03189345821738243,0.9992732558139534,0.2747255265712738,0.5910264369075205
50,0.030245237052440643,0.9992732558139534,0.2749735414981842,0.5770983775301466
51,0.02907702326774597,1.0,0.27511268854141235,0.5771260640199887
52,0.02649811841547489,1.0,0.28173816204071045,0.5882561790145383
53,0.02579387091100216,1.0,0.27984482049942017,0.5604674100194351
54,0.02546355128288269,1.0,0.2763258218765259,0.5493970191856806
55,0.023694057017564774,1.0,0.284441739320755,0.5604323717142693
56,0.02283107116818428,1.0,0.2844000458717346,0.5409914578492798
57,0.022182531654834747,1.0,0.27967923879623413,0.5769325053380805
58,0.019722111523151398,1.0,0.2865845859050751,0.527101072331582
59,0.018964961171150208,1.0,0.2905923128128052,0.5270921033982473
60,0.017795167863368988,1.0,0.28675249218940735,0.5605668650060776
61,0.016839809715747833,1.0,0.28843194246292114,0.5605139652093252
62,0.01619488000869751,1.0,0.29087015986442566,0.5549306429826603
63,0.015401270240545273,1.0,0.28873589634895325,0.5633060138555096
64,0.014793932437896729,1.0,0.2916496694087982,0.5633060138555096
65,0.014220371842384338,1.0,0.29458174109458923,0.5299104959604923
66,0.013571960851550102,1.0,0.294829785823822,0.5494211468456425
67,0.012963840737938881,1.0,0.29605790972709656,0.5494011843545548
68,0.012382039800286293,1.0,0.2975246012210846,0.5493990139673529
69,0.011966908350586891,1.0,0.2965552806854248,0.5493824917738288
70,0.011367237195372581,1.0,0.29999488592147827,0.5493574592003839
71,0.010983744636178017,1.0,0.3000299334526062,0.5494073947616832
72,0.01056745182722807,1.0,0.3007218837738037,0.5494114633087658
73,0.010160570032894611,1.0,0.3039497435092926,0.5494278943796416
74,0.009805350564420223,1.0,0.30317407846450806,0.5494278943796416
75,0.009454402141273022,1.0,0.3035759925842285,0.5467372749560431
76,0.009080776944756508,1.0,0.30584150552749634,0.5494462750286695
77,0.00877905823290348,1.0,0.30606576800346375,0.5495202279136584
78,0.008492839522659779,1.0,0.3056231439113617,0.5495444567137338
79,0.008195074275135994,1.0,0.3094243109226227,0.5495151794661115
80,0.007950728759169579,1.0,0.3107011318206787,0.5495151794661115
81,0.007693298626691103,1.0,0.31071707606315613,0.5495151794661115
82,0.007457065861672163,1.0,0.3120047450065613,0.5495444567137338
83,0.007232768461108208,1.0,0.31170162558555603,0.5495179489354812
84,0.007008563261479139,1.0,0.3121465742588043,0.5495179489354812
85,0.00680345157161355,1.0,0.31242144107818604,0.549556406909719
86,0.00661108922213316,1.0,0.3125957250595093,0.5495856841573412
87,0.006419263780117035,1.0,0.3134799599647522,0.5467685704730317
88,0.0062430789694190025,1.0,0.31416311860084534,0.5467685704730317
89,0.006077012047171593,1.0,0.314039021730423,0.5468070284472695
90,0.005913623608648777,1.0,0.3139146864414215,0.5468030777519473
91,0.005759498570114374,1.0,0.31418493390083313,0.5606959173361584
92,0.005612380802631378,1.0,0.3153838515281677,0.5606959173361584
93,0.005471204873174429,1.0,0.31570717692375183,0.5606959173361584
94,0.005339024588465691,1.0,0.3172048032283783,0.5606959173361584
95,0.005208393558859825,1.0,0.3175744116306305,0.5606959173361584
96,0.005084868520498276,1.0,0.3182888627052307,0.5607487847196709
97,0.00495589803904295,1.0,0.3188057541847229,0.5607414986317397
98,0.004837526939809322,1.0,0.3196742534637451,0.5608241437286458
99,0.004726380109786987,1.0,0.3194635808467865,0.5608241437286458
100,0.004614757839590311,1.0,0.32075750827789307,0.5608544348508909
101,0.0045137605629861355,1.0,0.3213047981262207,0.5636713827876146
102,0.004412358161062002,1.0,0.3220818340778351,0.5636713827876146
103,0.004315316677093506,1.0,0.3232197165489197,0.5497442016720737
104,0.004223715513944626,1.0,0.32339754700660706,0.5451145720424441
105,0.004133229143917561,1.0,0.32310205698013306,0.5636172350726482
106,0.00404625479131937,1.0,0.3240666687488556,0.5608459396152053
107,0.003961453679949045,1.0,0.32444456219673157,0.5608459396152053
108,0.003879966214299202,1.0,0.32515981793403625,0.5636628875519291
109,0.0037979145999997854,1.0,0.3256389796733856,0.5636628875519291
110,0.003721746848896146,1.0,0.32666218280792236,0.5608459396152053
111,0.003645474324002862,1.0,0.32651546597480774,0.5636628875519291
112,0.0035738106817007065,1.0,0.3277515470981598,0.5636628875519291
113,0.00350379990413785,1.0,0.32870566844940186,0.5636628875519291
114,0.003435424529016018,1.0,0.3292013704776764,0.5590029668000542
115,0.003372309496626258,1.0,0.3293451964855194,0.5590332579222994
116,0.003307513426989317,1.0,0.32993045449256897,0.5590332579222994
117,0.0032462896779179573,1.0,0.33112233877182007,0.5451751869577817
118,0.00318520562723279,1.0,0.33107295632362366,0.5590640758466705
119,0.0031263185665011406,1.0,0.33168312907218933,0.5590029668000542
120,0.0030721172224730253,1.0,0.3324649930000305,0.5590029668000542
121,0.0030144546180963516,1.0,0.33214879035949707,0.5590640758466705
122,0.0029616113752126694,1.0,0.33298540115356445,0.5591273480453794
123,0.0029087807051837444,1.0,0.3336835503578186,0.5590640758466705
124,0.0028570895083248615,1.0,0.3340436518192291,0.5590640758466705
125,0.002808184362947941,1.0,0.3346359133720398,0.5590332579222994
126,0.0027606673538684845,1.0,0.33523228764533997,0.5590954344363815
127,0.0027127256616950035,1.0,0.3361964523792267,0.5590332579222994
128,0.0026657981798052788,1.0,0.3360159993171692,0.5590640758466705
129,0.0026191165670752525,1.0,0.3367615342140198,0.5591273480453794
130,0.002574147656559944,1.0,0.3372209668159485,0.5452065455474926
131,0.002530916128307581,1.0,0.3373643159866333,0.5507778081875865
132,0.0024897088296711445,1.0,0.33757486939430237,0.5507386380286405
133,0.002450046595185995,1.0,0.33882611989974976,0.5507386380286405
134,0.0024088870268315077,1.0,0.3384608328342438,0.5507778081875865
135,0.002371847629547119,1.0,0.3392848074436188,0.5507386380286405
136,0.0023345686495304108,1.0,0.34086722135543823,0.5368497491397517
137,0.0022964319214224815,1.0,0.3403165936470032,0.5507386380286405
138,0.002261296147480607,1.0,0.34076228737831116,0.5507386380286405
139,0.002225659554824233,1.0,0.3419288694858551,0.5507386380286405
140,0.0021910332143306732,1.0,0.3418044149875641,0.5507386380286405
141,0.0021578827872872353,1.0,0.3421441316604614,0.5507386380286405
142,0.002124954015016556,1.0,0.3428814709186554,0.5507386380286405
143,0.0020931479521095753,1.0,0.34288373589515686,0.5507350630250656
144,0.002062528394162655,1.0,0.34336525201797485,0.5507386380286405
145,0.0020318988244980574,1.0,0.34427493810653687,0.5507386380286405
146,0.002002155873924494,1.0,0.34455981850624084,0.5507386380286405
147,0.001974166836589575,1.0,0.34508267045021057,0.5507386380286405
148,0.001946320291608572,1.0,0.34557539224624634,0.5507386380286405
149,0.0019180879462510347,1.0,0.34523525834083557,0.5507801319966883
150,0.001891090301796794,1.0,0.3458954393863678,0.5507350630250656
151,0.001864700112491846,1.0,0.34639331698417664,0.5507350630250656
152,0.0018390531186014414,1.0,0.3466946482658386,0.5507386380286405
153,0.0018131837714463472,1.0,0.3475205898284912,0.5507386380286405
154,0.0017886448185890913,1.0,0.34775587916374207,0.5507801319966883
155,0.0017646858468651772,1.0,0.3478403091430664,0.5507801319966883
156,0.0017402209341526031,1.0,0.3483245074748993,0.5507819280719306
157,0.0017168803606182337,1.0,0.3486939072608948,0.5508269970435533
158,0.0016948648262768984,1.0,0.3492264151573181,0.5508269970435533
159,0.0016717645339667797,1.0,0.3494781255722046,0.5508269970435533
160,0.0016501265345141292,1.0,0.34956440329551697,0.5508269970435533
161,0.0016286412719637156,1.0,0.3502499759197235,0.5508269970435533
162,0.0016071952413767576,1.0,0.3501783609390259,0.5508269970435533
163,0.0015866600442677736,1.0,0.3506884276866913,0.5369381081546645
164,0.0015664405655115843,1.0,0.3513033986091614,0.5369381081546645
165,0.0015467776684090495,1.0,0.35158807039260864,0.5369858331106463
166,0.0015277201309800148,1.0,0.3523313105106354,0.5369858331106463
167,0.0015082601457834244,1.0,0.35196828842163086,0.5405828737787653
168,0.0014891645405441523,1.0,0.3525220453739166,0.5405828737787653
169,0.0014708079397678375,1.0,0.35298678278923035,0.5405828737787653
170,0.001452682539820671,1.0,0.3532950282096863,0.5405828737787653
171,0.0014350323472172022,1.0,0.3537817597389221,0.5405828737787653
172,0.001417395193129778,1.0,0.35411563515663147,0.5405828737787653
173,0.0014003947144374251,1.0,0.35471343994140625,0.5405828737787653
174,0.0013837050646543503,1.0,0.3550201952457428,0.5405828737787653
175,0.0013671218184754252,1.0,0.354971319437027,0.5405828737787653
176,0.001350753358565271,1.0,0.3554885685443878,0.5266939848898765
177,0.0013349447399377823,1.0,0.3557080626487732,0.5266939848898765
178,0.0013192999176681042,1.0,0.35611334443092346,0.5266939848898765
179,0.0013040483463555574,1.0,0.3563321530818939,0.5266939848898765
180,0.001289260108023882,1.0,0.356916606426239,0.5294726405999481
181,0.0012743142433464527,1.0,0.3576972186565399,0.5294726405999481
182,0.0012596665183082223,1.0,0.3575461506843567,0.5266939848898765
183,0.0012452106457203627,1.0,0.3580487370491028,0.5294726405999481
184,0.0012312037870287895,1.0,0.35855361819267273,0.5294726405999481
185,0.0012173817958682775,1.0,0.3584935665130615,0.5294726405999481
186,0.0012043179012835026,1.0,0.35858622193336487,0.5294726405999481
187,0.0011908987071365118,1.0,0.3594145178794861,0.5294726405999481
188,0.0011775025632232428,1.0,0.35959839820861816,0.5294726405999481
189,0.0011643767356872559,1.0,0.3601585626602173,0.5294726405999481
190,0.0011520369444042444,1.0,0.36065149307250977,0.5294726405999481
191,0.0011395555920898914,1.0,0.3606034815311432,0.5294726405999481
192,0.0011270169634371996,1.0,0.3612172305583954,0.5294726405999481
193,0.0011148530757054687,1.0,0.3613281548023224,0.5294726405999481
194,0.0011031049070879817,1.0,0.36153939366340637,0.5294726405999481
195,0.0010911007411777973,1.0,0.36210161447525024,0.5364170850443926
196,0.001079689827747643,1.0,0.3626211881637573,0.5364170850443926
197,0.0010685732122510672,1.0,0.36271023750305176,0.5364170850443926
198,0.0010571674210950732,1.0,0.3631163239479065,0.5364170850443926
199,0.001046227989718318,1.0,0.36327433586120605,0.5364170850443926
200,0.001035461318679154,1.0,0.36365124583244324,0.5364170850443926
201,0.0010248377220705152,1.0,0.3637559413909912,0.5364495685392654
202,0.001014234614558518,1.0,0.3642689287662506,0.5364495685392654
203,0.0010039310436695814,1.0,0.3644494414329529,0.5364826373223343
204,0.0009938529692590237,1.0,0.36483633518218994,0.5364826373223343
205,0.0009839045815169811,1.0,0.3651752471923828,0.5364826373223343
206,0.0009739702800288796,1.0,0.36559775471687317,0.5364826373223343
207,0.0009642462246119976,1.0,0.36559394001960754,0.5365163073560043
208,0.0009545708307996392,1.0,0.36591270565986633,0.5365163073560043
209,0.0009451076621189713,1.0,0.3662245273590088,0.5365163073560043
210,0.0009358898969367146,1.0,0.36659908294677734,0.5365163073560043
211,0.0009267746936529875,1.0,0.3669232726097107,0.5365163073560043
212,0.0009179622284136713,1.0,0.3676353096961975,0.5364826373223343
213,0.0009086622158065438,1.0,0.3673906624317169,0.5365163073560043
214,0.0009002519072964787,1.0,0.3677029013633728,0.5365505951884573
215,0.0008914083009585738,1.0,0.3681999742984772,0.5365505951884573
216,0.0008827429846860468,1.0,0.3681795001029968,0.5365505951884573
217,0.0008744954830035567,1.0,0.3687502443790436,0.5365163073560043
218,0.0008661957690492272,1.0,0.3693203628063202,0.5365505951884573
219,0.0008579840650781989,1.0,0.3691875636577606,0.5365505951884573
220,0.0008498454699292779,1.0,0.36950966715812683,0.5365505951884573
221,0.0008419533260166645,1.0,0.36987394094467163,0.5365505951884573
222,0.0008341176435351372,1.0,0.37005719542503357,0.5365505951884573
223,0.0008264571661129594,1.0,0.3703078329563141,0.5365505951884573
224,0.000818768166936934,1.0,0.37072858214378357,0.5365505951884573
225,0.0008113090298138559,1.0,0.3708430826663971,0.5365505951884573
226,0.0008040778920985758,1.0,0.37145158648490906,0.5365505951884573
227,0.0007965849945321679,1.0,0.37148380279541016,0.5365505951884573
228,0.0007893837755545974,1.0,0.37198755145072937,0.5365505951884573
229,0.0007822952466085553,1.0,0.3722214996814728,0.5365505951884573
230,0.0007752240635454655,1.0,0.37219691276550293,0.5365505951884573
231,0.0007681690622121096,1.0,0.3727744221687317,0.5365505951884573
232,0.0007613295456394553,1.0,0.37299206852912903,0.5365505951884573
233,0.000754537817556411,1.0,0.37330499291419983,0.5365505951884573
234,0.0007480658823624253,1.0,0.3736562132835388,0.5365505951884573
235,0.0007413191488012671,1.0,0.3736427426338196,0.5365505951884573
236,0.0007348430808633566,1.0,0.3740474581718445,0.5365505951884573
237,0.0007288158521987498,1.0,0.3744794726371765,0.5365505951884573
238,0.000722118653357029,1.0,0.3739899694919586,0.5365505951884573
239,0.0007162234978750348,1.0,0.37432000041007996,0.5365505951884573
240,0.0007097366033121943,1.0,0.3753097951412201,0.5365505951884573
241,0.0007036138558760285,1.0,0.3753439486026764,0.5365505951884573
242,0.0006976209697313607,1.0,0.37535175681114197,0.5365505951884573
243,0.0006916254642419517,1.0,0.37581583857536316,0.5365505951884573
244,0.0006857722764834762,1.0,0.37615787982940674,0.5365505951884573
245,0.0006799183320254087,1.0,0.3763607144355774,0.5365505951884573
246,0.0006742099649272859,1.0,0.3765456974506378,0.5365533752829804
247,0.0006686931010335684,1.0,0.37676379084587097,0.5365533752829804
248,0.0006630647694692016,1.0,0.37712034583091736,0.5365533752829804
249,0.0006575581501238048,1.0,0.3773368299007416,0.5365055048694836
250,0.000652135000564158,1.0,0.3776978552341461,0.5365055048694836
251,0.0006467362400144339,1.0,0.37781938910484314,0.5365404276617969
252,0.0006414375966414809,1.0,0.37794700264930725,0.5365404276617969
253,0.0006362376734614372,1.0,0.3784264922142029,0.5365404276617969
254,0.0006312147015705705,1.0,0.37889888882637024,0.5365055048694836
255,0.0006259089568629861,1.0,0.3786908686161041,0.543535136656506
256,0.0006209612474776804,1.0,0.3790721893310547,0.543535136656506
257,0.0006159038748592138,1.0,0.37965869903564453,0.5365404276617969
258,0.0006109327077865601,1.0,0.37957924604415894,0.543535136656506
259,0.0006061320891603827,1.0,0.3799758553504944,0.543535136656506
260,0.0006014077225700021,1.0,0.3804972469806671,0.5365055048694836
261,0.0005964163574390113,1.0,0.38010627031326294,0.543535136656506
262,0.0005916375666856766,1.0,0.38035693764686584,0.543535136656506
263,0.0005866786232218146,1.0,0.38103094696998596,0.543535136656506
264,0.0005818489007651806,1.0,0.38100215792655945,0.543535136656506
265,0.0005771550349891186,1.0,0.381099134683609,0.5463129144342838
266,0.0005723963840864599,1.0,0.3816906809806824,0.543535136656506
267,0.0005677668377757072,1.0,0.38190555572509766,0.5365404276617969
268,0.0005632234388031065,1.0,0.38214656710624695,0.5463129144342838
269,0.0005586969200521708,1.0,0.3823779821395874,0.5393182054395748
270,0.0005542398430407047,1.0,0.3823721706867218,0.5463129144342838
271,0.0005499099497683346,1.0,0.3827386498451233,0.5463129144342838
272,0.0005456310464069247,1.0,0.38305798172950745,0.5463116206393243
273,0.0005413777544163167,1.0,0.38348740339279175,0.5435338428615464
274,0.0005371635779738426,1.0,0.3837488293647766,0.5365391338668374
275,0.0005330805433914065,1.0,0.3839399814605713,0.5435338428615464
276,0.0005289961700327694,1.0,0.38419538736343384,0.5435338428615464
277,0.0005249458481557667,1.0,0.3842129111289978,0.5435338428615464
278,0.0005209625232964754,1.0,0.38448312878608704,0.5365391338668374
279,0.0005170337972231209,1.0,0.3847574293613434,0.5435338428615464
280,0.0005131714278832078,1.0,0.38509121537208557,0.5435338428615464
281,0.0005093049257993698,1.0,0.3853885233402252,0.5365391338668374
282,0.0005055416841059923,1.0,0.3854653835296631,0.5435338428615464
283,0.0005017784424126148,1.0,0.3859016001224518,0.5435338428615464
284,0.0004980109515599906,1.0,0.38603365421295166,0.5435338428615464
285,0.0004943899111822248,1.0,0.38634300231933594,0.5365391338668374
286,0.0004907656693831086,1.0,0.38647836446762085,0.5435338428615464
287,0.00048723260988481343,1.0,0.38671043515205383,0.5435338428615464
288,0.0004838803724851459,1.0,0.3871532380580902,0.5365391338668374
289,0.0004801612813025713,1.0,0.3868533670902252,0.5435338428615464
290,0.0004768916987814009,1.0,0.38713523745536804,0.5435338428615464
291,0.00047325651394203305,1.0,0.38793864846229553,0.5435338428615464
292,0.0004699362616520375,1.0,0.38802769780158997,0.5435338428615464
293,0.00046649808064103127,1.0,0.38788071274757385,0.5435338428615464
294,0.00046320015098899603,1.0,0.38801729679107666,0.5435338428615464
295,0.000459965318441391,1.0,0.3882852792739868,0.5435338428615464
296,0.0004566701827570796,1.0,0.3887510895729065,0.5435338428615464
297,0.0004534776380751282,1.0,0.3889634311199188,0.5463116206393243
298,0.00045033416245132685,1.0,0.38935285806655884,0.5435338428615464
299,0.00044721789890900254,1.0,0.3895185887813568,0.5435338428615464
300,0.0004440627235453576,1.0,0.38937488198280334,0.5463116206393243
301,0.00044093537144362926,1.0,0.38988086581230164,0.5435338428615464
302,0.00043789990013465285,1.0,0.3900326192378998,0.5435338428615464
303,0.0004348854417912662,1.0,0.3902796804904938,0.5435338428615464
304,0.00043199420906603336,1.0,0.39055880904197693,0.5435338428615464
305,0.0004289641510695219,1.0,0.39035481214523315,0.5435694184163329
306,0.00042603351175785065,1.0,0.39064276218414307,0.5435694184163329
307,0.00042314117308706045,1.0,0.3909981846809387,0.5435694184163329
308,0.00042027252493426204,1.0,0.39136257767677307,0.5435694184163329
309,0.0004174041096121073,1.0,0.39141589403152466,0.5435694184163329
310,0.0004146289429627359,1.0,0.39191344380378723,0.5435694184163329
311,0.0004117920179851353,1.0,0.3919025659561157,0.5435694184163329
312,0.0004090159200131893,1.0,0.3921440839767456,0.5435694184163329
313,0.00040631007868796587,1.0,0.3926149606704712,0.5435694184163329
314,0.00040355470264330506,1.0,0.3926612436771393,0.5435694184163329
315,0.0004008782561868429,1.0,0.3928634822368622,0.5435694184163329
316,0.0003982702037319541,1.0,0.39317190647125244,0.5435694184163329
317,0.00039558333810418844,1.0,0.39313212037086487,0.5435694184163329
318,0.0003929317754227668,1.0,0.3934992551803589,0.5435694184163329
319,0.0003903235192410648,1.0,0.3936381936073303,0.5435694184163329
320,0.00038779250462539494,1.0,0.39388394355773926,0.5435694184163329
321,0.00038534088525921106,1.0,0.3943289816379547,0.5435694184163329
322,0.0003827240434475243,1.0,0.39411813020706177,0.5435694184163329
323,0.0003802080173045397,1.0,0.39446747303009033,0.5435694184163329
324,0.0003777731326408684,1.0,0.3949599266052246,0.5435694184163329
325,0.00037527421955019236,1.0,0.3948005735874176,0.5435694184163329
326,0.0003728392184711993,1.0,0.39498254656791687,0.5435694184163329
327,0.00037044749478809536,1.0,0.3952679932117462,0.5435694184163329
328,0.00036808138247579336,1.0,0.39522498846054077,0.5435694184163329
329,0.00036570755764842033,1.0,0.39560434222221375,0.5435694184163329
330,0.00036335893673822284,1.0,0.39566710591316223,0.5435694184163329
331,0.000361066369805485,1.0,0.39584842324256897,0.5435694184163329
332,0.0003588356194086373,1.0,0.39636626839637756,0.5435694184163329
333,0.00035644654417410493,1.0,0.3961760997772217,0.5435694184163329
334,0.0003543133498169482,1.0,0.39642590284347534,0.5435694184163329
335,0.00035199071862734854,1.0,0.3969729542732239,0.5435694184163329
336,0.0003497821162454784,1.0,0.3968154489994049,0.5435694184163329
337,0.00034760788548737764,1.0,0.3968328535556793,0.5435694184163329
338,0.0003453901153989136,1.0,0.39727550745010376,0.5435694184163329
339,0.0003432363737374544,1.0,0.39750730991363525,0.5435694184163329
340,0.00034112183493562043,1.0,0.3974946141242981,0.5435694184163329
341,0.0003390001365914941,1.0,0.3978668451309204,0.5435694184163329
342,0.000336873548803851,1.0,0.3981936573982239,0.5435694184163329
343,0.0003348026657477021,1.0,0.39838460087776184,0.5435694184163329
344,0.0003327624872326851,1.0,0.39836493134498596,0.5435694184163329
345,0.00033071445068344474,1.0,0.3986159861087799,0.5435694184163329
346,0.00032871178700588644,1.0,0.3989488184452057,0.5435694184163329
347,0.0003267453284934163,1.0,0.3992634117603302,0.5435694184163329
348,0.0003247099812142551,1.0,0.3993019163608551,0.5435694184163329
349,0.00032272242242470384,1.0,0.39955583214759827,0.5435694184163329
350,0.00032077054493129253,1.0,0.3994466960430145,0.5435694184163329
351,0.00031878548907116055,1.0,0.3996899425983429,0.5435694184163329
352,0.0003168904222548008,1.0,0.3999680280685425,0.5435694184163329
353,0.00031500268960371614,1.0,0.4000459313392639,0.5435694184163329
354,0.00031311955535784364,1.0,0.40039849281311035,0.5435694184163329
355,0.0003112120903097093,1.0,0.4004739224910736,0.5435694184163329
356,0.00030934796086512506,1.0,0.4007345736026764,0.5435694184163329
357,0.00030750164296478033,1.0,0.4006941318511963,0.5435694184163329
358,0.0003057178109884262,1.0,0.4007912278175354,0.5435694184163329
359,0.0003038813592866063,1.0,0.40114718675613403,0.5435694184163329
360,0.0003020774747710675,1.0,0.4011138081550598,0.5435694184163329
361,0.0003002902085427195,1.0,0.40150898694992065,0.5435694184163329
362,0.00029853268642909825,1.0,0.4017753303050995,0.5435694184163329
363,0.00029679376166313887,1.0,0.40206414461135864,0.5435694184163329
364,0.0002950374619103968,1.0,0.40194323658943176,0.5435694184163329
365,0.00029329105746001005,1.0,0.4022623896598816,0.5435694184163329
366,0.00029164395527914166,1.0,0.40258827805519104,0.5435694184163329
367,0.00028988972189836204,1.0,0.40241676568984985,0.5436133804455889
368,0.0002881907857954502,1.0,0.40254929661750793,0.5436133804455889
369,0.00028653271147049963,1.0,0.40271326899528503,0.5436133804455889
370,0.00028490429394878447,1.0,0.40310779213905334,0.5436133804455889
371,0.00028330559143796563,1.0,0.40352457761764526,0.5436133804455889
372,0.0002815994084812701,1.0,0.4031873345375061,0.5436133804455889
373,0.00028004866908304393,1.0,0.40339145064353943,0.5436133804455889
374,0.0002784603275358677,1.0,0.40394312143325806,0.5436133804455889
375,0.00027681305073201656,1.0,0.4038289189338684,0.5436488360270872
376,0.00027532546664588153,1.0,0.4038664698600769,0.5436488360270872
377,0.0002736503374762833,1.0,0.4043375849723816,0.5436488360270872
378,0.0002721013152040541,1.0,0.40434420108795166,0.5436488360270872
379,0.00027058940031565726,1.0,0.4044772982597351,0.5436488360270872
380,0.00026902445824816823,1.0,0.40489017963409424,0.5436488360270872
381,0.0002675293944776058,1.0,0.4049589931964874,0.5436488360270872
382,0.00026601628633216023,1.0,0.40501970052719116,0.5428386508419021
383,0.0002644939231686294,1.0,0.4053766429424286,0.5436488360270872
384,0.00026301079196855426,1.0,0.4054502248764038,0.5436488360270872
385,0.00026153933140449226,1.0,0.4054955542087555,0.5436488360270872
386,0.0002601001178845763,1.0,0.4056396782398224,0.5436488360270872
387,0.0002586348564364016,1.0,0.40610504150390625,0.5436488360270872
388,0.0002571715449448675,1.0,0.40609800815582275,0.5436488360270872
389,0.00025572534650564194,1.0,0.40627530217170715,0.5428386508419021
390,0.00025433895643800497,1.0,0.40628018975257874,0.5428386508419021
391,0.0002529473858885467,1.0,0.40635719895362854,0.5428386508419021
392,0.0002516075619496405,1.0,0.40686920285224915,0.5436488360270872
393,0.00025014253333210945,1.0,0.4067077040672302,0.5428386508419021
394,0.00024883513106033206,1.0,0.4069455564022064,0.5428386508419021
395,0.00024742988171055913,1.0,0.40746888518333435,0.5428386508419021
396,0.00024606427177786827,1.0,0.40733641386032104,0.5428748976335711
397,0.00024472008226439357,1.0,0.40737152099609375,0.5428386508419021
398,0.0002433746849419549,1.0,0.40763887763023376,0.5428386508419021
399,0.0002420688688289374,1.0,0.4078964591026306,0.5428748976335711
400,0.00024077261332422495,1.0,0.40806055068969727,0.5428748976335711
401,0.0002394537441432476,1.0,0.4080188274383545,0.545652675411349
402,0.00023817349574528635,1.0,0.40838685631752014,0.5428748976335711
403,0.0002368649875279516,1.0,0.40839722752571106,0.5428748976335711
404,0.00023560100817121565,1.0,0.4086431860923767,0.5428386508419021
405,0.00023432796297129244,1.0,0.4087080657482147,0.545652675411349
406,0.00023307315132115036,1.0,0.40893620252609253,0.5428748976335711
407,0.00023182919539976865,1.0,0.40909191966056824,0.545652675411349
408,0.0002305986126884818,1.0,0.4093288481235504,0.5428748976335711
409,0.00022939294285606593,1.0,0.40957632660865784,0.5428748976335711
410,0.00022815223201178014,1.0,0.40944766998291016,0.545652675411349
411,0.00022694813378620893,1.0,0.4097961485385895,0.545652675411349
412,0.0002257541927974671,1.0,0.4100518524646759,0.5428748976335711
413,0.00022457698651123792,1.0,0.4099802076816559,0.545652675411349
414,0.00022338307462632656,1.0,0.41026344895362854,0.5428748976335711
415,0.00022219537640921772,1.0,0.4104238748550415,0.5428748976335711
416,0.00022104123490862548,1.0,0.4106296896934509,0.5428748976335711
417,0.00021988627850078046,1.0,0.4108707010746002,0.5428748976335711
418,0.00021878648840356618,1.0,0.41105905175209045,0.5428748976335711
419,0.00021760372328571975,1.0,0.4107813239097595,0.545652675411349
420,0.0002164631150662899,1.0,0.4112045168876648,0.5428748976335711
421,0.00021534165716730058,1.0,0.4114154875278473,0.5428748976335711
422,0.00021425752493087202,1.0,0.4114183783531189,0.545652675411349
423,0.0002131307846866548,1.0,0.4117013216018677,0.5428748976335711
424,0.00021201986237429082,1.0,0.41173017024993896,0.545652675411349
425,0.0002109366760123521,1.0,0.412071168422699,0.545652675411349
426,0.00020988966571167111,1.0,0.41231727600097656,0.5428748976335711
427,0.00020878444775007665,1.0,0.4121054708957672,0.545652675411349
428,0.00020773368305526674,1.0,0.412321001291275,0.545652675411349
429,0.0002066717715933919,1.0,0.4128343462944031,0.5428748976335711
430,0.00020560712437145412,1.0,0.4128037989139557,0.545652675411349
431,0.0002045768196694553,1.0,0.4128349721431732,0.545652675411349
432,0.00020352148567326367,1.0,0.4132431745529175,0.5428748976335711
433,0.000202473413082771,1.0,0.4133789837360382,0.5428748976335711
434,0.00020144760492257774,1.0,0.4134005606174469,0.545652675411349
435,0.00020043840049766004,1.0,0.41355934739112854,0.5428748976335711
436,0.00019942192011512816,1.0,0.4136909544467926,0.545652675411349
437,0.0001984153059311211,1.0,0.4138420820236206,0.545652675411349
438,0.00019743037410080433,1.0,0.4139510989189148,0.545652675411349
439,0.00019643519772216678,1.0,0.41406381130218506,0.545652675411349
440,0.00019545838586054742,1.0,0.4143619239330292,0.545652675411349
441,0.00019448484817985445,1.0,0.4143839180469513,0.545652675411349
442,0.00019349997455719858,1.0,0.41469961404800415,0.545652675411349
443,0.0001925491087604314,1.0,0.41480696201324463,0.545652675411349
444,0.0001915917673613876,1.0,0.4150286912918091,0.545652675411349
445,0.00019063358195126057,1.0,0.41513529419898987,0.5451456207376276
446,0.00018970423843711615,1.0,0.4154093861579895,0.5451825579443761
447,0.0001888002298073843,1.0,0.41557157039642334,0.545652675411349
448,0.00018782757979352027,1.0,0.41551169753074646,0.5451456207376276
449,0.0001868944091256708,1.0,0.41582047939300537,0.545652675411349
450,0.00018599562463350594,1.0,0.4160171151161194,0.5451825579443761
451,0.00018508739594835788,1.0,0.4161912798881531,0.5451825579443761
452,0.0001841987977968529,1.0,0.4164389669895172,0.5451825579443761
453,0.0001832777343224734,1.0,0.4163108766078949,0.5451825579443761
454,0.00018240534700453281,1.0,0.41663798689842224,0.5429118348403197
455,0.00018150187679566443,1.0,0.41672423481941223,0.5451825579443761
456,0.0001806386571843177,1.0,0.4168645739555359,0.5451825579443761
457,0.00017974840011447668,1.0,0.4170505702495575,0.5424047801665983
458,0.00017886111163534224,1.0,0.4170290231704712,0.5451825579443761
459,0.00017800185014493763,1.0,0.4171964228153229,0.5451825579443761
460,0.0001771409879438579,1.0,0.41738471388816833,0.5451825579443761
461,0.000176289671799168,1.0,0.4174880087375641,0.5451825579443761
462,0.00017543627473060042,1.0,0.4178178608417511,0.5451825579443761
463,0.00017458733054809272,1.0,0.4177992045879364,0.5451825579443761
464,0.0001737445272738114,1.0,0.41788962483406067,0.5451825579443761
465,0.00017291546100750566,1.0,0.4180704653263092,0.5451825579443761
466,0.00017209458746947348,1.0,0.4182738959789276,0.5451825579443761
467,0.00017129749176092446,1.0,0.41850546002388,0.5424047801665983
468,0.00017045691492967308,1.0,0.4184252619743347,0.5451825579443761
469,0.0001696481922408566,1.0,0.4188426733016968,0.5451825579443761
470,0.0001688372140051797,1.0,0.4191363751888275,0.5424047801665983
471,0.0001680231507634744,1.0,0.41912275552749634,0.5451825579443761
472,0.00016722179134376347,1.0,0.4193147122859955,0.5451825579443761
473,0.00016642891569063067,1.0,0.4195057451725006,0.5451825579443761
474,0.0001656372332945466,1.0,0.4196484088897705,0.5451825579443761
475,0.00016486660751979798,1.0,0.4199618399143219,0.5424047801665983
476,0.00016407397924922407,1.0,0.4198973476886749,0.5451825579443761
477,0.00016331208462361246,1.0,0.42024415731430054,0.5424047801665983
478,0.00016256255912594497,1.0,0.42062994837760925,0.5424047801665983
479,0.0001617704110685736,1.0,0.4204263985157013,0.5451825579443761
480,0.0001610333565622568,1.0,0.42062580585479736,0.5451825579443761
481,0.0001602724369149655,1.0,0.4210934042930603,0.5424047801665983
482,0.0001595177163835615,1.0,0.42097336053848267,0.5451825579443761
483,0.00015878395061008632,1.0,0.42100948095321655,0.5451825579443761
484,0.00015802255074959248,1.0,0.42132800817489624,0.5451825579443761
485,0.00015729351434856653,1.0,0.4214624762535095,0.5451825579443761
486,0.0001565745915286243,1.0,0.42152753472328186,0.5451825579443761
487,0.00015583488857373595,1.0,0.4217436611652374,0.5451762641655914
488,0.00015512012760154903,1.0,0.422000527381897,0.5451762641655914
489,0.00015439682465512305,1.0,0.4220324754714966,0.5451762641655914
490,0.00015368795720860362,1.0,0.42215895652770996,0.5451762641655914
491,0.00015298134530894458,1.0,0.4223499000072479,0.5423984863878135
492,0.00015228361007757485,1.0,0.422466903924942,0.5423984863878135
493,0.00015159783652052283,1.0,0.42258623242378235,0.5423984863878135
494,0.0001509125140728429,1.0,0.4228892922401428,0.5423984863878135
495,0.000150205465615727,1.0,0.4228132367134094,0.5423984863878135
496,0.0001495174947194755,1.0,0.42310336232185364,0.5423984863878135
497,0.000148837105371058,1.0,0.4232519865036011,0.5423984863878135
498,0.00014816378825344145,1.0,0.4234253466129303,0.5423984863878135
499,0.0001475052413297817,1.0,0.423563152551651,0.5423984863878135
500,0.00014683647896163166,1.0,0.4235798120498657,0.5423984863878135
501,0.000146169972140342,1.0,0.42396482825279236,0.5423984863878135
502,0.00014551475760526955,1.0,0.42409616708755493,0.5423984863878135
503,0.00014484906569123268,1.0,0.4242822229862213,0.5423984863878135
504,0.0001442031643819064,1.0,0.4243398606777191,0.5423984863878135
505,0.00014356477186083794,1.0,0.424530953168869,0.5423984863878135
506,0.00014292591367848217,1.0,0.4248029291629791,0.5423984863878135
507,0.0001422849454684183,1.0,0.42480167746543884,0.5423984863878135
508,0.00014164071762934327,1.0,0.42506951093673706,0.5423984863878135
509,0.00014100992120802402,1.0,0.42510485649108887,0.5423984863878135
510,0.00014038386871106923,1.0,0.4252282381057739,0.5423984863878135
511,0.00013975871843285859,1.0,0.4254091680049896,0.5423984863878135
512,0.00013914151350036263,1.0,0.425710529088974,0.5423984863878135
513,0.00013852634583599865,1.0,0.42578867077827454,0.5423984863878135
514,0.00013792388199362904,1.0,0.4258873462677002,0.536842930832258
515,0.00013732726802118123,1.0,0.42622652649879456,0.536842930832258
516,0.00013670149201061577,1.0,0.42608577013015747,0.536842930832258
517,0.0001361084432573989,1.0,0.42622843384742737,0.536842930832258
518,0.000135493217385374,1.0,0.4264485836029053,0.536842930832258
519,0.00013491087884176522,1.0,0.4265786409378052,0.536842930832258
520,0.0001343217008979991,1.0,0.4266846477985382,0.536842930832258
521,0.00013373469118960202,1.0,0.42690137028694153,0.536842930832258
522,0.00013316396507434547,1.0,0.4271523952484131,0.536842930832258
523,0.00013256954844109714,1.0,0.42703860998153687,0.536842930832258
524,0.00013200155808590353,1.0,0.4271773397922516,0.536842930832258
525,0.00013142613170202821,1.0,0.42736518383026123,0.536842930832258
526,0.00013086010585539043,1.0,0.42758673429489136,0.536842930832258
527,0.0001302857417613268,1.0,0.4278481602668762,0.536842930832258
528,0.00012971294927410781,1.0,0.427932471036911,0.536842930832258
529,0.00012915507249999791,1.0,0.42813780903816223,0.536842930832258
530,0.00012859157868660986,1.0,0.42814362049102783,0.536842930832258
531,0.0001280296128243208,1.0,0.4282447397708893,0.536842930832258
532,0.00012747201253660023,1.0,0.4282971918582916,0.536842930832258
533,0.00012692611198872328,1.0,0.42855122685432434,0.536842930832258
534,0.00012638483894988894,1.0,0.42876821756362915,0.536842930832258
535,0.00012582710769493133,1.0,0.42883947491645813,0.536842930832258
536,0.0001252881484106183,1.0,0.42901483178138733,0.536842930832258
537,0.00012474598770495504,1.0,0.4290943741798401,0.536842930832258
538,0.00012421309656929225,1.0,0.4293852746486664,0.536842930832258
539,0.00012368892203085124,1.0,0.42946186661720276,0.536842930832258
540,0.00012316755601204932,1.0,0.4296058416366577,0.536842930832258
541,0.00012261667870916426,1.0,0.42953383922576904,0.536842930832258
542,0.0001220951962750405,1.0,0.429840624332428,0.5368821009912038
543,0.00012156982120359316,1.0,0.4300227165222168,0.5368821009912038
544,0.00012104087363695726,1.0,0.43011996150016785,0.536842930832258
545,0.00012053589307470247,1.0,0.4301944673061371,0.536842930832258
546,0.0001200256883748807,1.0,0.43020927906036377,0.536842930832258
547,0.00011950720363529399,1.0,0.4303683638572693,0.536842930832258
548,0.00011900589743163437,1.0,0.4305334687232971,0.536842930832258
549,0.00011850371083710343,1.0,0.43070662021636963,0.536842930832258
550,0.00011800842912634835,1.0,0.4310382008552551,0.536842930832258
551,0.0001175058787339367,1.0,0.4310081899166107,0.536842930832258
552,0.00011700077448040247,1.0,0.43112683296203613,0.536842930832258
553,0.00011650676606222987,1.0,0.4312281012535095,0.536842930832258
554,0.00011602362792473286,1.0,0.43139344453811646,0.536842930832258
555,0.00011552724754437804,1.0,0.4314655363559723,0.536842930832258
556,0.00011504493886604905,1.0,0.4316313862800598,0.536842930832258
557,0.00011457728396635503,1.0,0.4316501319408417,0.536842930832258
558,0.00011409060243749991,1.0,0.4319230616092682,0.5368821009912038
559,0.0001136122882599011,1.0,0.4320300221443176,0.536842930832258
560,0.00011313596769468859,1.0,0.43218350410461426,0.536842930832258
561,0.00011267415538895875,1.0,0.43240121006965637,0.536842930832258
562,0.00011219516454730183,1.0,0.43263521790504456,0.5368821009912038
563,0.00011174403334734961,1.0,0.4327625334262848,0.5368821009912038
564,0.00011127437755931169,1.0,0.4326273202896118,0.5368821009912038
565,0.00011080373224103823,1.0,0.43290451169013977,0.536842930832258
566,0.00011035347415599972,1.0,0.4331189692020416,0.536842930832258
567,0.00010990258306264877,1.0,0.4331625699996948,0.536842930832258
568,0.00010946167458314449,1.0,0.4332975745201111,0.5368805783699055
569,0.00010900074266828597,1.0,0.433262437582016,0.5368805783699055
570,0.00010854832362383604,1.0,0.43352606892585754,0.536842930832258
571,0.00010810942330863327,1.0,0.43362316489219666,0.5368805783699055
572,0.00010766456398414448,1.0,0.4337153136730194,0.5368805783699055
573,0.0001072343293344602,1.0,0.43399927020072937,0.5368683081996334
574,0.00010679010301828384,1.0,0.4339883029460907,0.5368683081996334
575,0.00010635093349264935,1.0,0.43420854210853577,0.5368306606619858
576,0.00010591538739390671,1.0,0.4343980848789215,0.5368306606619858
577,0.0001054975000442937,1.0,0.4344608783721924,0.5368306606619858
578,0.00010507408296689391,1.0,0.4346945583820343,0.536842930832258
579,0.00010463436774443835,1.0,0.4346538782119751,0.5368805783699055
580,0.00010420710896141827,1.0,0.43484562635421753,0.5368805783699055
581,0.00010378294973634183,1.0,0.4350918233394623,0.5368683081996334
582,0.0001033645385177806,1.0,0.4351709485054016,0.5368683081996334
583,0.00010294671665178612,1.0,0.4352055490016937,0.5368683081996334
584,0.00010253776417812333,1.0,0.4353969395160675,0.5368683081996334
585,0.00010213401401415467,1.0,0.4355641305446625,0.5368683081996334
586,0.00010171857138630003,1.0,0.435791939496994,0.5368805783699055
587,0.0001013014989439398,1.0,0.43567702174186707,0.5368683081996334
588,0.00010090006981045008,1.0,0.4358961582183838,0.5368805783699055
589,0.00010050075070466846,1.0,0.43607205152511597,0.5368805783699055
590,0.00010010339610744268,1.0,0.43618372082710266,0.5368683081996334
591,9.970308747142553e-05,1.0,0.4364124834537506,0.5368683081996334
592,9.92952409433201e-05,1.0,0.43637752532958984,0.5368683081996334
593,9.890303044812754e-05,1.0,0.43665820360183716,0.5368683081996334
594,9.852639777818695e-05,1.0,0.4368397295475006,0.5368805783699055
595,9.812848293222487e-05,1.0,0.4367077350616455,0.5368683081996334
596,9.774447971722111e-05,1.0,0.4369265139102936,0.5368683081996334
597,9.735907951835543e-05,1.0,0.43724530935287476,0.5368805783699055
598,9.695746848592535e-05,1.0,0.4371776282787323,0.5368683081996334
599,9.658582712290809e-05,1.0,0.4371702969074249,0.5368683081996334
600,9.620208584237844e-05,1.0,0.43734362721443176,0.5368683081996334
601,9.582680650055408e-05,1.0,0.4375966489315033,0.5368683081996334
602,9.544782369630411e-05,1.0,0.43787330389022827,0.5368683081996334
603,9.507568756816909e-05,1.0,0.438015878200531,0.5368683081996334
604,9.470534132560715e-05,1.0,0.4381534457206726,0.5368683081996334
605,9.433562809135765e-05,1.0,0.43812295794487,0.5368683081996334
606,9.396154200658202e-05,1.0,0.4383322596549988,0.5368683081996334
607,9.359003161080182e-05,1.0,0.4383852183818817,0.5368683081996334
608,9.32286202441901e-05,1.0,0.43847349286079407,0.5368683081996334
609,9.287151624448597e-05,1.0,0.4386509656906128,0.5368683081996334
610,9.251919982489198e-05,1.0,0.4388376772403717,0.5368805783699055
611,9.214201418217272e-05,1.0,0.4387508034706116,0.5368683081996334
612,9.178734035231173e-05,1.0,0.43899163603782654,0.5368683081996334
613,9.143314673565328e-05,1.0,0.4391217827796936,0.5368683081996334
614,9.108686936087906e-05,1.0,0.43920955061912537,0.5368683081996334
615,9.073842375073582e-05,1.0,0.43942680954933167,0.5368683081996334
616,9.037498966790736e-05,1.0,0.4394260048866272,0.5368683081996334
617,9.002565639093518e-05,1.0,0.43967023491859436,0.5368683081996334
618,8.968362089945003e-05,1.0,0.4397381842136383,0.5368683081996334
619,8.93416945473291e-05,1.0,0.43982306122779846,0.5368683081996334
620,8.900046668713912e-05,1.0,0.4400804340839386,0.5368805783699055
621,8.865548443282023e-05,1.0,0.4400050640106201,0.5368683081996334
622,8.831039303913713e-05,1.0,0.44010165333747864,0.5368683081996334
623,8.79776052897796e-05,1.0,0.44023433327674866,0.5368683081996334
624,8.763741789152846e-05,1.0,0.4404301643371582,0.5368805783699055
625,8.730406989343464e-05,1.0,0.4405125677585602,0.5368805783699055
626,8.698587771505117e-05,1.0,0.4407745897769928,0.5368805783699055
627,8.664072083774954e-05,1.0,0.4407031834125519,0.5368805783699055
628,8.63214154378511e-05,1.0,0.44086846709251404,0.5368805783699055
629,8.598154818173498e-05,1.0,0.4412214756011963,0.5368805783699055
630,8.565666212234646e-05,1.0,0.4412609934806824,0.5368683081996334
631,8.533299114787951e-05,1.0,0.44136127829551697,0.5368805783699055
632,8.500659896526486e-05,1.0,0.44148603081703186,0.5368805783699055
633,8.468484156765044e-05,1.0,0.4416262209415436,0.5368805783699055
634,8.436807547695935e-05,1.0,0.4418712258338928,0.5368805783699055
635,8.404637628700584e-05,1.0,0.4419551491737366,0.5368805783699055
636,8.373201126232743e-05,1.0,0.44209471344947815,0.5368805783699055
637,8.340769272763282e-05,1.0,0.4420124292373657,0.5368805783699055
638,8.309556869789958e-05,1.0,0.4421481192111969,0.5368805783699055
639,8.27829644549638e-05,1.0,0.44228988885879517,0.5368805783699055
640,8.247621008194983e-05,1.0,0.4424148201942444,0.5368683081996334
641,8.216653077397496e-05,1.0,0.44257304072380066,0.5368805783699055
642,8.186253398889676e-05,1.0,0.44258448481559753,0.5368805783699055
643,8.155772229656577e-05,1.0,0.4428119957447052,0.5368805783699055
644,8.124698069877923e-05,1.0,0.44291555881500244,0.5368805783699055
645,8.094571239780635e-05,1.0,0.4430883824825287,0.5368805783699055
646,8.064077701419592e-05,1.0,0.4430772662162781,0.5368805783699055
647,8.034394704736769e-05,1.0,0.4434065520763397,0.5368805783699055
648,8.0044315836858e-05,1.0,0.44340187311172485,0.5368805783699055
649,7.974754407769069e-05,1.0,0.44346967339515686,0.5368805783699055
650,7.945721154101193e-05,1.0,0.44360023736953735,0.5368805783699055
651,7.916617323644459e-05,1.0,0.44371241331100464,0.5368805783699055
652,7.885996456025168e-05,1.0,0.4439656436443329,0.5368805783699055
653,7.857500168029219e-05,1.0,0.44398820400238037,0.5368805783699055
654,7.82837305450812e-05,1.0,0.4441109895706177,0.5368805783699055
655,7.799093873472884e-05,1.0,0.4441356062889099,0.5368805783699055
656,7.771361561026424e-05,1.0,0.4442782402038574,0.5368805783699055
657,7.741822628304362e-05,1.0,0.44433727860450745,0.5368805783699055
658,7.713486411375925e-05,1.0,0.4446355402469635,0.5368805783699055
659,7.686188473599032e-05,1.0,0.4447469115257263,0.5368805783699055
660,7.65725490055047e-05,1.0,0.4445997476577759,0.5368805783699055
661,7.628769526490942e-05,1.0,0.4448723793029785,0.5368805783699055
662,7.601786637678742e-05,1.0,0.4451785087585449,0.5368805783699055
663,7.573292532470077e-05,1.0,0.4449508488178253,0.5368805783699055
664,7.545923290308565e-05,1.0,0.44509854912757874,0.5368805783699055
665,7.51795741962269e-05,1.0,0.44557851552963257,0.5368805783699055
666,7.490467396564782e-05,1.0,0.4455302655696869,0.5368805783699055
667,7.463668589480221e-05,1.0,0.4455142021179199,0.5368805783699055
668,7.435432053171098e-05,1.0,0.4458170533180237,0.5368805783699055
669,7.409018144244328e-05,1.0,0.4458657503128052,0.5368805783699055
670,7.381696195807308e-05,1.0,0.4459650218486786,0.5368805783699055
671,7.355469278991222e-05,1.0,0.4462686777114868,0.5368805783699055
672,7.328198989853263e-05,1.0,0.4462246894836426,0.5368805783699055
673,7.30190658941865e-05,1.0,0.44626930356025696,0.5368805783699055
674,7.275640382431448e-05,1.0,0.4465748071670532,0.5368805783699055
675,7.249019108712673e-05,1.0,0.4464832842350006,0.5368805783699055
676,7.22379409126006e-05,1.0,0.44659438729286194,0.5368805783699055
677,7.1975591708906e-05,1.0,0.44696250557899475,0.5368805783699055
678,7.171358447521925e-05,1.0,0.4468744099140167,0.5368805783699055
679,7.145694689825177e-05,1.0,0.44693687558174133,0.5368805783699055
680,7.11982575012371e-05,1.0,0.4472472369670868,0.5368805783699055
681,7.093662134138867e-05,1.0,0.44723570346832275,0.5368805783699055
682,7.068806735333055e-05,1.0,0.44731611013412476,0.5368805783699055
683,7.043237565085292e-05,1.0,0.44756999611854553,0.5368805783699055
684,7.017626194283366e-05,1.0,0.44760289788246155,0.5368805783699055
685,6.992623093537986e-05,1.0,0.4476051330566406,0.5368805783699055
686,6.967704393900931e-05,1.0,0.44777339696884155,0.5368805783699055
687,6.942210893612355e-05,1.0,0.44792741537094116,0.5368805783699055
688,6.918246072018519e-05,1.0,0.44792652130126953,0.5368805783699055
689,6.893569661770016e-05,1.0,0.4481472969055176,0.5368805783699055
690,6.86839921399951e-05,1.0,0.4482322335243225,0.5368805783699055
691,6.844071322120726e-05,1.0,0.4483734369277954,0.5368805783699055
692,6.82012687320821e-05,1.0,0.4484817087650299,0.5368805783699055
693,6.795629451517016e-05,1.0,0.4486464560031891,0.5368805783699055
694,6.771593325538561e-05,1.0,0.4485931992530823,0.5368805783699055
695,6.74731345498003e-05,1.0,0.4488288462162018,0.5368805783699055
696,6.723818660248071e-05,1.0,0.4489384889602661,0.5368805783699055
697,6.699857476633042e-05,1.0,0.4490528106689453,0.5368805783699055
698,6.676103657810017e-05,1.0,0.44913971424102783,0.5368805783699055
699,6.652916636085138e-05,1.0,0.44929471611976624,0.5368805783699055
700,6.629362906096503e-05,1.0,0.4493838846683502,0.5368805783699055
701,6.606290116906166e-05,1.0,0.4495556652545929,0.5368805783699055
702,6.583184585906565e-05,1.0,0.4494779407978058,0.5368805783699055
703,6.559330358868465e-05,1.0,0.44971615076065063,0.5368805783699055
704,6.536286673508584e-05,1.0,0.44981491565704346,0.5368805783699055
705,6.514511187560856e-05,1.0,0.44993194937705994,0.5368805783699055
706,6.491389649454504e-05,1.0,0.45029401779174805,0.5368805783699055
707,6.468037463491783e-05,1.0,0.45024338364601135,0.5368805783699055
708,6.445609324146062e-05,1.0,0.45038169622421265,0.5368805783699055
709,6.42320592305623e-05,1.0,0.45057404041290283,0.5368805783699055
710,6.400315032806247e-05,1.0,0.4506239891052246,0.5368805783699055
711,6.378523539751768e-05,1.0,0.4507400095462799,0.5368805783699055
712,6.356080120895058e-05,1.0,0.45078590512275696,0.5368805783699055
713,6.333788769552484e-05,1.0,0.4509369432926178,0.5368805783699055
714,6.312395998975262e-05,1.0,0.4509076178073883,0.5368805783699055
715,6.28929992672056e-05,1.0,0.45111241936683655,0.5368805783699055
716,6.26786713837646e-05,1.0,0.45132651925086975,0.5368805783699055
717,6.246675184229389e-05,1.0,0.45149776339530945,0.5368805783699055
718,6.224799290066585e-05,1.0,0.45139259099960327,0.5368805783699055
719,6.203010707395151e-05,1.0,0.4516071677207947,0.5368805783699055
720,6.181650678627193e-05,1.0,0.45178207755088806,0.5368805783699055
721,6.16012403042987e-05,1.0,0.45171526074409485,0.5368805783699055
722,6.139172910479829e-05,1.0,0.4518345296382904,0.5368805783699055
723,6.117983139120042e-05,1.0,0.45186546444892883,0.5368805783699055
724,6.096967990742996e-05,1.0,0.4521368443965912,0.5368805783699055
725,6.076329373172484e-05,1.0,0.4523485004901886,0.5368805783699055
726,6.055008270777762e-05,1.0,0.4523395597934723,0.5368805783699055
727,6.03395419602748e-05,1.0,0.45251601934432983,0.5368805783699055
728,6.0127633332740515e-05,1.0,0.45259156823158264,0.5368805783699055
729,5.9926001995336264e-05,1.0,0.45279461145401,0.5368805783699055
730,5.97157450101804e-05,1.0,0.45288726687431335,0.536842930832258
731,5.9517180488910526e-05,1.0,0.45291292667388916,0.5369343418107658
732,5.9312907978892326e-05,1.0,0.45299074053764343,0.5369343418107658
733,5.9110112488269806e-05,1.0,0.4531971216201782,0.5368805783699055
734,5.8911697124131024e-05,1.0,0.4531662166118622,0.5368805783699055
735,5.870329187018797e-05,1.0,0.4533473551273346,0.5368805783699055
736,5.8508368965703994e-05,1.0,0.4534911513328552,0.5369343418107658
737,5.830187728861347e-05,1.0,0.4536657929420471,0.5368805783699055
738,5.8102774346480146e-05,1.0,0.4537706971168518,0.5369343418107658
739,5.790659997728653e-05,1.0,0.4539080262184143,0.5369343418107658
740,5.771206633653492e-05,1.0,0.4539918899536133,0.5368966942731183
741,5.751858407165855e-05,1.0,0.45411407947540283,0.5368966942731183
742,5.731834244215861e-05,1.0,0.4540591835975647,0.5369343418107658
743,5.711828634957783e-05,1.0,0.45425912737846375,0.5369343418107658
744,5.6931545259431005e-05,1.0,0.4543856680393219,0.5369343418107658
745,5.674286512658e-05,1.0,0.4545963704586029,0.5369343418107658
746,5.654807682731189e-05,1.0,0.45464888215065,0.5369343418107658
747,5.6352917454205453e-05,1.0,0.4548260271549225,0.5369343418107658
748,5.616522685158998e-05,1.0,0.4547736346721649,0.5369343418107658
749,5.597330164164305e-05,1.0,0.45491451025009155,0.5369343418107658
750,5.5788797908462584e-05,1.0,0.45513099431991577,0.5369343418107658
751,5.559683995670639e-05,1.0,0.45507267117500305,0.5369343418107658
752,5.5408636399079114e-05,1.0,0.45509740710258484,0.5369343418107658
753,5.521118873730302e-05,1.0,0.4552130699157715,0.5369343418107658
754,5.501453415490687e-05,1.0,0.45548588037490845,0.5369343418107658
755,5.482365668285638e-05,1.0,0.45554324984550476,0.5369343418107658
756,5.462229819386266e-05,1.0,0.4557476043701172,0.5369343418107658
757,5.443331610877067e-05,1.0,0.4555824100971222,0.5369343418107658
758,5.4247899242909625e-05,1.0,0.4557923674583435,0.5369343418107658
759,5.406056152423844e-05,1.0,0.4561937153339386,0.5369343418107658
760,5.38690437679179e-05,1.0,0.4559689164161682,0.5369343418107658
761,5.3682080761063844e-05,1.0,0.45592552423477173,0.5369343418107658
762,5.3491741709876806e-05,1.0,0.4563029706478119,0.5369343418107658
763,5.3310497605707496e-05,1.0,0.45645660161972046,0.5369343418107658
764,5.312873690854758e-05,1.0,0.4564424753189087,0.5369343418107658
765,5.294242509989999e-05,1.0,0.45653507113456726,0.5369343418107658
766,5.276209412841126e-05,1.0,0.4566200077533722,0.5369343418107658
767,5.258660530671477e-05,1.0,0.4567251205444336,0.5369343418107658
768,5.240706741460599e-05,1.0,0.45694658160209656,0.5369343418107658
769,5.222109757596627e-05,1.0,0.45691388845443726,0.5369343418107658
770,5.204420449445024e-05,1.0,0.45709148049354553,0.5369343418107658
771,5.1872113544959575e-05,1.0,0.45730215311050415,0.5369343418107658
772,5.1691109547391534e-05,1.0,0.45714500546455383,0.5369343418107658
773,5.152695666765794e-05,1.0,0.45726278424263,0.5369343418107658
774,5.1347473345231265e-05,1.0,0.45766374468803406,0.5369343418107658
775,5.117306500324048e-05,1.0,0.45756998658180237,0.5369343418107658
776,5.099936242913827e-05,1.0,0.45760154724121094,0.5369343418107658
777,5.082941788714379e-05,1.0,0.4578815698623657,0.5369343418107658
778,5.0651258789002895e-05,1.0,0.4578043520450592,0.5369343418107658
779,5.0486880354583263e-05,1.0,0.45804664492607117,0.5368805783699055
780,5.0321621529292315e-05,1.0,0.4583176076412201,0.5368805783699055
781,5.014635462430306e-05,1.0,0.4582791328430176,0.5368805783699055
782,4.9976762966252863e-05,1.0,0.45843347907066345,0.5368805783699055
783,4.981317761121318e-05,1.0,0.4586576819419861,0.5369343418107658
784,4.964576510246843e-05,1.0,0.45869484543800354,0.5368805783699055
785,4.94791820528917e-05,1.0,0.45885998010635376,0.5368805783699055
786,4.931428702548146e-05,1.0,0.4590453505516052,0.5369343418107658
787,4.915003228234127e-05,1.0,0.45887455344200134,0.5369343418107658
788,4.8991751100402325e-05,1.0,0.458965927362442,0.5368805783699055
789,4.8825320845935494e-05,1.0,0.4592708945274353,0.5369343418107658
790,4.8659676394890994e-05,1.0,0.45916345715522766,0.5369343418107658
791,4.8500471166335046e-05,1.0,0.4592980444431305,0.5369343418107658
792,4.8343266826123e-05,1.0,0.4596787691116333,0.5369343418107658
793,4.818040179088712e-05,1.0,0.45958784222602844,0.5368805783699055
794,4.802391049452126e-05,1.0,0.4596516191959381,0.5368805783699055
795,4.7867066314211115e-05,1.0,0.4598264694213867,0.5368805783699055
796,4.770395389641635e-05,1.0,0.45976829528808594,0.5368805783699055
797,4.755554618895985e-05,1.0,0.4599532186985016,0.5368805783699055
798,4.739869473269209e-05,1.0,0.46034327149391174,0.5369343418107658
799,4.7237273975042626e-05,1.0,0.4602341651916504,0.5368805783699055
800,4.7089255531318486e-05,1.0,0.46022048592567444,0.5368805783699055
801,4.693002119893208e-05,1.0,0.46060889959335327,0.5369343418107658
802,4.677632387029007e-05,1.0,0.46058422327041626,0.5369343418107658
803,4.6621920773759484e-05,1.0,0.4605553448200226,0.5369343418107658
804,4.6469584049191326e-05,1.0,0.4608438313007355,0.5369343418107658
805,4.631618139683269e-05,1.0,0.46094009280204773,0.5369343418107658
806,4.616158184944652e-05,1.0,0.4609464108943939,0.5369343418107658
807,4.601202090270817e-05,1.0,0.4610915184020996,0.5369343418107658
808,4.586824798025191e-05,1.0,0.4612056016921997,0.5369343418107658
809,4.57161950180307e-05,1.0,0.46136656403541565,0.5369343418107658
810,4.556610656436533e-05,1.0,0.4615509808063507,0.5369343418107658
811,4.542038368526846e-05,1.0,0.46146494150161743,0.5369343418107658
812,4.5279004552867264e-05,1.0,0.4615427255630493,0.5369343418107658
813,4.5122716983314604e-05,1.0,0.4617072641849518,0.5369343418107658
814,4.497794361668639e-05,1.0,0.4617677927017212,0.5369343418107658
815,4.4834621803602204e-05,1.0,0.46187347173690796,0.5369343418107658
816,4.469031046028249e-05,1.0,0.461970716714859,0.5369343418107658
817,4.4552831241162494e-05,1.0,0.46216922998428345,0.5369343418107658
818,4.441153578227386e-05,1.0,0.46206775307655334,0.5369343418107658
819,4.4264234020374715e-05,1.0,0.46216440200805664,0.5369343418107658
820,4.411669942783192e-05,1.0,0.46235811710357666,0.5369343418107658
821,4.397880911710672e-05,1.0,0.46254709362983704,0.5369343418107658
822,4.383446866995655e-05,1.0,0.4625188112258911,0.5369343418107658
823,4.368949157651514e-05,1.0,0.4627358615398407,0.5369343418107658
824,4.3551495764404535e-05,1.0,0.4628346264362335,0.5369343418107658
825,4.341054955148138e-05,1.0,0.46301841735839844,0.5369343418107658
826,4.3270782043691725e-05,1.0,0.46305811405181885,0.5369343418107658
827,4.313497629482299e-05,1.0,0.4631158411502838,0.5369343418107658
828,4.299444117350504e-05,1.0,0.4632052481174469,0.5369343418107658
829,4.2865100112976506e-05,1.0,0.46351099014282227,0.5369343418107658
830,4.2717456381069496e-05,1.0,0.4635327160358429,0.5369343418107658
831,4.258568515069783e-05,1.0,0.4635997414588928,0.5369343418107658
832,4.2447252781130373e-05,1.0,0.46379953622817993,0.5369343418107658
833,4.231293860357255e-05,1.0,0.46384504437446594,0.5369343418107658
834,4.217542300466448e-05,1.0,0.46397945284843445,0.5369343418107658
835,4.204461583867669e-05,1.0,0.4640471041202545,0.5369343418107658
836,4.191290645394474e-05,1.0,0.46415647864341736,0.5369343418107658
837,4.1782433982007205e-05,1.0,0.4643102288246155,0.5369343418107658
838,4.164747952017933e-05,1.0,0.4642585217952728,0.5369343418107658
839,4.1513492760714144e-05,1.0,0.4643952548503876,0.5369343418107658
840,4.137851647101343e-05,1.0,0.4644591510295868,0.5369343418107658
841,4.1247247281717137e-05,1.0,0.46456289291381836,0.5369343418107658
842,4.11232904298231e-05,1.0,0.46462222933769226,0.5369343418107658
843,4.098983481526375e-05,1.0,0.4648180603981018,0.5369343418107658
844,4.086071567144245e-05,1.0,0.4648500978946686,0.5369343418107658
845,4.073195668752305e-05,1.0,0.4650627672672272,0.5369343418107658
846,4.060578066855669e-05,1.0,0.4651757478713989,0.5369343418107658
847,4.0478920709574595e-05,1.0,0.46541568636894226,0.5369343418107658
848,4.0346287278225645e-05,1.0,0.46537554264068604,0.5369343418107658
849,4.022148277726956e-05,1.0,0.46543803811073303,0.5369343418107658
850,4.009393887827173e-05,1.0,0.4654908776283264,0.5369343418107658
851,3.997078965767287e-05,1.0,0.4655972719192505,0.5369343418107658
852,3.9845988794695586e-05,1.0,0.4657476842403412,0.5369343418107658
853,3.97248804802075e-05,1.0,0.46603482961654663,0.5369343418107658
854,3.9596321585122496e-05,1.0,0.465911328792572,0.5369343418107658
855,3.9466016460210085e-05,1.0,0.4659827649593353,0.5369343418107658
856,3.9353071770165116e-05,1.0,0.4662233591079712,0.5369343418107658
857,3.922510950360447e-05,1.0,0.46608173847198486,0.5369343418107658
858,3.9111324440455064e-05,1.0,0.46608468890190125,0.5369343418107658
859,3.898097202181816e-05,1.0,0.4664692282676697,0.5369343418107658
860,3.885642945533618e-05,1.0,0.4664285480976105,0.5369343418107658
861,3.873687455779873e-05,1.0,0.4664286971092224,0.5369343418107658
862,3.8614263758063316e-05,1.0,0.46675586700439453,0.5369343418107658
863,3.849497079499997e-05,1.0,0.46694502234458923,0.5369343418107658
864,3.8370701076928526e-05,1.0,0.4669174551963806,0.5369343418107658
865,3.825276507996023e-05,1.0,0.46704885363578796,0.5369343418107658
866,3.813180228462443e-05,1.0,0.46726641058921814,0.5369343418107658
867,3.800898412009701e-05,1.0,0.4671702980995178,0.5369343418107658
868,3.7896112189628184e-05,1.0,0.4672645926475525,0.5369343418107658
869,3.777462552534416e-05,1.0,0.467695027589798,0.5369343418107658
870,3.7657075154129416e-05,1.0,0.46767404675483704,0.5369343418107658
871,3.75440031348262e-05,1.0,0.46774822473526,0.5369343418107658
872,3.742601984413341e-05,1.0,0.46800461411476135,0.5369343418107658
873,3.730287426151335e-05,1.0,0.46801838278770447,0.5369343418107658
874,3.718430525623262e-05,1.0,0.4681410789489746,0.5369343418107658
875,3.707160794874653e-05,1.0,0.46834713220596313,0.5369343418107658
876,3.6958597775083035e-05,1.0,0.4683839976787567,0.5369343418107658
877,3.6842564441030845e-05,1.0,0.46848419308662415,0.5369343418107658
878,3.673231549328193e-05,1.0,0.4686393737792969,0.5369343418107658
879,3.661714799818583e-05,1.0,0.4686256945133209,0.5369343418107658
880,3.650925646070391e-05,1.0,0.46884509921073914,0.5369343418107658
881,3.639348142314702e-05,1.0,0.4691433012485504,0.5369343418107658
882,3.6277393519412726e-05,1.0,0.46900177001953125,0.5369343418107658
883,3.617266338551417e-05,1.0,0.46900060772895813,0.5369343418107658
884,3.60503290721681e-05,1.0,0.46937480568885803,0.5369343418107658
885,3.594263398554176e-05,1.0,0.46938860416412354,0.5369343418107658
886,3.583051875466481e-05,1.0,0.46944132447242737,0.5369343418107658
887,3.571662091417238e-05,1.0,0.4697023034095764,0.5369343418107658
888,3.5608114558272064e-05,1.0,0.46978065371513367,0.5369343418107658
889,3.550238034222275e-05,1.0,0.4698261320590973,0.5369343418107658
890,3.5395460145082325e-05,1.0,0.469950407743454,0.5369343418107658
891,3.5287444916320965e-05,1.0,0.4701756536960602,0.5369343418107658
892,3.5177166864741594e-05,1.0,0.4701370596885681,0.5369343418107658
893,3.5072902392130345e-05,1.0,0.4703330099582672,0.5369343418107658
894,3.496288991300389e-05,1.0,0.47051307559013367,0.5369343418107658
895,3.485783963697031e-05,1.0,0.4704538583755493,0.5369343418107658
896,3.47517488989979e-05,1.0,0.47061190009117126,0.5369343418107658
897,3.464389010332525e-05,1.0,0.470776230096817,0.5369343418107658
898,3.45385487889871e-05,1.0,0.47066619992256165,0.5369343418107658
899,3.4433905966579914e-05,1.0,0.47086143493652344,0.5369343418107658
900,3.432648372836411e-05,1.0,0.47113171219825745,0.5369343418107658
901,3.421697692829184e-05,1.0,0.4711088240146637,0.5369343418107658
902,3.411428042454645e-05,1.0,0.4711611568927765,0.5369343418107658
903,3.4014352422673255e-05,1.0,0.47143062949180603,0.5369343418107658
904,3.390961865079589e-05,1.0,0.4713885486125946,0.5369343418107658
905,3.3807529689511284e-05,1.0,0.4713985025882721,0.5369343418107658
906,3.370732883922756e-05,1.0,0.471646249294281,0.5369343418107658
907,3.3605021599214524e-05,1.0,0.4716145694255829,0.5369343418107658
908,3.350072802277282e-05,1.0,0.4716642200946808,0.5369343418107658
909,3.339788963785395e-05,1.0,0.47183847427368164,0.5369343418107658
910,3.3297059417236596e-05,1.0,0.472035676240921,0.5369343418107658
911,3.3198226446984336e-05,1.0,0.4722845256328583,0.5369343418107658
912,3.309585008537397e-05,1.0,0.4722994863986969,0.5369343418107658
913,3.299599848105572e-05,1.0,0.47231537103652954,0.5369343418107658
914,3.2898860808927566e-05,1.0,0.47249072790145874,0.5369735119697117
915,3.279389056842774e-05,1.0,0.47247013449668884,0.5369343418107658
916,3.269799708505161e-05,1.0,0.4726470410823822,0.5369343418107658
917,3.260219455114566e-05,1.0,0.4727422297000885,0.5369343418107658
918,3.2499498047400266e-05,1.0,0.4727492928504944,0.5369343418107658
919,3.240512887714431e-05,1.0,0.47289958596229553,0.5369343418107658
920,3.230468792025931e-05,1.0,0.47299978137016296,0.5369735119697117
921,3.2210540666710585e-05,1.0,0.47310173511505127,0.5369735119697117
922,3.211419243598357e-05,1.0,0.47320201992988586,0.5369735119697117
923,3.2017953344620764e-05,1.0,0.4734525680541992,0.5369735119697117
924,3.192196163581684e-05,1.0,0.4733172655105591,0.5369735119697117
925,3.1832656532060355e-05,1.0,0.4734443128108978,0.5369735119697117
926,3.1732284696772695e-05,1.0,0.47377559542655945,0.5369735119697117
927,3.163401561323553e-05,1.0,0.47370514273643494,0.5369735119697117
928,3.1541323551209643e-05,1.0,0.4737657904624939,0.5369735119697117
929,3.144803486065939e-05,1.0,0.4740239381790161,0.5369735119697117
930,3.1356139515992254e-05,1.0,0.4740496277809143,0.5369735119697117
931,3.126853334833868e-05,1.0,0.4741606116294861,0.5369735119697117
932,3.116641892120242e-05,1.0,0.47424641251564026,0.5369735119697117
933,3.1073574064066634e-05,1.0,0.4742864668369293,0.5369735119697117
934,3.0983406759332865e-05,1.0,0.4743422567844391,0.5369735119697117
935,3.089297388214618e-05,1.0,0.47444459795951843,0.5369735119697117
936,3.079873204114847e-05,1.0,0.474724143743515,0.5369735119697117
937,3.070930324611254e-05,1.0,0.4747374355792999,0.5369735119697117
938,3.061233292100951e-05,1.0,0.47487959265708923,0.5369735119697117
939,3.052511237910949e-05,1.0,0.4749375879764557,0.5369735119697117
940,3.0437902751145884e-05,1.0,0.47503069043159485,0.5369735119697117
941,3.034893234143965e-05,1.0,0.47520363330841064,0.5369735119697117
942,3.0256162062869407e-05,1.0,0.4751545190811157,0.5369735119697117
943,3.016831396962516e-05,1.0,0.47531911730766296,0.5369735119697117
944,3.007865780091379e-05,1.0,0.47544851899147034,0.5369735119697117
945,2.9988841561134905e-05,1.0,0.4755047857761383,0.5369735119697117
946,2.9899354558438063e-05,1.0,0.4755675494670868,0.5369735119697117
947,2.9812823413521983e-05,1.0,0.4756077826023102,0.5369735119697117
948,2.9731203539995477e-05,1.0,0.47584083676338196,0.5369735119697117
949,2.96349790005479e-05,1.0,0.4757270812988281,0.5369735119697117
950,2.9548948077717796e-05,1.0,0.47588613629341125,0.5369735119697117
951,2.9463979444699362e-05,1.0,0.4762641191482544,0.5369735119697117
952,2.9375245503615588e-05,1.0,0.47615256905555725,0.5369735119697117
953,2.9288295991136692e-05,1.0,0.47612714767456055,0.5369735119697117
954,2.9197548428783193e-05,1.0,0.4764832556247711,0.5369735119697117
955,2.9116836230969056e-05,1.0,0.4765135943889618,0.5369735119697117
956,2.9031605663476512e-05,1.0,0.4764808714389801,0.5369735119697117
957,2.8937669412698597e-05,1.0,0.47665029764175415,0.5369735119697117
958,2.885084722947795e-05,1.0,0.47675275802612305,0.5369735119697117
959,2.876600956369657e-05,1.0,0.47686174511909485,0.5369735119697117
960,2.8689028113149107e-05,1.0,0.4769887328147888,0.5369735119697117
961,2.8604430553968996e-05,1.0,0.4769417941570282,0.537021798245874
962,2.8518699764390476e-05,1.0,0.4771074652671814,0.5369735119697117
963,2.8434118576114997e-05,1.0,0.47713640332221985,0.5369735119697117
964,2.835385748767294e-05,1.0,0.47727712988853455,0.5369735119697117
965,2.827013304340653e-05,1.0,0.4774586260318756,0.5369735119697117
966,2.818566281348467e-05,1.0,0.4774811565876007,0.5369735119697117
967,2.810236401273869e-05,1.0,0.47762203216552734,0.5369735119697117
968,2.8023678169120103e-05,1.0,0.4777355194091797,0.5369735119697117
969,2.7941612643189728e-05,1.0,0.4776884615421295,0.537021798245874
970,2.785843753372319e-05,1.0,0.47782543301582336,0.537021798245874
971,2.7775133276009e-05,1.0,0.47798681259155273,0.537021798245874
972,2.769537240965292e-05,1.0,0.478057324886322,0.537021798245874
973,2.761783980531618e-05,1.0,0.4781777560710907,0.537021798245874
974,2.7532583771971986e-05,1.0,0.4781998097896576,0.537021798245874
975,2.745359597611241e-05,1.0,0.4783022701740265,0.537021798245874
976,2.737887916737236e-05,1.0,0.47834450006484985,0.5370601768036701
977,2.7298119675833732e-05,1.0,0.47845718264579773,0.5370601768036701
978,2.7216916350880638e-05,1.0,0.47852569818496704,0.5370601768036701
979,2.713711728574708e-05,1.0,0.4786584675312042,0.5370601768036701
980,2.7057407351094298e-05,1.0,0.47882646322250366,0.5370601768036701
981,2.6978677851730026e-05,1.0,0.4787771999835968,0.5370601768036701
982,2.689846405701246e-05,1.0,0.47897884249687195,0.5370601768036701
983,2.6822108338819817e-05,1.0,0.47912466526031494,0.5370601768036701
984,2.674085772014223e-05,1.0,0.47920477390289307,0.5370601768036701
985,2.666782893356867e-05,1.0,0.4793979823589325,0.5370601768036701
986,2.658840639924165e-05,1.0,0.4793315529823303,0.5370601768036701
987,2.650807800819166e-05,1.0,0.47941431403160095,0.5370601768036701
988,2.6433452148921788e-05,1.0,0.47943729162216187,0.5370601768036701
989,2.635880809975788e-05,1.0,0.47948020696640015,0.5370601768036701
990,2.628327092679683e-05,1.0,0.479586124420166,0.5370601768036701
991,2.6208694180240855e-05,1.0,0.47969430685043335,0.5370601768036701
992,2.613185642985627e-05,1.0,0.4798544943332672,0.5370601768036701
993,2.6054336558445357e-05,1.0,0.4800626337528229,0.5370601768036701
994,2.5979525162256323e-05,1.0,0.4799959361553192,0.5370601768036701
995,2.5900080800056458e-05,1.0,0.4801773130893707,0.5370601768036701
996,2.5834171538008377e-05,1.0,0.4803957939147949,0.5370601768036701
997,2.576052247604821e-05,1.0,0.4803207218647003,0.5370601768036701
998,2.5685316359158605e-05,1.0,0.48041513562202454,0.5370601768036701
999,2.5611290766391903e-05,1.0,0.48051097989082336,0.5370601768036701
