,loss,recall,val_loss,val_recall
0,0.6486750841140747,0.6438879456706282,0.6906477212905884,0.4285714285714286
1,0.513423502445221,0.825,0.6832243800163269,0.6677740863787376
2,0.4269276261329651,0.8694852941176471,0.6765230894088745,0.71875
3,0.3710523247718811,0.8831229546517064,0.6700132489204407,0.7110130306851619
4,0.33443862199783325,0.8976190476190476,0.6626450419425964,0.7729091636654661
5,0.3100716769695282,0.8976190476190476,0.6545953154563904,0.78
6,0.29157039523124695,0.8976190476190476,0.6456710696220398,0.78
7,0.2764686942100525,0.8976190476190476,0.6363686919212341,0.7873149259703881
8,0.2632543444633484,0.8976190476190476,0.626611053943634,0.78
9,0.251967191696167,0.9130645944633318,0.616279125213623,0.7729091636654661
10,0.24131619930267334,0.9130645944633318,0.6056306958198547,0.78
11,0.2304641157388687,0.9130645944633318,0.5947272181510925,0.78
12,0.21975071728229523,0.9295634920634921,0.5838031768798828,0.78
13,0.20919173955917358,0.9295634920634921,0.5727609992027283,0.78
14,0.19872665405273438,0.9295634920634921,0.5615135431289673,0.7873149259703881
15,0.1885189265012741,0.9295634920634921,0.550222635269165,0.7873149259703881
16,0.1785127967596054,0.9295634920634921,0.5387023091316223,0.7873149259703881
17,0.16898921132087708,0.9373482272948033,0.5267544388771057,0.7948717948717949
18,0.1601433902978897,0.9452380952380952,0.514503002166748,0.7948717948717949
19,0.1518440544605255,0.9532491818606825,0.5018209218978882,0.7948717948717949
20,0.14384889602661133,0.969047619047619,0.4888854920864105,0.7826174227217985
21,0.13626854121685028,0.9766245909303413,0.4752461910247803,0.7906602254428341
22,0.12898096442222595,1.0,0.4609280228614807,0.7906602254428341
23,0.12237614393234253,1.0,0.4460204243659973,0.7906602254428341
24,0.11597003042697906,1.0,0.430588036775589,0.7906602254428341
25,0.10978192836046219,1.0,0.41428691148757935,0.7989898989898989
26,0.1038798913359642,1.0,0.39746809005737305,0.8076298701298701
27,0.09834950417280197,1.0,0.3806954026222229,0.8356758991318727
28,0.09324996918439865,1.0,0.3647446632385254,0.8458333333333333
29,0.0883740782737732,1.0,0.34988880157470703,0.8564522908785204
30,0.08370451629161835,1.0,0.3363793194293976,0.8792363792363792
31,0.07931961119174957,1.0,0.3245548903942108,0.8697916666666667
32,0.07508577406406403,1.0,0.3143729269504547,0.8604395604395605
33,0.07095660269260406,1.0,0.30567044019699097,0.8645409317051108
34,0.06697285175323486,1.0,0.29831966757774353,0.8645409317051108
35,0.06312501430511475,1.0,0.2921816408634186,0.8786764705882353
36,0.05944310128688812,1.0,0.2870669364929199,0.8786764705882353
37,0.05602481588721275,1.0,0.28287360072135925,0.9016544117647058
38,0.052789364010095596,1.0,0.27947694063186646,0.9016544117647058
39,0.049706678837537766,1.0,0.27680090069770813,0.9016544117647058
40,0.04678971320390701,1.0,0.27470237016677856,0.9016544117647058
41,0.04403556138277054,1.0,0.2731214463710785,0.9016544117647058
42,0.041457418352365494,1.0,0.27172744274139404,0.9016544117647058
43,0.03904039040207863,1.0,0.270577609539032,0.9016544117647058
44,0.03679107129573822,1.0,0.26981088519096375,0.9016544117647058
45,0.03473130241036415,1.0,0.26958176493644714,0.9016544117647058
46,0.032780133187770844,1.0,0.26987704634666443,0.9016544117647058
47,0.030932478606700897,1.0,0.2705990672111511,0.9016544117647058
48,0.029194988310337067,1.0,0.2716423273086548,0.9016544117647058
49,0.02759457938373089,1.0,0.2727217972278595,0.9016544117647058
50,0.026089750230312347,1.0,0.27388879656791687,0.9016544117647058
51,0.02468264475464821,1.0,0.2750815451145172,0.9016544117647058
52,0.023355185985565186,1.0,0.27640169858932495,0.9016544117647058
53,0.022116413339972496,1.0,0.27782008051872253,0.9016544117647058
54,0.020944936200976372,1.0,0.2792973816394806,0.9016544117647058
55,0.019848810508847237,1.0,0.2808245122432709,0.9016544117647058
56,0.018832795321941376,1.0,0.2824012041091919,0.9016544117647058
57,0.017889050766825676,1.0,0.28398942947387695,0.9016544117647058
58,0.017005417495965958,1.0,0.28542613983154297,0.9016544117647058
59,0.01617874577641487,1.0,0.28674861788749695,0.9016544117647058
60,0.01540497038513422,1.0,0.2880778908729553,0.9016544117647058
61,0.014676022343337536,1.0,0.28937995433807373,0.9016544117647058
62,0.013994175009429455,1.0,0.29060301184654236,0.9016544117647058
63,0.013351001776754856,1.0,0.2917880117893219,0.9016544117647058
64,0.01274991687387228,1.0,0.2929517328739166,0.9016544117647058
65,0.012185797095298767,1.0,0.29409897327423096,0.9016544117647058
66,0.011661271564662457,1.0,0.29523375630378723,0.9016544117647058
67,0.011169779114425182,1.0,0.296329528093338,0.9016544117647058
68,0.010709688067436218,1.0,0.2974054515361786,0.9016544117647058
69,0.010278887115418911,1.0,0.29846206307411194,0.9016544117647058
70,0.009868325665593147,1.0,0.2995690107345581,0.9016544117647058
71,0.00948378350585699,1.0,0.3007151186466217,0.9016544117647058
72,0.009120732545852661,1.0,0.3018855154514313,0.8871551334237902
73,0.008773710578680038,1.0,0.3031004071235657,0.8871551334237902
74,0.00844617560505867,1.0,0.30431386828422546,0.8871551334237902
75,0.008135494776070118,1.0,0.30552563071250916,0.8871551334237902
76,0.007839926518499851,1.0,0.3067111074924469,0.8871551334237902
77,0.0075606429018080235,1.0,0.30785563588142395,0.8871551334237902
78,0.007297714240849018,1.0,0.308981329202652,0.8871551334237902
79,0.007050434127449989,1.0,0.31006452441215515,0.8871551334237902
80,0.006817137822508812,1.0,0.3111134171485901,0.8871551334237902
81,0.006596029736101627,1.0,0.31211137771606445,0.8871551334237902
82,0.006386797409504652,1.0,0.31309404969215393,0.8871551334237902
83,0.006187718361616135,1.0,0.3140203356742859,0.8871551334237902
84,0.0059968833811581135,1.0,0.3148941397666931,0.8871551334237902
85,0.005815069656819105,1.0,0.3157438635826111,0.8871551334237902
86,0.005642557982355356,1.0,0.3165450692176819,0.8871551334237902
87,0.005479627754539251,1.0,0.31732290983200073,0.8871551334237902
88,0.005324364174157381,1.0,0.31811028718948364,0.8871551334237902
89,0.005175022408366203,1.0,0.3188702464103699,0.8871551334237902
90,0.005032414570450783,1.0,0.31961020827293396,0.8871551334237902
91,0.0048962305299937725,1.0,0.3203628957271576,0.8871551334237902
92,0.00476706400513649,1.0,0.3211379051208496,0.8871551334237902
93,0.004643274005502462,1.0,0.3219098150730133,0.8871551334237902
94,0.004525003023445606,1.0,0.3226940929889679,0.8871551334237902
95,0.00441124988719821,1.0,0.32350215315818787,0.8871551334237902
96,0.0043024844489991665,1.0,0.32432079315185547,0.8871551334237902
97,0.0041987220756709576,1.0,0.3251635730266571,0.8871551334237902
98,0.004098499193787575,1.0,0.32598769664764404,0.8871551334237902
99,0.004002283792942762,1.0,0.32676517963409424,0.8871551334237902
100,0.0039094663225114346,1.0,0.3274916112422943,0.8871551334237902
101,0.0038204898592084646,1.0,0.3281664550304413,0.8871551334237902
102,0.0037350787315517664,1.0,0.32880741357803345,0.8871551334237902
103,0.0036523472517728806,1.0,0.32940202951431274,0.8871551334237902
104,0.003572926390916109,1.0,0.3299773633480072,0.8871551334237902
105,0.003496569348499179,1.0,0.33056938648223877,0.8871551334237902
106,0.003422996262088418,1.0,0.3311808705329895,0.8871551334237902
107,0.0033519300632178783,1.0,0.33181601762771606,0.8871551334237902
108,0.0032828294206410646,1.0,0.3324698507785797,0.8871551334237902
109,0.0032163613941520452,1.0,0.333128422498703,0.8871551334237902
110,0.0031524598598480225,1.0,0.3337867558002472,0.8871551334237902
111,0.00308997486717999,1.0,0.3344150185585022,0.8871551334237902
112,0.003030121326446533,1.0,0.3350188434123993,0.8871551334237902
113,0.0029721606988459826,1.0,0.3356095850467682,0.8871551334237902
114,0.0029156373348087072,1.0,0.3361925184726715,0.8871551334237902
115,0.0028607428539544344,1.0,0.3367590010166168,0.8871551334237902
116,0.0028076600283384323,1.0,0.3373207151889801,0.8871551334237902
117,0.0027563341427594423,1.0,0.3378480076789856,0.8871551334237902
118,0.0027063179295510054,1.0,0.3383576273918152,0.8871551334237902
119,0.0026575722731649876,1.0,0.33883556723594666,0.8871551334237902
120,0.002610424067825079,1.0,0.3392728269100189,0.8871551334237902
121,0.0025644483976066113,1.0,0.3396974205970764,0.8871551334237902
122,0.0025197272188961506,1.0,0.3401219844818115,0.8871551334237902
123,0.0024762297980487347,1.0,0.34056177735328674,0.8871551334237902
124,0.002433857647702098,1.0,0.34103691577911377,0.8871551334237902
125,0.0023925474379211664,1.0,0.3415454924106598,0.8871551334237902
126,0.002352426527068019,1.0,0.3420630991458893,0.8871551334237902
127,0.002313511911779642,1.0,0.3425809442996979,0.8871551334237902
128,0.002275494858622551,1.0,0.3430842459201813,0.8871551334237902
129,0.002238693181425333,1.0,0.3436092436313629,0.8871551334237902
130,0.002202605828642845,1.0,0.3441520929336548,0.8871551334237902
131,0.002167710103094578,1.0,0.3446686565876007,0.8871551334237902
132,0.002133833710104227,1.0,0.3451719582080841,0.8871551334237902
133,0.002100585028529167,1.0,0.34566566348075867,0.8871551334237902
134,0.0020679060835391283,1.0,0.34616324305534363,0.8871551334237902
135,0.002036420861259103,1.0,0.34667840600013733,0.8871551334237902
136,0.002005618764087558,1.0,0.34720519185066223,0.8871551334237902
137,0.0019753717351704836,1.0,0.34774062037467957,0.8871551334237902
138,0.0019461956107988954,1.0,0.3482830822467804,0.8871551334237902
139,0.0019176219357177615,1.0,0.3488173484802246,0.8871551334237902
140,0.0018897783011198044,1.0,0.3493468761444092,0.8871551334237902
141,0.001862637815065682,1.0,0.34985318779945374,0.8871551334237902
142,0.0018361478578299284,1.0,0.35035914182662964,0.8871551334237902
143,0.0018103306647390127,1.0,0.35082879662513733,0.8871551334237902
144,0.0017850049771368504,1.0,0.35127055644989014,0.8871551334237902
145,0.001760232960805297,1.0,0.35171759128570557,0.8871551334237902
146,0.0017361417412757874,1.0,0.35218214988708496,0.8871551334237902
147,0.001712374622002244,1.0,0.3526761531829834,0.8871551334237902
148,0.0016892522107809782,1.0,0.35315582156181335,0.8871551334237902
149,0.001666587544605136,1.0,0.35361602902412415,0.8871551334237902
150,0.001644380041398108,1.0,0.3540656566619873,0.8871551334237902
151,0.0016227207379415631,1.0,0.3545052111148834,0.8871551334237902
152,0.001601425465196371,1.0,0.3549415171146393,0.8871551334237902
153,0.0015805750153958797,1.0,0.3553852140903473,0.8871551334237902
154,0.0015602404018864036,1.0,0.3558518886566162,0.8871551334237902
155,0.0015403303550556302,1.0,0.3563080430030823,0.8871551334237902
156,0.0015207608230412006,1.0,0.35676124691963196,0.8871551334237902
157,0.0015016266843304038,1.0,0.35720595717430115,0.8871551334237902
158,0.0014829328283667564,1.0,0.35762226581573486,0.8871551334237902
159,0.0014645523624494672,1.0,0.35803934931755066,0.8871551334237902
160,0.0014465728309005499,1.0,0.35846927762031555,0.8871551334237902
161,0.0014289161190390587,1.0,0.3589131832122803,0.8871551334237902
162,0.0014115680241957307,1.0,0.35934683680534363,0.8871551334237902
163,0.0013945427490398288,1.0,0.3597772419452667,0.8871551334237902
164,0.0013778699794784188,1.0,0.36019086837768555,0.8871551334237902
165,0.0013615033822134137,1.0,0.36060336232185364,0.8871551334237902
166,0.0013454665895551443,1.0,0.3610086739063263,0.8871551334237902
167,0.0013296786928549409,1.0,0.36139053106307983,0.8871551334237902
168,0.0013142421375960112,1.0,0.3617420792579651,0.8871551334237902
169,0.0012990519171580672,1.0,0.3620964288711548,0.8871551334237902
170,0.001284128986299038,1.0,0.36247122287750244,0.8871551334237902
171,0.0012695369077846408,1.0,0.36284276843070984,0.8871551334237902
172,0.0012550981482490897,1.0,0.36322149634361267,0.8871551334237902
173,0.0012409385526552796,1.0,0.3635965585708618,0.8871551334237902
174,0.0012270675506442785,1.0,0.36399248242378235,0.8871551334237902
175,0.0012134503340348601,1.0,0.36437568068504333,0.8871551334237902
176,0.0012000612914562225,1.0,0.36476653814315796,0.8871551334237902
177,0.0011868776055052876,1.0,0.36512210965156555,0.8871551334237902
178,0.0011739043984562159,1.0,0.3654678761959076,0.8871551334237902
179,0.001161194988526404,1.0,0.36583593487739563,0.8871551334237902
180,0.001148682669736445,1.0,0.36623239517211914,0.8871551334237902
181,0.0011363864177837968,1.0,0.366628497838974,0.8871551334237902
182,0.001124283648096025,1.0,0.36700400710105896,0.8871551334237902
183,0.0011123854201287031,1.0,0.36733970046043396,0.8871551334237902
184,0.0011006782297044992,1.0,0.36766836047172546,0.8871551334237902
185,0.001089185127057135,1.0,0.36802229285240173,0.8871551334237902
186,0.0010778593132272363,1.0,0.3683684468269348,0.8871551334237902
187,0.0010666809976100922,1.0,0.3687215745449066,0.8871551334237902
188,0.0010557103669270873,1.0,0.3690829277038574,0.8871551334237902
189,0.0010449201799929142,1.0,0.36946165561676025,0.8871551334237902
190,0.001034288201481104,1.0,0.3698364496231079,0.8871551334237902
191,0.0010238500544801354,1.0,0.3701934814453125,0.8871551334237902
192,0.0010135831544175744,1.0,0.3705580532550812,0.8871551334237902
193,0.0010034540900960565,1.0,0.37092262506484985,0.8871551334237902
194,0.0009934757836163044,1.0,0.3712664842605591,0.8871551334237902
195,0.000983643694780767,1.0,0.37162116169929504,0.8871551334237902
196,0.0009739790693856776,1.0,0.3719985783100128,0.8871551334237902
197,0.0009644260862842202,1.0,0.37237510085105896,0.8871551334237902
198,0.0009550370741635561,1.0,0.37273740768432617,0.8871551334237902
199,0.0009457741398364305,1.0,0.3730831444263458,0.8871551334237902
200,0.0009366623708046973,1.0,0.37342384457588196,0.8871551334237902
201,0.0009276468772441149,1.0,0.3737587034702301,0.8871551334237902
202,0.0009187763789668679,1.0,0.374091774225235,0.8871551334237902
203,0.000910048489458859,1.0,0.3744443953037262,0.8871551334237902
204,0.0009014418465085328,1.0,0.3748156726360321,0.8871551334237902
205,0.000892955344170332,1.0,0.3751634955406189,0.8871551334237902
206,0.0008845960255712271,1.0,0.3755021095275879,0.8871551334237902
207,0.0008763924706727266,1.0,0.37581920623779297,0.8871551334237902
208,0.0008682922925800085,1.0,0.3761374056339264,0.8871551334237902
209,0.0008603204623796046,1.0,0.3764832317829132,0.8871551334237902
210,0.0008524401928298175,1.0,0.3768194019794464,0.8871551334237902
211,0.0008446763386018574,1.0,0.3771466612815857,0.8871551334237902
212,0.0008370312862098217,1.0,0.377471387386322,0.8871551334237902
213,0.0008295041625387967,1.0,0.3777886927127838,0.8871551334237902
214,0.0008220554445870221,1.0,0.37809455394744873,0.8871551334237902
215,0.0008147387998178601,1.0,0.3783993721008301,0.8871551334237902
216,0.0008074922952800989,1.0,0.37871381640434265,0.8871551334237902
217,0.0008003789116628468,1.0,0.3790418207645416,0.8871551334237902
218,0.0007933474844321609,1.0,0.3793695867061615,0.8871551334237902
219,0.0007864136132411659,1.0,0.3796718418598175,0.8871551334237902
220,0.0007795571582391858,1.0,0.37997642159461975,0.8871551334237902
221,0.0007728159544058144,1.0,0.3802838921546936,0.8871551334237902
222,0.0007661450654268265,1.0,0.38058942556381226,0.8871551334237902
223,0.0007595881470479071,1.0,0.38088932633399963,0.8871551334237902
224,0.0007531016017310321,1.0,0.3811797499656677,0.8871551334237902
225,0.0007466910756193101,1.0,0.381464421749115,0.8871551334237902
226,0.0007403625641018152,1.0,0.3817618191242218,0.8871551334237902
227,0.0007340957527048886,1.0,0.3820558190345764,0.8871551334237902
228,0.0007279456476680934,1.0,0.38236767053604126,0.8871551334237902
229,0.0007218776736408472,1.0,0.3826942443847656,0.8871551334237902
230,0.000715874892193824,1.0,0.3830050528049469,0.8871551334237902
231,0.0007099448121152818,1.0,0.38329237699508667,0.8871551334237902
232,0.0007040624041110277,1.0,0.3835839033126831,0.8871551334237902
233,0.0006982620107010007,1.0,0.3838730454444885,0.8871551334237902
234,0.0006925520137883723,1.0,0.38415324687957764,0.8871551334237902
235,0.000686908548232168,1.0,0.38442903757095337,0.8871551334237902
236,0.0006813341751694679,1.0,0.3847212493419647,0.8871551334237902
237,0.0006758405943401158,1.0,0.38501325249671936,0.8871551334237902
238,0.0006704017287120223,1.0,0.38530775904655457,0.8871551334237902
239,0.0006650259019806981,1.0,0.3856009244918823,0.8871551334237902
240,0.0006597322062589228,1.0,0.38589170575141907,0.8871551334237902
241,0.0006544824573211372,1.0,0.3861764967441559,0.8871551334237902
242,0.0006493114051409066,1.0,0.3864525556564331,0.8871551334237902
243,0.0006441950099542737,1.0,0.3867247700691223,0.8871551334237902
244,0.000639146426692605,1.0,0.38699260354042053,0.8871551334237902
245,0.0006341226981021464,1.0,0.3872441053390503,0.8871551334237902
246,0.0006291847676038742,1.0,0.38749250769615173,0.8871551334237902
247,0.0006242991657927632,1.0,0.38774657249450684,0.8871551334237902
248,0.0006194660090841353,1.0,0.3880061209201813,0.8871551334237902
249,0.0006146922823973,1.0,0.38826826214790344,0.8871551334237902
250,0.0006099505699239671,1.0,0.38851630687713623,0.8871551334237902
251,0.0006052945973351598,1.0,0.38876020908355713,0.8871551334237902
252,0.0006006743642501533,1.0,0.38900992274284363,0.8871551334237902
253,0.000596101803239435,1.0,0.389256089925766,0.8871551334237902
254,0.0005915838992223144,1.0,0.3894955813884735,0.8871551334237902
255,0.0005871052271686494,1.0,0.3897169530391693,0.8871551334237902
256,0.0005826801643706858,1.0,0.3899402618408203,0.8871551334237902
257,0.0005782813532277942,1.0,0.39015471935272217,0.8871551334237902
258,0.0005739371990785003,1.0,0.3903830647468567,0.8871551334237902
259,0.000569652474950999,1.0,0.3906208574771881,0.8871551334237902
260,0.0005653987755067647,1.0,0.39086708426475525,0.8871551334237902
261,0.0005611902452073991,1.0,0.3911181688308716,0.8871551334237902
262,0.0005570222274400294,1.0,0.39137202501296997,0.8871551334237902
263,0.0005529029294848442,1.0,0.39161524176597595,0.8871551334237902
264,0.0005488538881763816,1.0,0.3918568789958954,0.8871551334237902
265,0.0005448191659525037,1.0,0.39210203289985657,0.8871551334237902
266,0.0005408391589298844,1.0,0.39233648777008057,0.8871551334237902
267,0.0005369210266508162,1.0,0.39257827401161194,0.8871551334237902
268,0.0005330385756678879,1.0,0.3928239345550537,0.8871551334237902
269,0.0005291978013701737,1.0,0.39305031299591064,0.8871551334237902
270,0.0005253890994936228,1.0,0.39327457547187805,0.8871551334237902
271,0.0005216304562054574,1.0,0.39350202679634094,0.8871551334237902
272,0.0005179087165743113,1.0,0.39374518394470215,0.8871551334237902
273,0.0005142333684489131,1.0,0.3939889073371887,0.8871551334237902
274,0.0005105912568978965,1.0,0.39423292875289917,0.8871551334237902
275,0.0005069992039352655,1.0,0.39447158575057983,0.8871551334237902
276,0.000503440503962338,1.0,0.39471542835235596,0.8871551334237902
277,0.0004999211523681879,1.0,0.39496955275535583,0.8871551334237902
278,0.0004964540712535381,1.0,0.3952111601829529,0.8871551334237902
279,0.0004929964779876173,1.0,0.39543646574020386,0.8871551334237902
280,0.0004895972087979317,1.0,0.3956676423549652,0.8871551334237902
281,0.00048623367911204696,1.0,0.39590421319007874,0.8871551334237902
282,0.0004828952078241855,1.0,0.3961428999900818,0.8871551334237902
283,0.0004795852873940021,1.0,0.39637893438339233,0.8871551334237902
284,0.0004763229808304459,1.0,0.3966136872768402,0.8871551334237902
285,0.0004730689397547394,1.0,0.396829217672348,0.8871551334237902
286,0.0004698816337622702,1.0,0.39704710245132446,0.8871551334237902
287,0.0004667109460569918,1.0,0.3972637951374054,0.8871551334237902
288,0.00046357125393114984,1.0,0.39749565720558167,0.8871551334237902
289,0.00046047676005400717,1.0,0.3977532982826233,0.8871551334237902
290,0.00045739414053969085,1.0,0.39801138639450073,0.8871551334237902
291,0.0004543627437669784,1.0,0.39824041724205017,0.8871551334237902
292,0.00045135634718462825,1.0,0.39844244718551636,0.8871551334237902
293,0.0004483654338400811,1.0,0.3986543118953705,0.8871551334237902
294,0.000445416197180748,1.0,0.3988781273365021,0.8871551334237902
295,0.00044250860810279846,1.0,0.39909881353378296,0.8871551334237902
296,0.00043961527990177274,1.0,0.39932289719581604,0.8871551334237902
297,0.0004367648216430098,1.0,0.399539589881897,0.8871551334237902
298,0.0004339251318015158,1.0,0.3997551500797272,0.8871551334237902
299,0.0004311222874093801,1.0,0.3999716341495514,0.8871551334237902
300,0.0004283599555492401,1.0,0.40018925070762634,0.8871551334237902
301,0.0004256083338987082,1.0,0.4004007577896118,0.8871551334237902
302,0.0004228948091622442,1.0,0.40061628818511963,0.8871551334237902
303,0.00042019199463538826,1.0,0.4008391499519348,0.8871551334237902
304,0.000417523697251454,1.0,0.4010608494281769,0.8871551334237902
305,0.00041489710565656424,1.0,0.4012846350669861,0.8871551334237902
306,0.0004122692917007953,1.0,0.40150314569473267,0.8871551334237902
307,0.00040967483073472977,1.0,0.40171778202056885,0.8871551334237902
308,0.00040710653411224484,1.0,0.4019302725791931,0.8871551334237902
309,0.0004045584937557578,1.0,0.4021279811859131,0.8871551334237902
310,0.0004020306805614382,1.0,0.40233245491981506,0.8871551334237902
311,0.00039953028317540884,1.0,0.40254828333854675,0.8871551334237902
312,0.00039705727249383926,1.0,0.40275484323501587,0.8871551334237902
313,0.0003945997159462422,1.0,0.4029591977596283,0.8871551334237902
314,0.0003921636089216918,1.0,0.40317460894584656,0.8871551334237902
315,0.0003897691785823554,1.0,0.4033970832824707,0.8871551334237902
316,0.0003873842360917479,1.0,0.40360602736473083,0.8871551334237902
317,0.0003850136126857251,1.0,0.4038105607032776,0.8871551334237902
318,0.0003826787287835032,1.0,0.4040192663669586,0.8871551334237902
319,0.0003803461731877178,1.0,0.40423616766929626,0.8871551334237902
320,0.00037804938619956374,1.0,0.4044496417045593,0.8871551334237902
321,0.00037578234332613647,1.0,0.40467268228530884,0.8871551334237902
322,0.0003735212085302919,1.0,0.40488341450691223,0.8871551334237902
323,0.00037129229167476296,1.0,0.4050729274749756,0.8871551334237902
324,0.000369063374819234,1.0,0.40525099635124207,0.8871551334237902
325,0.00036686062230728567,1.0,0.40543490648269653,0.8871551334237902
326,0.0003646900877356529,1.0,0.40564611554145813,0.8871551334237902
327,0.0003625349490903318,1.0,0.40586647391319275,0.8871551334237902
328,0.00036037981044501066,1.0,0.4060865640640259,0.8871551334237902
329,0.0003582569188438356,1.0,0.4062901735305786,0.8871551334237902
330,0.00035615303204394877,1.0,0.4064878821372986,0.8871551334237902
331,0.000354066927684471,1.0,0.40668508410453796,0.8871551334237902
332,0.00035198923433199525,1.0,0.4068759083747864,0.8871551334237902
333,0.0003499353479128331,1.0,0.40706104040145874,0.8871551334237902
334,0.000347905297530815,1.0,0.4072490334510803,0.8871551334237902
335,0.00034589070128276944,1.0,0.4074494540691376,0.8871551334237902
336,0.0003438892017584294,1.0,0.4076527953147888,0.8871551334237902
337,0.00034191153827123344,1.0,0.4078640639781952,0.8871551334237902
338,0.0003399457782506943,1.0,0.4080756604671478,0.8871551334237902
339,0.00033799908123910427,1.0,0.40827932953834534,0.8871551334237902
340,0.00033608212834224105,1.0,0.40847069025039673,0.8871551334237902
341,0.00033416401129215956,1.0,0.40866824984550476,0.8871551334237902
342,0.0003322673146612942,1.0,0.40887293219566345,0.8871551334237902
343,0.0003303908742964268,1.0,0.409087598323822,0.8871551334237902
344,0.00032852275762706995,1.0,0.40929850935935974,0.8871551334237902
345,0.00032667251070961356,1.0,0.40949416160583496,0.8871551334237902
346,0.00032484132680110633,1.0,0.4096803665161133,0.8871551334237902
347,0.00032302437466569245,1.0,0.4098685681819916,0.8871551334237902
348,0.00032123131677508354,1.0,0.4100601077079773,0.8871551334237902
349,0.00031944422516971827,1.0,0.41024425625801086,0.8871551334237902
350,0.00031767136533744633,1.0,0.41041991114616394,0.8871551334237902
351,0.0003159140469506383,1.0,0.41058722138404846,0.8871551334237902
352,0.00031416857382282615,1.0,0.41075968742370605,0.8871551334237902
353,0.00031244102865457535,1.0,0.41093552112579346,0.8871551334237902
354,0.0003107170050498098,1.0,0.41111522912979126,0.8871551334237902
355,0.00030902758589945734,1.0,0.4112987816333771,0.8871551334237902
356,0.00030733091989532113,1.0,0.41147613525390625,0.8871551334237902
357,0.00030565221095457673,1.0,0.411652147769928,0.8871551334237902
358,0.0003039925068151206,1.0,0.4118384122848511,0.8871551334237902
359,0.0003023411554750055,1.0,0.4120290279388428,0.8871551334237902
360,0.00030070770299062133,1.0,0.4122154116630554,0.8871551334237902
361,0.0002990908978972584,1.0,0.41239678859710693,0.8871551334237902
362,0.00029748358065262437,1.0,0.412571519613266,0.8871551334237902
363,0.00029587509925477207,1.0,0.41274741291999817,0.8871551334237902
364,0.00029429999995045364,1.0,0.41293394565582275,0.8871551334237902
365,0.0002927272580564022,1.0,0.41312462091445923,0.8871551334237902
366,0.0002911747433245182,1.0,0.41329702734947205,0.8871551334237902
367,0.00028962703072465956,1.0,0.4134632647037506,0.8871551334237902
368,0.00028809119248762727,1.0,0.41363096237182617,0.8871551334237902
369,0.0002865660935640335,1.0,0.4138084948062897,0.8871551334237902
370,0.000285055284621194,1.0,0.4139883816242218,0.8871551334237902
371,0.00028355044196359813,1.0,0.41416019201278687,0.8871551334237902
372,0.0002820610534399748,1.0,0.4143407344818115,0.8871551334237902
373,0.00028058953466825187,1.0,0.41452497243881226,0.8871551334237902
374,0.00027912636869587004,1.0,0.41470062732696533,0.8871551334237902
375,0.000277672748779878,1.0,0.4148753583431244,0.8871551334237902
376,0.00027623336063697934,1.0,0.41504615545272827,0.8871551334237902
377,0.00027479641721583903,1.0,0.41520705819129944,0.8871551334237902
378,0.00027337970095686615,1.0,0.41535890102386475,0.8871551334237902
379,0.0002719749172683805,1.0,0.41550013422966003,0.8871551334237902
380,0.0002705748484004289,1.0,0.4156528115272522,0.8871551334237902
381,0.0002691902918741107,1.0,0.41581594944000244,0.8871551334237902
382,0.00026780812186188996,1.0,0.4159882664680481,0.8871551334237902
383,0.0002664497587829828,1.0,0.4161662459373474,0.8871551334237902
384,0.0002650913957040757,1.0,0.41634848713874817,0.8871551334237902
385,0.0002637497382238507,1.0,0.41652214527130127,0.8871551334237902
386,0.0002624104090500623,1.0,0.4166804552078247,0.8871551334237902
387,0.0002610890078358352,1.0,0.41682809591293335,0.8871551334237902
388,0.0002597842540126294,1.0,0.41697555780410767,0.8871551334237902
389,0.00025847236975096166,1.0,0.41713255643844604,0.8871551334237902
390,0.00025718193501234055,1.0,0.41729438304901123,0.8871551334237902
391,0.00025590576115064323,1.0,0.4174503982067108,0.8871551334237902
392,0.0002546283940318972,1.0,0.41760650277137756,0.8871551334237902
393,0.00025335937971249223,1.0,0.4177623987197876,0.8871551334237902
394,0.00025210707099176943,1.0,0.4179241359233856,0.8871551334237902
395,0.00025086544337682426,1.0,0.41808974742889404,0.8871551334237902
396,0.0002496333618182689,1.0,0.4182489216327667,0.8871551334237902
397,0.00024840960395522416,1.0,0.4184075891971588,0.8871551334237902
398,0.00024718345957808197,1.0,0.41856494545936584,0.8871551334237902
399,0.0002459811803419143,1.0,0.41872382164001465,0.8871551334237902
400,0.00024477532133460045,1.0,0.41888535022735596,0.8871551334237902
401,0.0002435932692606002,1.0,0.4190477728843689,0.8871551334237902
402,0.0002424111880827695,1.0,0.41921091079711914,0.8871551334237902
403,0.00024123631010297686,1.0,0.41936683654785156,0.8871551334237902
404,0.00024007927277125418,1.0,0.41952037811279297,0.8871551334237902
405,0.00023891984892543405,1.0,0.41967612504959106,0.8871551334237902
406,0.00023777232854627073,1.0,0.41982656717300415,0.8871551334237902
407,0.00023664269247092307,1.0,0.4199845492839813,0.8871551334237902
408,0.00023550234618596733,1.0,0.4201401174068451,0.8871551334237902
409,0.00023438342032022774,1.0,0.42029693722724915,0.8871551334237902
410,0.00023326452355831861,1.0,0.42045265436172485,0.8871551334237902
411,0.00023215751571115106,1.0,0.4206162095069885,0.8871551334237902
412,0.00023105647414922714,1.0,0.42078155279159546,0.8871551334237902
413,0.00022996852931100875,1.0,0.42094725370407104,0.8871551334237902
414,0.00022888653620611876,1.0,0.4211154878139496,0.8871551334237902
415,0.00022781289590056986,1.0,0.4212803542613983,0.8871551334237902
416,0.00022674162755720317,1.0,0.4214383363723755,0.8871551334237902
417,0.00022567156702280045,1.0,0.42160269618034363,0.8871551334237902
418,0.00022462887864094228,1.0,0.4217648208141327,0.8871551334237902
419,0.0002235731080872938,1.0,0.4219188988208771,0.8871551334237902
420,0.0002225316275143996,1.0,0.42206871509552,0.8871551334237902
421,0.00022150445147417486,1.0,0.4222164750099182,0.8871551334237902
422,0.00022047606762498617,1.0,0.42237377166748047,0.8871551334237902
423,0.00021945602202322334,1.0,0.42253363132476807,0.8871551334237902
424,0.0002184443292208016,1.0,0.4226996898651123,0.8871551334237902
425,0.00021743860270362347,1.0,0.4228634238243103,0.8871551334237902
426,0.00021643641230184585,1.0,0.4230269491672516,0.8871551334237902
427,0.00021545212075579911,1.0,0.4231809377670288,0.8871551334237902
428,0.00021446544269565493,1.0,0.42334502935409546,0.8871551334237902
429,0.00021348829613998532,1.0,0.4235040843486786,0.8871551334237902
430,0.00021251710131764412,1.0,0.4236590564250946,0.8871551334237902
431,0.00021155305148568004,1.0,0.4238135814666748,0.8871551334237902
432,0.00021060211292933673,1.0,0.4239603579044342,0.8871551334237902
433,0.00020965236763004214,1.0,0.42410895228385925,0.8871551334237902
434,0.00020870380103588104,1.0,0.42425239086151123,0.8871551334237902
435,0.00020776715246029198,1.0,0.4244067966938019,0.8871551334237902
436,0.000206838856684044,1.0,0.4245721399784088,0.8871551334237902
437,0.00020591412612702698,1.0,0.42473194003105164,0.8871551334237902
438,0.00020499176753219217,1.0,0.4248870015144348,0.8871551334237902
439,0.00020408611453603953,1.0,0.4250396490097046,0.8871551334237902
440,0.00020317803137004375,1.0,0.4251955449581146,0.8871551334237902
441,0.00020227237837389112,1.0,0.4253619313240051,0.8871551334237902
442,0.0002013857738347724,1.0,0.42551741003990173,0.8871551334237902
443,0.0002004979905905202,1.0,0.4256618320941925,0.8871551334237902
444,0.00019962209626100957,1.0,0.4258137345314026,0.8871551334237902
445,0.00019874742429237813,1.0,0.42596980929374695,0.8871551334237902
446,0.00019786912889685482,1.0,0.4261276423931122,0.8871551334237902
447,0.00019700994016602635,1.0,0.4262794256210327,0.8871551334237902
448,0.0001961578818736598,1.0,0.42642298340797424,0.8871551334237902
449,0.0001952986785909161,1.0,0.42656806111335754,0.8871551334237902
450,0.00019445497309789062,1.0,0.4267253875732422,0.8871551334237902
451,0.00019360646547283977,1.0,0.42689016461372375,0.8871551334237902
452,0.00019277587125543505,1.0,0.42704689502716064,0.8871551334237902
453,0.00019194405467715114,1.0,0.4271875023841858,0.8871551334237902
454,0.00019111820438411087,1.0,0.427325963973999,0.8871551334237902
455,0.00019030547991860658,1.0,0.4274709224700928,0.8871551334237902
456,0.0001894903543870896,1.0,0.42761802673339844,0.8871551334237902
457,0.00018867760081775486,1.0,0.427761971950531,0.8871551334237902
458,0.00018787560111377388,1.0,0.42790526151657104,0.8871551334237902
459,0.00018707956769503653,1.0,0.4280606806278229,0.8871551334237902
460,0.0001862834906205535,1.0,0.42822158336639404,0.8871551334237902
461,0.00018549816741142422,1.0,0.4283793866634369,0.8871551334237902
462,0.00018471520161256194,1.0,0.42851653695106506,0.8871551334237902
463,0.00018393463687971234,1.0,0.4286492168903351,0.8871551334237902
464,0.00018316956993658096,1.0,0.42879313230514526,0.8871551334237902
465,0.00018239732889924198,1.0,0.4289439916610718,0.8871551334237902
466,0.00018163700588047504,1.0,0.42909762263298035,0.8871551334237902
467,0.00018087311764247715,1.0,0.4292394816875458,0.8871551334237902
468,0.0001801330508897081,1.0,0.4293690323829651,0.8871551334237902
469,0.00017938345263246447,1.0,0.4295041561126709,0.8871551334237902
470,0.00017863746325019747,1.0,0.42964544892311096,0.8871551334237902
471,0.00017788786499295384,1.0,0.4297943711280823,0.8871551334237902
472,0.00017716210277285427,1.0,0.42994579672813416,0.8871551334237902
473,0.00017643514729570597,1.0,0.43008697032928467,0.8871551334237902
474,0.00017570222553331405,1.0,0.4302216172218323,0.8871551334237902
475,0.00017498362285550684,1.0,0.4303591847419739,0.8871551334237902
476,0.00017427215061616153,1.0,0.43049201369285583,0.8871551334237902
477,0.0001735547266434878,1.0,0.4306260943412781,0.8871551334237902
478,0.00017284564091823995,1.0,0.4307686984539032,0.8871551334237902
479,0.00017214372928719968,1.0,0.4309123754501343,0.8871551334237902
480,0.00017144774028565735,1.0,0.43105825781822205,0.8871551334237902
481,0.0001707493793219328,1.0,0.4311927556991577,0.8871551334237902
482,0.000170064129633829,1.0,0.4313182830810547,0.8871551334237902
483,0.00016937650798354298,1.0,0.4314371347427368,0.8871551334237902
484,0.00016869483806658536,1.0,0.43156903982162476,0.8871551334237902
485,0.0001680119603406638,1.0,0.43170660734176636,0.8871551334237902
486,0.00016734696691855788,1.0,0.4318395256996155,0.8871551334237902
487,0.00016668315220158547,1.0,0.43196672201156616,0.8871551334237902
488,0.00016601815877947956,1.0,0.432097464799881,0.8871551334237902
489,0.0001653555518714711,1.0,0.43223658204078674,0.8871551334237902
490,0.0001646905584493652,1.0,0.4323789179325104,0.8871551334237902
491,0.00016404104826506227,1.0,0.4325192868709564,0.8871551334237902
492,0.00016339273133780807,1.0,0.4326549768447876,0.8871551334237902
493,0.00016274439985863864,1.0,0.43278083205223083,0.8871551334237902
494,0.00016210204921662807,1.0,0.43291085958480835,0.8871551334237902
495,0.00016146208508871496,1.0,0.43305328488349915,0.8871551334237902
496,0.00016083284572232515,1.0,0.43320003151893616,0.8871551334237902
497,0.00016020001203287393,1.0,0.43333905935287476,0.8871551334237902
498,0.0001595755311427638,1.0,0.4334779977798462,0.8871551334237902
499,0.0001589581952430308,1.0,0.4336135685443878,0.8871551334237902
500,0.00015833369980100542,1.0,0.4337400794029236,0.8871551334237902
501,0.00015771875041536987,1.0,0.4338633716106415,0.8871551334237902
502,0.00015709904255345464,1.0,0.4339824616909027,0.8871551334237902
503,0.00015649720444343984,1.0,0.434104323387146,0.8871551334237902
504,0.00015589296526741236,1.0,0.43423953652381897,0.8871551334237902
505,0.00015529351367149502,1.0,0.4343797564506531,0.8871551334237902
506,0.00015468809579033405,1.0,0.434528648853302,0.8871551334237902
507,0.0001540957746328786,1.0,0.4346761703491211,0.8871551334237902
508,0.00015350703324656934,1.0,0.4348137676715851,0.8871551334237902
509,0.0001529230794403702,1.0,0.434954434633255,0.8871551334237902
510,0.00015233790327329189,1.0,0.4350872039794922,0.8871551334237902
511,0.00015176586748566478,1.0,0.4352100193500519,0.8871551334237902
512,0.0001511818845756352,1.0,0.435335636138916,0.8871551334237902
513,0.0001506026746938005,1.0,0.4354645013809204,0.8871551334237902
514,0.000150027044583112,1.0,0.4355883300304413,0.8871551334237902
515,0.00014946333249099553,1.0,0.4357095956802368,0.8871551334237902
516,0.00014890318561811,1.0,0.43584170937538147,0.8871551334237902
517,0.0001483335072407499,1.0,0.4359775185585022,0.8871551334237902
518,0.00014778648619540036,1.0,0.4361099600791931,0.8871551334237902
519,0.00014723467756994069,1.0,0.43624433875083923,0.8871551334237902
520,0.00014667693176306784,1.0,0.43637990951538086,0.8871551334237902
521,0.00014613347593694925,1.0,0.436515212059021,0.8871551334237902
522,0.0001455816818634048,1.0,0.4366415739059448,0.8871551334237902
523,0.0001450429845135659,1.0,0.4367679953575134,0.8871551334237902
524,0.00014449715672526509,1.0,0.4368923008441925,0.8871551334237902
525,0.0001439715560991317,1.0,0.437034010887146,0.8871551334237902
526,0.00014343287330120802,1.0,0.43717527389526367,0.8871551334237902
527,0.0001429001276846975,1.0,0.4373055696487427,0.8871551334237902
528,0.00014236858987715095,1.0,0.43741893768310547,0.8871551334237902
529,0.00014185253530740738,1.0,0.4375359117984772,0.8871551334237902
530,0.00014133172226138413,1.0,0.4376648962497711,0.8871551334237902
531,0.0001408073294442147,1.0,0.4377904534339905,0.8871551334237902
532,0.0001402889029122889,1.0,0.4379197359085083,0.8871551334237902
533,0.00013978953938931227,1.0,0.4380548298358917,0.8871551334237902
534,0.00013926991960033774,1.0,0.4381922483444214,0.8871551334237902
535,0.00013876338198315352,1.0,0.43832677602767944,0.8871551334237902
536,0.00013825447240378708,1.0,0.43844684958457947,0.8871551334237902
537,0.00013774677063338459,1.0,0.4385640621185303,0.8871551334237902
538,0.00013725098688155413,1.0,0.438688725233078,0.8871551334237902
539,0.00013675638183485717,1.0,0.4388181269168854,0.8871551334237902
540,0.0001362605980830267,1.0,0.43894386291503906,0.8871551334237902
541,0.00013577313802670687,1.0,0.4390634000301361,0.8871551334237902
542,0.0001352821127511561,1.0,0.43919217586517334,0.8871551334237902
543,0.0001347910874756053,1.0,0.43932387232780457,0.8871551334237902
544,0.00013430838589556515,1.0,0.4394495189189911,0.8871551334237902
545,0.00013383643818087876,1.0,0.43956708908081055,0.8871551334237902
546,0.00013334779941942543,1.0,0.4396897852420807,0.8871551334237902
547,0.0001328758371528238,1.0,0.4398232102394104,0.8871551334237902
548,0.00013239790860097855,1.0,0.43994688987731934,0.8871551334237902
549,0.00013192596088629216,1.0,0.4400627017021179,0.8871551334237902
550,0.0001314539840677753,1.0,0.440178245306015,0.8871551334237902
551,0.00013099155330564827,1.0,0.44029635190963745,0.8871551334237902
552,0.00013051960559096187,1.0,0.4404212236404419,0.8871551334237902
553,0.00013006074004806578,1.0,0.4405495226383209,0.8871551334237902
554,0.00012960666208527982,1.0,0.44067123532295227,0.8871551334237902
555,0.0001291454245802015,1.0,0.44080057740211487,0.8871551334237902
556,0.00012869610509369522,1.0,0.44093334674835205,0.8871551334237902
557,0.0001282443990930915,1.0,0.44105955958366394,0.8871551334237902
558,0.00012779865937773138,1.0,0.4411851167678833,0.8871551334237902
559,0.00012734814663417637,1.0,0.4413105547428131,0.8871551334237902
560,0.00012690716539509594,1.0,0.4414277672767639,0.8871551334237902
561,0.00012646261893678457,1.0,0.44154495000839233,0.8871551334237902
562,0.00012602163769770414,1.0,0.44166678190231323,0.8871551334237902
563,0.00012558423622976989,1.0,0.4417954683303833,0.8871551334237902
564,0.00012514801346696913,1.0,0.44192254543304443,0.8871551334237902
565,0.00012471778609324247,1.0,0.4420451521873474,0.8871551334237902
566,0.00012428393529262394,1.0,0.4421619176864624,0.8871551334237902
567,0.00012385727313812822,1.0,0.44227272272109985,0.8871551334237902
568,0.00012343058187980205,1.0,0.4423834979534149,0.8871551334237902
569,0.00012301224342081696,1.0,0.4425016939640045,0.8871551334237902
570,0.00012259033974260092,1.0,0.4426257312297821,0.8871551334237902
571,0.00012216843606438488,1.0,0.44275549054145813,0.8871551334237902
572,0.00012174771109130234,1.0,0.44287818670272827,0.8871551334237902
573,0.00012134129065088928,1.0,0.4429911673069,0.8871551334237902
574,0.00012092175893485546,1.0,0.44309622049331665,0.8871551334237902
575,0.00012051891098963097,1.0,0.443214476108551,0.8871551334237902
576,0.00012011250510113314,1.0,0.44333815574645996,0.8871551334237902
577,0.00011971084313699976,1.0,0.4434613585472107,0.8871551334237902
578,0.00011930322943953797,1.0,0.4435809254646301,0.8871551334237902
579,0.0001189015747513622,1.0,0.4437029957771301,0.8871551334237902
580,0.00011850112059619278,1.0,0.44382011890411377,0.8871551334237902
581,0.0001181101833935827,1.0,0.44393861293792725,0.8871551334237902
582,0.00011771449499065056,1.0,0.44404906034469604,0.8871551334237902
583,0.00011731760605471209,1.0,0.4441535174846649,0.8871551334237902
584,0.00011692310363287106,1.0,0.4442674219608307,0.8871551334237902
585,0.00011653576075332239,1.0,0.44437921047210693,0.8871551334237902
586,0.00011614244431257248,1.0,0.4444970488548279,0.8734402852049911
587,0.00011576700489968061,1.0,0.44461676478385925,0.8734402852049911
588,0.00011537488171597943,1.0,0.44472938776016235,0.8734402852049911
589,0.00011499467655085027,1.0,0.44483527541160583,0.8734402852049911
590,0.00011462401016615331,1.0,0.4449423849582672,0.8734402852049911
591,0.00011424143303884193,1.0,0.44505050778388977,0.8734402852049911
592,0.00011386122059775516,1.0,0.44516721367836,0.8734402852049911
593,0.00011349174747010693,1.0,0.4452856481075287,0.8734402852049911
594,0.0001131175085902214,1.0,0.4453980624675751,0.8734402852049911
595,0.00011274326243437827,1.0,0.4455047845840454,0.8734402852049911
596,0.00011237617582082748,1.0,0.4456167221069336,0.8734402852049911
597,0.00011200788139831275,1.0,0.4457264244556427,0.8734402852049911
598,0.00011165031901327893,1.0,0.4458242654800415,0.8734402852049911
599,0.00011128680489491671,1.0,0.4459270238876343,0.8734402852049911
600,0.00011092209751950577,1.0,0.4460350573062897,0.8734402852049911
601,0.00011055857612518594,1.0,0.44615447521209717,0.8734402852049911
602,0.00011021055252058432,1.0,0.4462740123271942,0.8734402852049911
603,0.00010985060362145305,1.0,0.4463922083377838,0.8734402852049911
604,0.00010949424176942557,1.0,0.44650962948799133,0.8734402852049911
605,0.00010914144513662905,1.0,0.4466213881969452,0.8734402852049911
606,0.00010879341425606981,1.0,0.44672271609306335,0.8734402852049911
607,0.00010844659118447453,1.0,0.44682517647743225,0.8734402852049911
608,0.00010809260129462928,1.0,0.44693613052368164,0.8734402852049911
609,0.0001077517299563624,1.0,0.44704291224479675,0.8734402852049911
610,0.00010740965080913156,1.0,0.4471467435359955,0.8734402852049911
611,0.00010706282046157867,1.0,0.44724711775779724,0.8734402852049911
612,0.0001067231351044029,1.0,0.4473474323749542,0.8734402852049911
613,0.00010638106323312968,1.0,0.4474515914916992,0.8734402852049911
614,0.00010604854469420388,1.0,0.4475565254688263,0.8734402852049911
615,0.00010571123857516795,1.0,0.4476575255393982,0.8734402852049911
616,0.00010538108472246677,1.0,0.4477631747722626,0.8734402852049911
617,0.00010503306839382276,1.0,0.4478759765625,0.8734402852049911
618,0.00010471601854078472,1.0,0.4479849636554718,0.8734402852049911
619,0.00010437752644065768,1.0,0.44808995723724365,0.8734402852049911
620,0.00010405691136838868,1.0,0.44819602370262146,0.8734402852049911
621,0.00010372317774454132,1.0,0.4483032524585724,0.8734402852049911
622,0.0001034013694152236,1.0,0.44841283559799194,0.8734402852049911
623,0.00010307002230547369,1.0,0.44852903485298157,0.8734402852049911
624,0.00010275060776621103,1.0,0.4486443102359772,0.8734402852049911
625,0.00010243595170322806,1.0,0.4487520158290863,0.8734402852049911
626,0.00010211414337391034,1.0,0.4488619863986969,0.8734402852049911
627,0.00010179353557759896,1.0,0.4489639699459076,0.8734402852049911
628,0.0001014800654957071,1.0,0.4490581750869751,0.8734402852049911
629,0.00010116302291862667,1.0,0.44916045665740967,0.8734402852049911
630,0.00010085074609378353,1.0,0.44927284121513367,0.8734402852049911
631,0.00010054086305899546,1.0,0.4493868052959442,0.8734402852049911
632,0.00010023096547229216,1.0,0.44949015974998474,0.8734402852049911
633,9.991153638111427e-05,1.0,0.4495916962623596,0.8734402852049911
634,9.961476462194696e-05,1.0,0.4496955871582031,0.8734402852049911
635,9.930606756825e-05,1.0,0.4498054087162018,0.8734402852049911
636,9.899498400045559e-05,1.0,0.44991812109947205,0.8734402852049911
637,9.870177018456161e-05,1.0,0.4500194489955902,0.8734402852049911
638,9.839664562605321e-05,1.0,0.4501151144504547,0.8734402852049911
639,9.809510811464861e-05,1.0,0.450213760137558,0.8734402852049911
640,9.778879029909149e-05,1.0,0.45032042264938354,0.8734402852049911
641,9.749558375915512e-05,1.0,0.45042526721954346,0.8734402852049911
642,9.719999070512131e-05,1.0,0.4505217969417572,0.8734402852049911
643,9.689486614661291e-05,1.0,0.45061805844306946,0.8734402852049911
644,9.660880459705368e-05,1.0,0.45072120428085327,0.8734402852049911
645,9.63191851042211e-05,1.0,0.4508343040943146,0.8734402852049911
646,9.602359205018729e-05,1.0,0.4509522616863251,0.8734402852049911
647,9.573395800543949e-05,1.0,0.45105841755867004,0.8734402852049911
648,9.545268403599039e-05,1.0,0.45115798711776733,0.8734402852049911
649,9.516900172457099e-05,1.0,0.45125457644462585,0.8734402852049911
650,9.488056093687192e-05,1.0,0.45134997367858887,0.8734402852049911
651,9.458616113988683e-05,1.0,0.4514467418193817,0.8734402852049911
652,9.4303693913389e-05,1.0,0.4515497386455536,0.8734402852049911
653,9.402120485901833e-05,1.0,0.45165517926216125,0.8734402852049911
654,9.374348883284256e-05,1.0,0.45176181197166443,0.8734402852049911
655,9.34657800826244e-05,1.0,0.4518672823905945,0.8734402852049911
656,9.318805678049102e-05,1.0,0.4519711136817932,0.8734402852049911
657,9.290439629694447e-05,1.0,0.45207586884498596,0.8734402852049911
658,9.263025276595727e-05,1.0,0.45217978954315186,0.8734402852049911
659,9.235254401573911e-05,1.0,0.45228034257888794,0.8734402852049911
660,9.207840776070952e-05,1.0,0.4523749351501465,0.8734402852049911
661,9.180187771562487e-05,1.0,0.4524739384651184,0.8734402852049911
662,9.153369319392368e-05,1.0,0.4525771737098694,0.8734402852049911
663,9.126672375714406e-05,1.0,0.4526769816875458,0.8734402852049911
664,9.098662121687084e-05,1.0,0.45277640223503113,0.8734402852049911
665,9.072798275155947e-05,1.0,0.45287737250328064,0.8734402852049911
666,9.045503247762099e-05,1.0,0.45297789573669434,0.8734402852049911
667,9.01916209841147e-05,1.0,0.4530733823776245,0.8734402852049911
668,8.992225048132241e-05,1.0,0.45316973328590393,0.8734402852049911
669,8.966002496890724e-05,1.0,0.45327094197273254,0.8734402852049911
670,8.940375846577808e-05,1.0,0.4533630311489105,0.8734402852049911
671,8.913558849599212e-05,1.0,0.4534556567668915,0.8734402852049911
672,8.887695003068075e-05,1.0,0.45355239510536194,0.8734402852049911
673,8.860995876602829e-05,1.0,0.4536517858505249,0.8734402852049911
674,8.836084452923387e-05,1.0,0.4537544846534729,0.8734402852049911
675,8.809743303572759e-05,1.0,0.45385199785232544,0.8734402852049911
676,8.78387872944586e-05,1.0,0.45395147800445557,0.8734402852049911
677,8.759444608585909e-05,1.0,0.4540524184703827,0.8734402852049911
678,8.73358003445901e-05,1.0,0.45415934920310974,0.8734402852049911
679,8.708072709850967e-05,1.0,0.4542621374130249,0.8734402852049911
680,8.682923362357542e-05,1.0,0.454361230134964,0.8734402852049911
681,8.657774014864117e-05,1.0,0.4544576108455658,0.8734402852049911
682,8.632505341665819e-05,1.0,0.45455366373062134,0.8734402852049911
683,8.608071220805869e-05,1.0,0.4546538293361664,0.8734402852049911
684,8.583755698055029e-05,1.0,0.4547581374645233,0.8734402852049911
685,8.558487024856731e-05,1.0,0.45486098527908325,0.8734402852049911
686,8.534410881111398e-05,1.0,0.45496681332588196,0.8734402852049911
687,8.509380859322846e-05,1.0,0.45507511496543884,0.8734402852049911
688,8.485065336572006e-05,1.0,0.45517829060554504,0.8734402852049911
689,8.460749813821167e-05,1.0,0.455269992351532,0.8734402852049911
690,8.4365536167752e-05,1.0,0.4553607106208801,0.8734402852049911
691,8.413072646362707e-05,1.0,0.4554588198661804,0.8734402852049911
692,8.389115828322247e-05,1.0,0.4555651843547821,0.8734402852049911
693,8.364680979866534e-05,1.0,0.45566675066947937,0.8734402852049911
694,8.340842759935185e-05,1.0,0.4557632803916931,0.8734402852049911
695,8.317481842823327e-05,1.0,0.455860435962677,0.8734402852049911
696,8.294238796224818e-05,1.0,0.4559648931026459,0.8734402852049911
697,8.271115075331181e-05,1.0,0.4560660123825073,0.8734402852049911
698,8.247634104918689e-05,1.0,0.4561617076396942,0.8734402852049911
699,8.224153862101957e-05,1.0,0.45625340938568115,0.8734402852049911
700,8.201149466913193e-05,1.0,0.45635122060775757,0.8734402852049911
701,8.177667768904939e-05,1.0,0.4564589560031891,0.8734402852049911
702,8.154902752721682e-05,1.0,0.45656612515449524,0.8734402852049911
703,8.133090886985883e-05,1.0,0.45667293667793274,0.8734402852049911
704,8.1091326137539e-05,1.0,0.45677450299263,0.8734402852049911
705,8.086485468083993e-05,1.0,0.4568727910518646,0.8734402852049911
706,8.064316352829337e-05,1.0,0.45696738362312317,0.8734402852049911
707,8.041549881454557e-05,1.0,0.45705774426460266,0.8734402852049911
708,8.019618690013885e-05,1.0,0.45715346932411194,0.8734402852049911
709,7.997448119567707e-05,1.0,0.45724502205848694,0.8734402852049911
710,7.975397602422163e-05,1.0,0.45733970403671265,0.8734402852049911
711,7.952989835757762e-05,1.0,0.4574412703514099,0.8734402852049911
712,7.93153521954082e-05,1.0,0.45754462480545044,0.8734402852049911
713,7.90876874816604e-05,1.0,0.4576462507247925,0.8734402852049911
714,7.887314859544858e-05,1.0,0.45774754881858826,0.8734402852049911
715,7.865382212912664e-05,1.0,0.4578436315059662,0.8734402852049911
716,7.844404899515212e-05,1.0,0.4579353630542755,0.8734402852049911
717,7.822472252883017e-05,1.0,0.4580330550670624,0.8734402852049911
718,7.80066111474298e-05,1.0,0.4581364393234253,0.8734402852049911
719,7.779086445225403e-05,1.0,0.45823100209236145,0.8734402852049911
720,7.758108404232189e-05,1.0,0.45833075046539307,0.8734402852049911
721,7.73736901464872e-05,1.0,0.45843344926834106,0.8734402852049911
722,7.715437095612288e-05,1.0,0.4585314393043518,0.8734402852049911
723,7.695054955547675e-05,1.0,0.45862776041030884,0.8734402852049911
724,7.674195512663573e-05,1.0,0.4587252736091614,0.8734402852049911
725,7.653218199266121e-05,1.0,0.458828866481781,0.8734402852049911
726,7.631882181158289e-05,1.0,0.4589284062385559,0.8734402852049911
727,7.61161936679855e-05,1.0,0.4590241014957428,0.8734402852049911
728,7.591237226733938e-05,1.0,0.4591177701950073,0.8734402852049911
729,7.569424633402377e-05,1.0,0.45921415090560913,0.8734402852049911
730,7.550830923719332e-05,1.0,0.45931604504585266,0.8734402852049911
731,7.529971480835229e-05,1.0,0.4594166874885559,0.8734402852049911
732,7.509709394071251e-05,1.0,0.4595129191875458,0.8734402852049911
733,7.48837337596342e-05,1.0,0.45960983633995056,0.8734402852049911
734,7.468586409231648e-05,1.0,0.45971038937568665,0.8734402852049911
735,7.448323594871908e-05,1.0,0.4598110616207123,0.8734402852049911
736,7.42853808333166e-05,1.0,0.45991408824920654,0.8734402852049911
737,7.408631790895015e-05,1.0,0.46002015471458435,0.8734402852049911
738,7.388607627945021e-05,1.0,0.4601247310638428,0.8734402852049911
739,7.368463411694393e-05,1.0,0.46022891998291016,0.8734402852049911
740,7.348677900154144e-05,1.0,0.4603272080421448,0.8734402852049911
741,7.329010259127244e-05,1.0,0.460418701171875,0.8734402852049911
742,7.309939246624708e-05,1.0,0.4605094790458679,0.8734402852049911
743,7.289675704669207e-05,1.0,0.4606034755706787,0.8734402852049911
744,7.270366768352687e-05,1.0,0.4607040286064148,0.8734402852049911
745,7.251176430145279e-05,1.0,0.46080729365348816,0.8734402852049911
746,7.231747440528125e-05,1.0,0.46090903878211975,0.8734402852049911
747,7.212795753730461e-05,1.0,0.4610067307949066,0.8734402852049911
748,7.193724741227925e-05,1.0,0.4610958993434906,0.8734402852049911
749,7.173937774496153e-05,1.0,0.46118804812431335,0.8734402852049911
750,7.155582716222852e-05,1.0,0.46128496527671814,0.8734402852049911
751,7.136391650419682e-05,1.0,0.46138784289360046,0.8734402852049911
752,7.117201312212273e-05,1.0,0.46148648858070374,0.8734402852049911
753,7.098964124452323e-05,1.0,0.46158063411712646,0.8734402852049911
754,7.079655188135803e-05,1.0,0.4616764783859253,0.8734402852049911
755,7.061180076561868e-05,1.0,0.46177172660827637,0.8734402852049911
756,7.042346987873316e-05,1.0,0.46186500787734985,0.8734402852049911
757,7.024109800113365e-05,1.0,0.4619608223438263,0.8734402852049911
758,7.005754014244303e-05,1.0,0.462055504322052,0.8734402852049911
759,6.987040251260623e-05,1.0,0.4621502161026001,0.8734402852049911
760,6.969280366320163e-05,1.0,0.46224820613861084,0.8734402852049911
761,6.950805254746228e-05,1.0,0.4623391628265381,0.8734402852049911
762,6.933402619324625e-05,1.0,0.46242663264274597,0.8734402852049911
763,6.913735705893487e-05,1.0,0.4625106751918793,0.8734402852049911
764,6.896690319990739e-05,1.0,0.4625989496707916,0.8734402852049911
765,6.878692511236295e-05,1.0,0.46269887685775757,0.8734402852049911
766,6.861051224404946e-05,1.0,0.4627980589866638,0.8734402852049911
767,6.842338189017028e-05,1.0,0.46289321780204773,0.8734402852049911
768,6.82433892507106e-05,1.0,0.4629896581172943,0.8734402852049911
769,6.806817691540346e-05,1.0,0.46308791637420654,0.8734402852049911
770,6.789653707528487e-05,1.0,0.4631887376308441,0.8734402852049911
771,6.771893094992265e-05,1.0,0.463287353515625,0.8734402852049911
772,6.755087088095024e-05,1.0,0.4633852541446686,0.8734402852049911
773,6.737087824149057e-05,1.0,0.46348053216934204,0.8734402852049911
774,6.720162491546944e-05,1.0,0.4635641276836395,0.8734402852049911
775,6.702044629491866e-05,1.0,0.4636511206626892,0.8734402852049911
776,6.68499997118488e-05,1.0,0.46374911069869995,0.8734402852049911
777,6.667954585282132e-05,1.0,0.4638455808162689,0.8734402852049911
778,6.651028525084257e-05,1.0,0.46394532918930054,0.8734402852049911
779,6.633625889662653e-05,1.0,0.46404600143432617,0.8734402852049911
780,6.61670055706054e-05,1.0,0.464141309261322,0.8734402852049911
781,6.599655171157792e-05,1.0,0.46423810720443726,0.8734402852049911
782,6.582729110959917e-05,1.0,0.4643321931362152,0.8734402852049911
783,6.566041702171788e-05,1.0,0.46442508697509766,0.8734402852049911
784,6.54995019431226e-05,1.0,0.4645150601863861,0.8734402852049911
785,6.532786937896162e-05,1.0,0.4646076560020447,0.8734402852049911
786,6.516337452922016e-05,1.0,0.46470320224761963,0.8734402852049911
787,6.500126619357616e-05,1.0,0.46480074524879456,0.8734402852049911
788,6.484273762907833e-05,1.0,0.4648977518081665,0.8734402852049911
789,6.466632476076484e-05,1.0,0.4649878442287445,0.8734402852049911
790,6.451614171965048e-05,1.0,0.4650774896144867,0.8734402852049911
791,6.433734233723953e-05,1.0,0.465168297290802,0.8734402852049911
792,6.418239354388788e-05,1.0,0.46525946259498596,0.8734402852049911
793,6.401789869414642e-05,1.0,0.46535301208496094,0.8734402852049911
794,6.386055611073971e-05,1.0,0.4654453992843628,0.8734402852049911
795,6.36984477750957e-05,1.0,0.46553561091423035,0.8734402852049911
796,6.353634671540931e-05,1.0,0.465626984834671,0.8734402852049911
797,6.337662489386275e-05,1.0,0.4657232463359833,0.8734402852049911
798,6.322047556750476e-05,1.0,0.4658214747905731,0.8734402852049911
799,6.306314026005566e-05,1.0,0.4659128785133362,0.8734402852049911
800,6.290579767664894e-05,1.0,0.4660016596317291,0.8734402852049911
801,6.274726911215112e-05,1.0,0.46609073877334595,0.8734402852049911
802,6.259588553803042e-05,1.0,0.46618133783340454,0.8734402852049911
803,6.243139068828896e-05,1.0,0.4662771224975586,0.8734402852049911
804,6.227405538083985e-05,1.0,0.4663758873939514,0.8734402852049911
805,6.212267180671915e-05,1.0,0.46647223830223083,0.8734402852049911
806,6.197248148964718e-05,1.0,0.46656641364097595,0.8734402852049911
807,6.181991193443537e-05,1.0,0.4666573107242584,0.8734402852049911
808,6.166972889332101e-05,1.0,0.4667515456676483,0.8734402852049911
809,6.151478009996936e-05,1.0,0.4668436348438263,0.8734402852049911
810,6.136338924989104e-05,1.0,0.4669318199157715,0.8734402852049911
811,6.121201295172796e-05,1.0,0.4670239984989166,0.8734402852049911
812,6.105467036832124e-05,1.0,0.46711626648902893,0.8734402852049911
813,6.090329043217935e-05,1.0,0.4672068655490875,0.8734402852049911
814,6.0754297010134906e-05,1.0,0.46730032563209534,0.8734402852049911
815,6.06076828262303e-05,1.0,0.46739280223846436,0.8734402852049911
816,6.045749250915833e-05,1.0,0.4674827754497528,0.8734402852049911
817,6.030969234416261e-05,1.0,0.467578649520874,0.8734402852049911
818,6.016307816025801e-05,1.0,0.4676723778247833,0.8734402852049911
819,6.001646397635341e-05,1.0,0.4677659571170807,0.8734402852049911
820,5.987343320157379e-05,1.0,0.4678575098514557,0.8734402852049911
821,5.973158113192767e-05,1.0,0.4679501950740814,0.8734402852049911
822,5.9579015214694664e-05,1.0,0.46803876757621765,0.8734402852049911
823,5.94395532971248e-05,1.0,0.46812698245048523,0.8734402852049911
824,5.928578684688546e-05,1.0,0.4682126045227051,0.8734402852049911
825,5.91463249293156e-05,1.0,0.4683022201061249,0.8734402852049911
826,5.900448013562709e-05,1.0,0.4683992266654968,0.8734402852049911
827,5.886621511308476e-05,1.0,0.46849524974823,0.8734402852049911
828,5.8721983805298805e-05,1.0,0.4685911536216736,0.8734402852049911
829,5.857537325937301e-05,1.0,0.46867552399635315,0.8734402852049911
830,5.843590770382434e-05,1.0,0.4687582552433014,0.8734402852049911
831,5.829525616718456e-05,1.0,0.4688478708267212,0.8734402852049911
832,5.816175325890072e-05,1.0,0.46893951296806335,0.8734402852049911
833,5.801514635095373e-05,1.0,0.4690305292606354,0.8734402852049911
834,5.787925692857243e-05,1.0,0.46911582350730896,0.8734402852049911
835,5.7736222515814006e-05,1.0,0.46920233964920044,0.8734402852049911
836,5.7597950217314065e-05,1.0,0.46929052472114563,0.8734402852049911
837,5.74632576899603e-05,1.0,0.469379723072052,0.8734402852049911
838,5.732260615332052e-05,1.0,0.46946975588798523,0.8734402852049911
839,5.7185527111869305e-05,1.0,0.46956124901771545,0.8734402852049911
840,5.705441071768291e-05,1.0,0.4696539342403412,0.8734402852049911
841,5.6913755543064326e-05,1.0,0.4697468876838684,0.8734402852049911
842,5.678025263478048e-05,1.0,0.4698399305343628,0.8734402852049911
843,5.664794662152417e-05,1.0,0.46992743015289307,0.8734402852049911
844,5.651683022733778e-05,1.0,0.4700068533420563,0.8734402852049911
845,5.6382137699984014e-05,1.0,0.47008615732192993,0.8734402852049911
846,5.624863115372136e-05,1.0,0.47017088532447815,0.8734402852049911
847,5.611036249320023e-05,1.0,0.47026118636131287,0.8734402852049911
848,5.598043935606256e-05,1.0,0.4703562557697296,0.8734402852049911
849,5.585050894296728e-05,1.0,0.47044965624809265,0.8734402852049911
850,5.572177906287834e-05,1.0,0.4705390930175781,0.8734402852049911
851,5.559423880185932e-05,1.0,0.4706248641014099,0.8734402852049911
852,5.5457156122429296e-05,1.0,0.47071319818496704,0.8734402852049911
853,5.533438525162637e-05,1.0,0.4708003103733063,0.8734402852049911
854,5.519849946722388e-05,1.0,0.4708798825740814,0.8734402852049911
855,5.506976231117733e-05,1.0,0.47096315026283264,0.8734402852049911
856,5.4938645916990936e-05,1.0,0.4710494577884674,0.8734402852049911
857,5.4812295275041834e-05,1.0,0.4711349308490753,0.8734402852049911
858,5.468475501402281e-05,1.0,0.4712224006652832,0.8734402852049911
859,5.4557211115024984e-05,1.0,0.47130751609802246,0.8734402852049911
860,5.443205373012461e-05,1.0,0.4713960587978363,0.8734402852049911
861,5.430808960227296e-05,1.0,0.4714861810207367,0.8734402852049911
862,5.417458669398911e-05,1.0,0.4715721011161804,0.8734402852049911
863,5.40530018042773e-05,1.0,0.4716525673866272,0.8734402852049911
864,5.393261380959302e-05,1.0,0.471740186214447,0.8734402852049911
865,5.380983930081129e-05,1.0,0.47183531522750854,0.8734402852049911
866,5.367991252569482e-05,1.0,0.4719300866127014,0.8734402852049911
867,5.355117900762707e-05,1.0,0.47201988101005554,0.8734402852049911
868,5.342840449884534e-05,1.0,0.4721050262451172,0.8734402852049911
869,5.3311588999349624e-05,1.0,0.47219133377075195,0.8734402852049911
870,5.31840487383306e-05,1.0,0.4722847640514374,0.8734402852049911
871,5.306485036271624e-05,1.0,0.47237807512283325,0.8734402852049911
872,5.294445873005316e-05,1.0,0.4724661409854889,0.8734402852049911
873,5.28204909642227e-05,1.0,0.4725525677204132,0.8734402852049911
874,5.269771281746216e-05,1.0,0.47263893485069275,0.8734402852049911
875,5.257732482277788e-05,1.0,0.4727296233177185,0.8734402852049911
876,5.246050932328217e-05,1.0,0.47282177209854126,0.8734402852049911
877,5.2338924433570355e-05,1.0,0.4729091227054596,0.8734402852049911
878,5.221734681981616e-05,1.0,0.4729883372783661,0.8734402852049911
879,5.2099338063271716e-05,1.0,0.47306686639785767,0.8734402852049911
880,5.198371582082473e-05,1.0,0.47315099835395813,0.8734402852049911
881,5.186690032132901e-05,1.0,0.473239541053772,0.8734402852049911
882,5.1746512326644734e-05,1.0,0.47332635521888733,0.8734402852049911
883,5.16285072080791e-05,1.0,0.4734130799770355,0.8734402852049911
884,5.1510502089513466e-05,1.0,0.473502516746521,0.8734402852049911
885,5.1396069466136396e-05,1.0,0.47359004616737366,0.8734402852049911
886,5.128401971887797e-05,1.0,0.47367575764656067,0.8734402852049911
887,5.1163628086214885e-05,1.0,0.4737582206726074,0.8734402852049911
888,5.1052775233983994e-05,1.0,0.47383731603622437,0.8734402852049911
889,5.093953586765565e-05,1.0,0.473916620016098,0.8734402852049911
890,5.082510324427858e-05,1.0,0.473996639251709,0.8734402852049911
891,5.070113911642693e-05,1.0,0.4740830957889557,0.8734402852049911
892,5.059266186435707e-05,1.0,0.474170446395874,0.8734402852049911
893,5.048061575507745e-05,1.0,0.47426047921180725,0.8734402852049911
894,5.0360224122414365e-05,1.0,0.474344402551651,0.8734402852049911
895,5.025652717449702e-05,1.0,0.4744289219379425,0.8734402852049911
896,5.014447378925979e-05,1.0,0.47451362013816833,0.8734402852049911
897,5.0034814194077626e-05,1.0,0.47459501028060913,0.8734402852049911
898,4.991919195163064e-05,1.0,0.47468021512031555,0.8734402852049911
899,4.9810714699560776e-05,1.0,0.4747704863548279,0.8734402852049911
900,4.9695096095092595e-05,1.0,0.47486555576324463,0.8734402852049911
901,4.9587819376029074e-05,1.0,0.474954754114151,0.8734402852049911
902,4.947934576193802e-05,1.0,0.4750387966632843,0.8734402852049911
903,4.936849290970713e-05,1.0,0.475117564201355,0.8734402852049911
904,4.926001565763727e-05,1.0,0.4751978814601898,0.8734402852049911
905,4.915512181469239e-05,1.0,0.47528067231178284,0.8734402852049911
906,4.904307206743397e-05,1.0,0.4753660559654236,0.8734402852049911
907,4.892983997706324e-05,1.0,0.47545161843299866,0.8734402852049911
908,4.8834474000614136e-05,1.0,0.4755367040634155,0.8734402852049911
909,4.872123463428579e-05,1.0,0.47561880946159363,0.8734402852049911
910,4.861157140112482e-05,1.0,0.47570404410362244,0.8734402852049911
911,4.851144694839604e-05,1.0,0.47579076886177063,0.8734402852049911
912,4.839939720113762e-05,1.0,0.47587957978248596,0.8734402852049911
913,4.829211684409529e-05,1.0,0.4759674072265625,0.8734402852049911
914,4.818721936317161e-05,1.0,0.47605204582214355,0.8734402852049911
915,4.8077556130010635e-05,1.0,0.47613799571990967,0.8734402852049911
916,4.7977431677281857e-05,1.0,0.47622138261795044,0.8734402852049911
917,4.787133730133064e-05,1.0,0.47630441188812256,0.8734402852049911
918,4.777121648658067e-05,1.0,0.476388156414032,0.8734402852049911
919,4.7662742872489616e-05,1.0,0.47646644711494446,0.8734402852049911
920,4.7561421524733305e-05,1.0,0.47654059529304504,0.8734402852049911
921,4.7462486691074446e-05,1.0,0.4766172766685486,0.8734402852049911
922,4.735640322905965e-05,1.0,0.4766986072063446,0.8734402852049911
923,4.725389226223342e-05,1.0,0.4767855107784271,0.8734402852049911
924,4.7153764171525836e-05,1.0,0.476875364780426,0.8734402852049911
925,4.7048863052623346e-05,1.0,0.4769628047943115,0.8734402852049911
926,4.6938010200392455e-05,1.0,0.4770453870296478,0.8734402852049911
927,4.684861050918698e-05,1.0,0.4771270155906677,0.8734402852049911
928,4.6748486056458205e-05,1.0,0.4772084057331085,0.8734402852049911
929,4.664477819460444e-05,1.0,0.4772936999797821,0.8734402852049911
930,4.654346048482694e-05,1.0,0.47737860679626465,0.8734402852049911
931,4.644452201318927e-05,1.0,0.47746139764785767,0.8734402852049911
932,4.6344393922481686e-05,1.0,0.47754064202308655,0.8734402852049911
933,4.6241882955655456e-05,1.0,0.4776173233985901,0.8734402852049911
934,4.6145327360136434e-05,1.0,0.47769156098365784,0.8734402852049911
935,4.60475857835263e-05,1.0,0.47776708006858826,0.8734402852049911
936,4.59462680737488e-05,1.0,0.47784820199012756,0.8734402852049911
937,4.5848526497138664e-05,1.0,0.4779290556907654,0.8734402852049911
938,4.575077764457092e-05,1.0,0.4780130982398987,0.8734402852049911
939,4.565541894407943e-05,1.0,0.4780968129634857,0.8734402852049911
940,4.5555287215393037e-05,1.0,0.4781781733036041,0.8734402852049911
941,4.54670844192151e-05,1.0,0.4782579839229584,0.8734402852049911
942,4.536338019534014e-05,1.0,0.47834068536758423,0.8734402852049911
943,4.5268017856869847e-05,1.0,0.47842398285865784,0.8734402852049911
944,4.516669287113473e-05,1.0,0.47850391268730164,0.8734402852049911
945,4.5072527427691966e-05,1.0,0.47858041524887085,0.8734402852049911
946,4.498432463151403e-05,1.0,0.47865399718284607,0.8734402852049911
947,4.488896593102254e-05,1.0,0.47873204946517944,0.8734402852049911
948,4.479241033550352e-05,1.0,0.4788185656070709,0.8734402852049911
949,4.470301064429805e-05,1.0,0.4789060056209564,0.8734402852049911
950,4.460764830582775e-05,1.0,0.4789893925189972,0.8734402852049911
951,4.450871347216889e-05,1.0,0.47907423973083496,0.8734402852049911
952,4.441692726686597e-05,1.0,0.4791547358036041,0.8734402852049911
953,4.4325141061563045e-05,1.0,0.4792330861091614,0.8734402852049911
954,4.422859274200164e-05,1.0,0.47931021451950073,0.8734402852049911
955,4.4139193050796166e-05,1.0,0.47938960790634155,0.8734402852049911
956,4.404264109325595e-05,1.0,0.4794691801071167,0.8734402852049911
957,4.3952048145001754e-05,1.0,0.4795475900173187,0.8734402852049911
958,4.3857879063580185e-05,1.0,0.47962814569473267,0.8734402852049911
959,4.3768475734395906e-05,1.0,0.47971200942993164,0.8734402852049911
960,4.367669316707179e-05,1.0,0.4797940254211426,0.8734402852049911
961,4.358729347586632e-05,1.0,0.47987380623817444,0.8734402852049911
962,4.349908704170957e-05,1.0,0.4799518585205078,0.8734402852049911
963,4.339895531302318e-05,1.0,0.48002851009368896,0.8734402852049911
964,4.3313135392963886e-05,1.0,0.48010730743408203,0.8734402852049911
965,4.3229691073065624e-05,1.0,0.4801909625530243,0.8734402852049911
966,4.313910176279023e-05,1.0,0.4802749454975128,0.8734402852049911
967,4.304731555748731e-05,1.0,0.48035886883735657,0.8734402852049911
968,4.295075996196829e-05,1.0,0.4804425835609436,0.8734402852049911
969,4.286136390874162e-05,1.0,0.4805220067501068,0.8734402852049911
970,4.277315383660607e-05,1.0,0.4806014895439148,0.8734402852049911
971,4.2690902773756534e-05,1.0,0.48067978024482727,0.8734402852049911
972,4.2590778321027756e-05,1.0,0.48075565695762634,0.8734402852049911
973,4.250852725817822e-05,1.0,0.4808332622051239,0.8734402852049911
974,4.241912392899394e-05,1.0,0.48091474175453186,0.8734402852049911
975,4.233568688505329e-05,1.0,0.4809979796409607,0.8734402852049911
976,4.224390067975037e-05,1.0,0.4810827970504761,0.8734402852049911
977,4.215807712171227e-05,1.0,0.4811585545539856,0.8734402852049911
978,4.207106394460425e-05,1.0,0.48123496770858765,0.8734402852049911
979,4.198881288175471e-05,1.0,0.48131486773490906,0.8734402852049911
980,4.189822357147932e-05,1.0,0.4813959300518036,0.8734402852049911
981,4.181120311841369e-05,1.0,0.48147979378700256,0.8734402852049911
982,4.172538319835439e-05,1.0,0.48155897855758667,0.8734402852049911
983,4.1638366383267567e-05,1.0,0.481636106967926,0.8734402852049911
984,4.155134593020193e-05,1.0,0.4817131757736206,0.8734402852049911
985,4.146552601014264e-05,1.0,0.4817889928817749,0.8734402852049911
986,4.138207805226557e-05,1.0,0.4818649888038635,0.8734402852049911
987,4.1292681999038905e-05,1.0,0.48194244503974915,0.8734402852049911
988,4.121043093618937e-05,1.0,0.4820266366004944,0.8734402852049911
989,4.1130566387437284e-05,1.0,0.4821099042892456,0.8734402852049911
990,4.104593608644791e-05,1.0,0.48218992352485657,0.8734402852049911
991,4.095772601431236e-05,1.0,0.4822652339935303,0.8734402852049911
992,4.088024434167892e-05,1.0,0.48234081268310547,0.8734402852049911
993,4.078965503140353e-05,1.0,0.48242056369781494,0.8734402852049911
994,4.070740396855399e-05,1.0,0.4824991524219513,0.8734402852049911
995,4.062873267685063e-05,1.0,0.48257529735565186,0.8734402852049911
996,4.054409873788245e-05,1.0,0.48265570402145386,0.8734402852049911
997,4.046304093208164e-05,1.0,0.48273250460624695,0.8734402852049911
998,4.0377221012022346e-05,1.0,0.48281005024909973,0.8734402852049911
999,4.029973933938891e-05,1.0,0.48289045691490173,0.8734402852049911
