,loss,recall,val_loss,val_recall
0,0.6299018263816833,0.5388986013986015,0.6075016856193542,0.5366071428571428
1,0.4956815540790558,0.7195839874411302,0.554916501045227,0.7896825396825397
2,0.4353400766849518,0.8229972408543837,0.5191764235496521,0.789795918367347
3,0.39531072974205017,0.8854395604395604,0.4573448598384857,0.7834106369820656
4,0.36326101422309875,0.8854395604395604,0.42382606863975525,0.7995714602857459
5,0.33479228615760803,0.8903096903096903,0.3996448516845703,0.8190270047412903
6,0.31202688813209534,0.8715367965367965,0.39276623725891113,0.8363095238095237
7,0.2936408221721649,0.8715367965367965,0.3693420886993408,0.8626082251082251
8,0.27924808859825134,0.8715367965367965,0.42372986674308777,0.813407029478458
9,0.2834152281284332,0.8904761904761905,0.39160701632499695,0.828486394557823
10,0.2729162275791168,0.8773809523809524,0.40346598625183105,0.8642072213500784
11,0.25160717964172363,0.8774891774891775,0.5044392347335815,0.7273113790970933
12,0.2313266098499298,0.9367346938775512,0.3389589190483093,0.8794475365903937
13,0.2229340821504593,0.9023809523809524,0.3811340034008026,0.8363095238095237
14,0.1910543143749237,0.9200680272108844,0.3041240870952606,0.887749948464234
15,0.19057975709438324,0.9023809523809524,0.31335681676864624,0.8757369614512471
16,0.1727873831987381,0.9285714285714286,0.3092329204082489,0.8755952380952381
17,0.1792277842760086,0.9367346938775512,0.3006540834903717,0.877262420119563
18,0.16679847240447998,0.9333333333333333,0.2908760607242584,0.8757369614512471
19,0.1548658162355423,0.9452380952380953,0.30953308939933777,0.8755952380952381
20,0.14254392683506012,0.9523809523809524,0.30137524008750916,0.8742527313955887
21,0.14571568369865417,0.9452380952380953,0.2983531653881073,0.8889172335600907
22,0.14530277252197266,0.9702380952380951,0.3937598168849945,0.8695578231292517
23,0.17517967522144318,0.9260204081632654,0.4287368655204773,0.7351473922902495
24,0.15477417409420013,0.922077922077922,0.9718003273010254,0.5397108843537415
25,0.1380198448896408,0.9523809523809524,0.7848124504089355,0.6849053724053725
26,0.11418235301971436,0.9523809523809524,0.39163732528686523,0.8663832199546485
27,0.11524387449026108,0.9642857142857143,0.30338552594184875,0.8732142857142857
28,0.09277469664812088,0.9642857142857143,0.30843132734298706,0.8559523809523809
29,0.08152253180742264,0.9761904761904762,0.2894585430622101,0.8792748917748917
30,0.06845119595527649,0.9761904761904762,0.31759756803512573,0.8791666666666667
31,0.0635872334241867,0.9761904761904762,0.28324830532073975,0.8904143475572047
32,0.05430400371551514,0.9761904761904762,0.2877981662750244,0.8840367965367965
33,0.052223388105630875,0.9761904761904762,0.28604158759117126,0.8904143475572047
34,0.056496959179639816,0.9761904761904762,0.30800509452819824,0.8810606060606061
35,0.05292126163840294,0.9761904761904762,0.2808689773082733,0.8953463203463203
36,0.055203814059495926,1.0,0.29442769289016724,0.8795918367346939
37,0.06085702031850815,0.9761904761904762,0.42299574613571167,0.8562960848675134
38,0.047954145818948746,1.0,0.30982398986816406,0.8732142857142857
39,0.051449958235025406,0.9761904761904762,0.39304324984550476,0.8742673992673993
40,0.04977845028042793,1.0,0.6305113434791565,0.7868044653758938
41,0.03802197799086571,1.0,0.52130126953125,0.8387136672850959
42,0.031224815174937248,1.0,0.49834856390953064,0.8181972789115646
43,0.024504780769348145,1.0,0.4369191825389862,0.8750035678607108
44,0.020289024338126183,1.0,0.3134075701236725,0.8904143475572047
45,0.016557039692997932,1.0,0.30947256088256836,0.8934755720470007
46,0.015266361646354198,1.0,0.3628620207309723,0.887121212121212
47,0.013173773884773254,1.0,0.32786986231803894,0.8963667285095855
48,0.012831239961087704,1.0,0.34923288226127625,0.8961038961038962
49,0.012135317549109459,1.0,0.33634018898010254,0.8904143475572047
50,0.01250214222818613,1.0,0.38253435492515564,0.8865063507920651
51,0.012682666070759296,1.0,0.35137397050857544,0.904700061842919
52,0.01519972737878561,1.0,0.41464143991470337,0.8781230674087818
53,0.016221294179558754,1.0,0.36850419640541077,0.9106524427953
54,0.022855916991829872,1.0,0.5013650059700012,0.8870843442272014
55,0.01901834085583687,1.0,0.3432343602180481,0.9023191094619667
56,0.02673151157796383,1.0,0.9275773167610168,0.854421768707483
57,0.02025798335671425,1.0,0.32966962456703186,0.8963667285095855
58,0.017169371247291565,1.0,0.5311337113380432,0.8511940440511869
59,0.012386048212647438,1.0,0.3376273512840271,0.8798701298701298
60,0.01050929632037878,1.0,0.3911702632904053,0.8869047619047619
61,0.008349502459168434,1.0,0.340552419424057,0.8904143475572047
62,0.00698650861158967,1.0,0.3397260010242462,0.8951762523191095
63,0.006085742264986038,1.0,0.36207351088523865,0.8971552257266543
64,0.005487103946506977,1.0,0.35141685605049133,0.9183055040197896
65,0.0050486368127167225,1.0,0.3519374430179596,0.9183055040197896
66,0.004817812237888575,1.0,0.3624933362007141,0.9183055040197896
67,0.004540597554296255,1.0,0.3509947955608368,0.9183055040197896
68,0.004355554468929768,1.0,0.3564758896827698,0.9183055040197896
69,0.004183228127658367,1.0,0.35894161462783813,0.9183055040197896
70,0.004015766084194183,1.0,0.35602355003356934,0.9183055040197896
71,0.003873762208968401,1.0,0.3603037893772125,0.9183055040197896
72,0.0037417858839035034,1.0,0.359672874212265,0.9183055040197896
73,0.0036121380981057882,1.0,0.3610655665397644,0.9183055040197896
74,0.0035025733523070812,1.0,0.3617843985557556,0.9183055040197896
75,0.003389340592548251,1.0,0.362502783536911,0.9183055040197896
76,0.0032905363477766514,1.0,0.36312586069107056,0.9183055040197896
77,0.0031897048465907574,1.0,0.36474600434303284,0.9183055040197896
78,0.0031025807838886976,1.0,0.36441415548324585,0.9183055040197896
79,0.0030084524769335985,1.0,0.3659507632255554,0.9183055040197896
80,0.002931712195277214,1.0,0.3659227192401886,0.9183055040197896
81,0.002844141097739339,1.0,0.3667268455028534,0.9183055040197896
82,0.0027769620064646006,1.0,0.36727574467658997,0.9183055040197896
83,0.0026946193538606167,1.0,0.36874672770500183,0.9183055040197896
84,0.002636511344462633,1.0,0.36826494336128235,0.9183055040197896
85,0.002556377789005637,1.0,0.36886507272720337,0.9183055040197896
86,0.0025051694829016924,1.0,0.37014374136924744,0.9183055040197896
87,0.0024301225785166025,1.0,0.36988094449043274,0.9183055040197896
88,0.0023818649351596832,1.0,0.3720271587371826,0.9183055040197896
89,0.002311011077836156,1.0,0.3699425160884857,0.9183055040197896
90,0.002266576746478677,1.0,0.3735549747943878,0.9183055040197896
91,0.002201150404289365,1.0,0.37182265520095825,0.9183055040197896
92,0.002159703988581896,1.0,0.3749673664569855,0.9183055040197896
93,0.002100026700645685,1.0,0.37294086813926697,0.9183055040197896
94,0.00206028507091105,1.0,0.37601789832115173,0.9183055040197896
95,0.0020052653271704912,1.0,0.3747473359107971,0.9183055040197896
96,0.0019690750632435083,1.0,0.3766765892505646,0.9183055040197896
97,0.0019182360265403986,1.0,0.3762337565422058,0.9183055040197896
98,0.001883589313365519,1.0,0.37731388211250305,0.9183055040197896
99,0.0018363214330747724,1.0,0.37744051218032837,0.9183055040197896
100,0.0018042466836050153,1.0,0.37833371758461,0.9183055040197896
101,0.0017597941914573312,1.0,0.37817898392677307,0.9183055040197896
102,0.0017296114237979054,1.0,0.3790111243724823,0.9183055040197896
103,0.0016880062175914645,1.0,0.3791561424732208,0.9183055040197896
104,0.00165973708499223,1.0,0.380047470331192,0.9183055040197896
105,0.0016196361975744367,1.0,0.38022130727767944,0.9183055040197896
106,0.0015946076018735766,1.0,0.38094693422317505,0.9183055040197896
107,0.0015562400221824646,1.0,0.38088250160217285,0.9183055040197896
108,0.001532714581117034,1.0,0.38226446509361267,0.9183055040197896
109,0.0014963714638724923,1.0,0.38240018486976624,0.9183055040197896
110,0.001475003780797124,1.0,0.38346537947654724,0.9183055040197896
111,0.0014402882661670446,1.0,0.38304659724235535,0.9183055040197896
112,0.0014205013867467642,1.0,0.38467639684677124,0.9183055040197896
113,0.001387215917930007,1.0,0.38384491205215454,0.9183055040197896
114,0.0013672357890754938,1.0,0.3856125473976135,0.9183055040197896
115,0.0013360645389184356,1.0,0.3851431906223297,0.9183055040197896
116,0.0013178501976653934,1.0,0.38603442907333374,0.9183055040197896
117,0.0012883117888122797,1.0,0.38593730330467224,0.9183055040197896
118,0.0012703918619081378,1.0,0.38637328147888184,0.9183055040197896
119,0.0012428920017555356,1.0,0.3872647285461426,0.9183055040197896
120,0.001226278836838901,1.0,0.3867630064487457,0.9183055040197896
121,0.0012002422008663416,1.0,0.38849350810050964,0.9183055040197896
122,0.0011849530274048448,1.0,0.38853272795677185,0.9183055040197896
123,0.0011596096446737647,1.0,0.38868895173072815,0.9183055040197896
124,0.0011457492364570498,1.0,0.3895857036113739,0.9183055040197896
125,0.0011206930503249168,1.0,0.3897116184234619,0.9183055040197896
126,0.0011075568618252873,1.0,0.3898760974407196,0.9183055040197896
127,0.0010839925380423665,1.0,0.390792578458786,0.9183055040197896
128,0.0010710202623158693,1.0,0.39083194732666016,0.9183055040197896
129,0.0010488283587619662,1.0,0.39164453744888306,0.9183055040197896
130,0.0010364969493821263,1.0,0.39138394594192505,0.9183055040197896
131,0.0010157241486012936,1.0,0.39239808917045593,0.9183055040197896
132,0.0010032503632828593,1.0,0.3922481834888458,0.9183055040197896
133,0.000983780832029879,1.0,0.3931741714477539,0.9183055040197896
134,0.0009718784713186324,1.0,0.39344096183776855,0.9183055040197896
135,0.0009532016701996326,1.0,0.39359956979751587,0.9183055040197896
136,0.0009418213739991188,1.0,0.3944416344165802,0.9183055040197896
137,0.0009241519146598876,1.0,0.39470309019088745,0.9183055040197896
138,0.0009136194130405784,1.0,0.39431020617485046,0.9183055040197896
139,0.0008964782464317977,1.0,0.39546576142311096,0.9183055040197896
140,0.0008861488313414156,1.0,0.3955325782299042,0.9183055040197896
141,0.0008697900339029729,1.0,0.3966115415096283,0.9183055040197896
142,0.0008607055642642081,1.0,0.39527031779289246,0.9183055040197896
143,0.0008445995626971126,1.0,0.39759427309036255,0.9183055040197896
144,0.0008362500811927021,1.0,0.3962196707725525,0.9183055040197896
145,0.0008204533951357007,1.0,0.39794111251831055,0.9183055040197896
146,0.000812481448519975,1.0,0.3976692259311676,0.9183055040197896
147,0.0007972429739311337,1.0,0.3982117474079132,0.9183055040197896
148,0.0007895812741480768,1.0,0.3983955681324005,0.9183055040197896
149,0.0007745813927613199,1.0,0.39888715744018555,0.9183055040197896
150,0.0007674746448174119,1.0,0.3994808495044708,0.9183055040197896
151,0.0007527604466304183,1.0,0.3999072015285492,0.9183055040197896
152,0.0007455939194187522,1.0,0.3996424376964569,0.9183055040197896
153,0.0007319318247027695,1.0,0.4005712568759918,0.9183055040197896
154,0.0007247102330438793,1.0,0.4007386863231659,0.9183055040197896
155,0.0007121938397176564,1.0,0.40131330490112305,0.9183055040197896
156,0.0007046122336760163,1.0,0.4014127850532532,0.9183055040197896
157,0.0006932461983524263,1.0,0.4018799662590027,0.9183055040197896
158,0.0006855388055555522,1.0,0.4022669792175293,0.9183055040197896
159,0.0006750241736881435,1.0,0.40294280648231506,0.9183055040197896
160,0.0006675879703834653,1.0,0.40269598364830017,0.9183055040197896
161,0.0006574096041731536,1.0,0.40343543887138367,0.9183055040197896
162,0.0006504037301056087,1.0,0.40409713983535767,0.9077612863327149
163,0.0006406730390153825,1.0,0.4034922420978546,0.9183055040197896
164,0.0006336701917462051,1.0,0.4044584333896637,0.9077612863327149
165,0.0006245230324566364,1.0,0.4045548737049103,0.9183055040197896
166,0.0006176303140819073,1.0,0.40463757514953613,0.9183055040197896
167,0.0006088533555157483,1.0,0.405372679233551,0.9183055040197896
168,0.0006020700675435364,1.0,0.4053601920604706,0.9077612863327149
169,0.000593622971791774,1.0,0.4061698615550995,0.9077612863327149
170,0.0005871718167327344,1.0,0.40545225143432617,0.9183055040197896
171,0.0005791354342363775,1.0,0.4066821038722992,0.9077612863327149
172,0.0005726804374717176,1.0,0.4061602056026459,0.9077612863327149
173,0.0005650256061926484,1.0,0.40712013840675354,0.9077612863327149
174,0.0005588505300693214,1.0,0.4064594805240631,0.9077612863327149
175,0.0005513224750757217,1.0,0.40804752707481384,0.9077612863327149
176,0.0005456107319332659,1.0,0.4068228602409363,0.9183055040197896
177,0.0005380752845667303,1.0,0.40866583585739136,0.9077612863327149
178,0.0005327992257662117,1.0,0.4073481559753418,0.9077612863327149
179,0.0005254325224086642,1.0,0.4093054234981537,0.9077612863327149
180,0.000520499364938587,1.0,0.4080500900745392,0.9183055040197896
181,0.0005130232311785221,1.0,0.4096333682537079,0.9077612863327149
182,0.0005085194716230035,1.0,0.40881258249282837,0.9077612863327149
183,0.0005011343746446073,1.0,0.40993836522102356,0.9077612863327149
184,0.0004966777050867677,1.0,0.4097972810268402,0.9077612863327149
185,0.0004895617021247745,1.0,0.41032764315605164,0.9077612863327149
186,0.00048520159907639027,1.0,0.4102741777896881,0.9077612863327149
187,0.00047842678031884134,1.0,0.41103702783584595,0.9077612863327149
188,0.00047400707262568176,1.0,0.4107777178287506,0.9077612863327149
189,0.0004675818490795791,1.0,0.4115968644618988,0.9077612863327149
190,0.0004631359479390085,1.0,0.4115448296070099,0.9077612863327149
191,0.0004571301687974483,1.0,0.41217201948165894,0.9077612863327149
192,0.0004527588898781687,1.0,0.41181114315986633,0.9077612863327149
193,0.0004469506093300879,1.0,0.4129082262516022,0.9077612863327149
194,0.0004426760133355856,1.0,0.41264310479164124,0.9077612863327149
195,0.0004372599069029093,1.0,0.4131363332271576,0.9077612863327149
196,0.000432809058111161,1.0,0.4131960868835449,0.9077612863327149
197,0.00042769525316543877,1.0,0.4137517511844635,0.9077612863327149
198,0.00042352546006441116,1.0,0.4140288829803467,0.9077612863327149
199,0.0004184347635600716,1.0,0.4142600893974304,0.9077612863327149
200,0.00041451063589192927,1.0,0.41392725706100464,0.9077612863327149
201,0.0004095484036952257,1.0,0.415484219789505,0.9077612863327149
202,0.00040571767021901906,1.0,0.41448813676834106,0.9077612863327149
203,0.00040089900721795857,1.0,0.41596293449401855,0.9077612863327149
204,0.00039728841511532664,1.0,0.41475218534469604,0.9077612863327149
205,0.0003925408236682415,1.0,0.41656026244163513,0.9077612863327149
206,0.0003889610234182328,1.0,0.4156828820705414,0.9077612863327149
207,0.00038435767055489123,1.0,0.41685110330581665,0.9077612863327149
208,0.0003809791523963213,1.0,0.4164712727069855,0.9077612863327149
209,0.0003764105786103755,1.0,0.41765478253364563,0.9077612863327149
210,0.00037318741669878364,1.0,0.4168170392513275,0.9077612863327149
211,0.0003686782147269696,1.0,0.41824251413345337,0.9077612863327149
212,0.00036570915835909545,1.0,0.41711145639419556,0.9077612863327149
213,0.00036125737824477255,1.0,0.418659508228302,0.9077612863327149
214,0.00035826890962198377,1.0,0.41804876923561096,0.9077612863327149
215,0.00035411393037065864,1.0,0.41870757937431335,0.9077612863327149
216,0.00035105753340758383,1.0,0.418790340423584,0.9077612863327149
217,0.0003470435622148216,1.0,0.4194370210170746,0.9077612863327149
218,0.00034403003519400954,1.0,0.4193635582923889,0.9077612863327149
219,0.0003401793073862791,1.0,0.4200158417224884,0.9077612863327149
220,0.0003371897619217634,1.0,0.4196303188800812,0.9077612863327149
221,0.00033354051993228495,1.0,0.4204545319080353,0.9077612863327149
222,0.000330624490743503,1.0,0.4202120304107666,0.9077612863327149
223,0.0003270251618232578,1.0,0.42104336619377136,0.9077612863327149
224,0.00032420159550383687,1.0,0.4209226965904236,0.9077612863327149
225,0.00032081810059025884,1.0,0.4212733209133148,0.9077612863327149
226,0.0003179563209414482,1.0,0.421397864818573,0.9077612863327149
227,0.0003146098752040416,1.0,0.4217080771923065,0.9077612863327149
228,0.0003118577878922224,1.0,0.4220852553844452,0.9077612863327149
229,0.00030863864230923355,1.0,0.4223509430885315,0.9077612863327149
230,0.00030591647373512387,1.0,0.4228210151195526,0.9077612863327149
231,0.0003027727361768484,1.0,0.4228973984718323,0.9077612863327149
232,0.00030021657585166395,1.0,0.4229215085506439,0.9077612863327149
233,0.0002970790665131062,1.0,0.4237518310546875,0.9077612863327149
234,0.00029454947798512876,1.0,0.42334455251693726,0.9077612863327149
235,0.0002915725635830313,1.0,0.42418137192726135,0.9077612863327149
236,0.000289027055259794,1.0,0.4240684509277344,0.9077612863327149
237,0.0002861733373720199,1.0,0.4245219826698303,0.9077612863327149
238,0.0002836182829923928,1.0,0.42462557554244995,0.9077612863327149
239,0.00028090598061680794,1.0,0.42498359084129333,0.9077612863327149
240,0.0002783382951747626,1.0,0.4254841208457947,0.9077612863327149
241,0.0002756767498794943,1.0,0.4253283441066742,0.9077612863327149
242,0.00027328048599883914,1.0,0.4258825182914734,0.9077612863327149
243,0.0002705932129174471,1.0,0.4261190891265869,0.9077612863327149
244,0.0002683044585864991,1.0,0.42618975043296814,0.9077612863327149
245,0.00026569588226266205,1.0,0.42629122734069824,0.9077612863327149
246,0.0002634421398397535,1.0,0.42719563841819763,0.9077612863327149
247,0.00026084217824973166,1.0,0.4269900321960449,0.9077612863327149
248,0.00025882120826281607,1.0,0.4271029829978943,0.9077612863327149
249,0.0002561872825026512,1.0,0.42805805802345276,0.9077612863327149
250,0.00025416299467906356,1.0,0.42705678939819336,0.9077612863327149
251,0.0002516802051104605,1.0,0.42873087525367737,0.9077612863327149
252,0.0002496856905054301,1.0,0.4276934266090393,0.9077612863327149
253,0.00024715709150768816,1.0,0.4294438064098358,0.9077612863327149
254,0.0002453381021041423,1.0,0.42806917428970337,0.9077612863327149
255,0.00024281784135382622,1.0,0.430093914270401,0.9077612863327149
256,0.00024103521718643606,1.0,0.42838001251220703,0.9077612863327149
257,0.00023853711900301278,1.0,0.43059125542640686,0.9077612863327149
258,0.0002368609420955181,1.0,0.42888933420181274,0.9077612863327149
259,0.00023438835341949016,1.0,0.43101975321769714,0.9077612863327149
260,0.00023280784080270678,1.0,0.42949098348617554,0.9077612863327149
261,0.00023034059267956764,1.0,0.43142226338386536,0.9077612863327149
262,0.00022882709163241088,1.0,0.4298524856567383,0.9077612863327149
263,0.0002264022914459929,1.0,0.4314890503883362,0.9077612863327149
264,0.00022491018171422184,1.0,0.4305369555950165,0.9077612863327149
265,0.0002225277858087793,1.0,0.4320790767669678,0.9077612863327149
266,0.0002210187813034281,1.0,0.43102189898490906,0.9077612863327149
267,0.00021879364794585854,1.0,0.43229058384895325,0.9077612863327149
268,0.00021727946295868605,1.0,0.43156328797340393,0.9077612863327149
269,0.00021512228704523295,1.0,0.432822048664093,0.9077612863327149
270,0.00021362092229537666,1.0,0.4320369362831116,0.9077612863327149
271,0.0002115222014253959,1.0,0.4334065914154053,0.9077612863327149
272,0.000210054888157174,1.0,0.4324105679988861,0.9077612863327149
273,0.00020800084166694432,1.0,0.43411725759506226,0.9077612863327149
274,0.00020661114831455052,1.0,0.43306002020835876,0.9077612863327149
275,0.00020458901417441666,1.0,0.4341452419757843,0.9077612863327149
276,0.00020317798771429807,1.0,0.4336220920085907,0.9077612863327149
277,0.00020127931202296168,1.0,0.43471625447273254,0.9077612863327149
278,0.00019989162683486938,1.0,0.4340876638889313,0.9077612863327149
279,0.00019797703134827316,1.0,0.4351571202278137,0.9077612863327149
280,0.0001966754498425871,1.0,0.43454626202583313,0.9077612863327149
281,0.00019478642207104713,1.0,0.43560507893562317,0.9077612863327149
282,0.00019345931650605053,1.0,0.4350941777229309,0.9077612863327149
283,0.0001916542969411239,1.0,0.43582621216773987,0.9077612863327149
284,0.0001903452503029257,1.0,0.4357471168041229,0.9077612863327149
285,0.00018859445117413998,1.0,0.4363938868045807,0.9077612863327149
286,0.00018728333816397935,1.0,0.43607211112976074,0.9077612863327149
287,0.00018561759497970343,1.0,0.43676528334617615,0.9077612863327149
288,0.0001842916099121794,1.0,0.43654727935791016,0.9077612863327149
289,0.0001826992811402306,1.0,0.43727537989616394,0.9077612863327149
290,0.00018137323786504567,1.0,0.4368281662464142,0.9077612863327149
291,0.0001798202283680439,1.0,0.4378044009208679,0.9077612863327149
292,0.00017854849284049124,1.0,0.4372304081916809,0.9077612863327149
293,0.00017702208424452692,1.0,0.43833038210868835,0.9077612863327149
294,0.00017575672245584428,1.0,0.4375484585762024,0.9077612863327149
295,0.0001742536696838215,1.0,0.43906885385513306,0.9077612863327149
296,0.00017302343621850014,1.0,0.4377014636993408,0.9077612863327149
297,0.0001715405669528991,1.0,0.43971654772758484,0.9077612863327149
298,0.00017039441445376724,1.0,0.43824049830436707,0.9077612863327149
299,0.0001688987686065957,1.0,0.43981099128723145,0.9077612863327149
300,0.00016778237477410585,1.0,0.4387541115283966,0.9077612863327149
301,0.00016629947640467435,1.0,0.4401327967643738,0.9077612863327149
302,0.00016524692182429135,1.0,0.4393412172794342,0.9077612863327149
303,0.00016373209655284882,1.0,0.4405756890773773,0.9077612863327149
304,0.00016274233348667622,1.0,0.43977564573287964,0.9077612863327149
305,0.00016123811656143516,1.0,0.44125866889953613,0.9077612863327149
306,0.00016028557729441673,1.0,0.43984976410865784,0.9077612863327149
307,0.00015880903811194003,1.0,0.4416908919811249,0.9077612863327149
308,0.0001578894880367443,1.0,0.4403885304927826,0.9077612863327149
309,0.0001564214180689305,1.0,0.441823810338974,0.9077612863327149
310,0.00015549555246252567,1.0,0.44108885526657104,0.9077612863327149
311,0.00015410616470035166,1.0,0.44226446747779846,0.9077612863327149
312,0.00015314834308810532,1.0,0.44148486852645874,0.9077612863327149
313,0.0001518078934168443,1.0,0.4425510764122009,0.9077612863327149
314,0.0001508692657807842,1.0,0.4417852461338043,0.9077612863327149
315,0.0001495702745160088,1.0,0.44280657172203064,0.9077612863327149
316,0.00014860401279293,1.0,0.4424265921115875,0.9077612863327149
317,0.0001473645679652691,1.0,0.44330722093582153,0.9077612863327149
318,0.00014642700261902064,1.0,0.4426438510417938,0.9077612863327149
319,0.00014520142576657236,1.0,0.44352442026138306,0.9077612863327149
320,0.00014431276940740645,1.0,0.44311872124671936,0.9077612863327149
321,0.0001431042473996058,1.0,0.4439402222633362,0.9077612863327149
322,0.00014220064622350037,1.0,0.4435941278934479,0.9077612863327149
323,0.0001410613040206954,1.0,0.444293737411499,0.9077612863327149
324,0.000140140691655688,1.0,0.44406479597091675,0.9077612863327149
325,0.00013901515922043473,1.0,0.4444734752178192,0.9077612863327149
326,0.00013814457633998245,1.0,0.44446301460266113,0.9077612863327149
327,0.0001369785750284791,1.0,0.44506731629371643,0.9077612863327149
328,0.00013619207311421633,1.0,0.444267600774765,0.9077612863327149
329,0.0001350441452814266,1.0,0.4459417462348938,0.9077612863327149
330,0.00013425656652543694,1.0,0.444713294506073,0.9077612863327149
331,0.0001331224775640294,1.0,0.44633355736732483,0.9077612863327149
332,0.00013237318489700556,1.0,0.44500160217285156,0.9077612863327149
333,0.00013123697135597467,1.0,0.4466380774974823,0.9077612863327149
334,0.00013048872642684728,1.0,0.4457501769065857,0.9077612863327149
335,0.00012938871805090457,1.0,0.446676641702652,0.9077612863327149
336,0.000128652187413536,1.0,0.4460883140563965,0.9077612863327149
337,0.00012756380601786077,1.0,0.44716498255729675,0.9077612863327149
338,0.0001268337364308536,1.0,0.44642093777656555,0.9077612863327149
339,0.00012576018343679607,1.0,0.44779589772224426,0.9077612863327149
340,0.00012507270730566233,1.0,0.4462655484676361,0.9077612863327149
341,0.00012401724234223366,1.0,0.4482164978981018,0.9077612863327149
342,0.0001233201619470492,1.0,0.44687753915786743,0.9077612863327149
343,0.0001223115250468254,1.0,0.44843024015426636,0.9077612863327149
344,0.00012158889876445755,1.0,0.4473341107368469,0.9077612863327149
345,0.00012062816676916555,1.0,0.4485333561897278,0.9077612863327149
346,0.00011991085193585604,1.0,0.448119580745697,0.9077612863327149
347,0.00011895116040250286,1.0,0.44882383942604065,0.9077612863327149
348,0.00011828386050183326,1.0,0.4482444226741791,0.9077612863327149
349,0.00011730927508324385,1.0,0.4491240680217743,0.9077612863327149
350,0.000116676019388251,1.0,0.4485810101032257,0.9077612863327149
351,0.0001157088772743009,1.0,0.4495747983455658,0.9077612863327149
352,0.00011508626630529761,1.0,0.44890108704566956,0.9077612863327149
353,0.00011414253094699234,1.0,0.4498322308063507,0.9077612863327149
354,0.00011349969281582162,1.0,0.4494515359401703,0.9077612863327149
355,0.00011261233885306865,1.0,0.4499291777610779,0.9077612863327149
356,0.00011196419654879719,1.0,0.44982674717903137,0.9077612863327149
357,0.00011109811021015048,1.0,0.45025327801704407,0.9077612863327149
358,0.00011044146958738565,1.0,0.4501419961452484,0.9077612863327149
359,0.0001096221967600286,1.0,0.4505545496940613,0.9077612863327149
360,0.00010893681610468775,1.0,0.450573593378067,0.9077612863327149
361,0.00010814840061357245,1.0,0.450793981552124,0.9077612863327149
362,0.00010749813372967765,1.0,0.45078831911087036,0.9077612863327149
363,0.00010671503696357831,1.0,0.45123809576034546,0.9077612863327149
364,0.00010603178816381842,1.0,0.45132318139076233,0.9077612863327149
365,0.00010529125574976206,1.0,0.45132651925086975,0.9077612863327149
366,0.00010461651254445314,1.0,0.4517185688018799,0.9077612863327149
367,0.00010388022201368585,1.0,0.45164141058921814,0.9077612863327149
368,0.00010324273171136156,1.0,0.45171651244163513,0.9077612863327149
369,0.0001025170786306262,1.0,0.4522331655025482,0.9077612863327149
370,0.00010188383021159098,1.0,0.45208391547203064,0.9077612863327149
371,0.00010115819895872846,1.0,0.4526333510875702,0.9077612863327149
372,0.00010055154416477308,1.0,0.4522899091243744,0.9077612863327149
373,9.98184405034408e-05,1.0,0.4532283842563629,0.9077612863327149
374,9.925330232363194e-05,1.0,0.4521523416042328,0.9077612863327149
375,9.85191436484456e-05,1.0,0.45383360981941223,0.9077612863327149
376,9.797101665753871e-05,1.0,0.45264479517936707,0.9077612863327149
377,9.722087997943163e-05,1.0,0.45425957441329956,0.9077612863327149
378,9.673875320004299e-05,1.0,0.4527905285358429,0.9077612863327149
379,9.595562005415559e-05,1.0,0.4545629918575287,0.9077612863327149
380,9.548838716000319e-05,1.0,0.4534623622894287,0.9077612863327149
381,9.472227247897536e-05,1.0,0.4548673629760742,0.9077612863327149
382,9.428802877664566e-05,1.0,0.45371872186660767,0.9077612863327149
383,9.349424362881109e-05,1.0,0.4550536572933197,0.9077612863327149
384,9.306958236265928e-05,1.0,0.45399659872055054,0.9077612863327149
385,9.228855924447998e-05,1.0,0.4552226960659027,0.9077612863327149
386,9.185645467368886e-05,1.0,0.45469263195991516,0.9077612863327149
387,9.111586405197158e-05,1.0,0.455282062292099,0.9077612863327149
388,9.065504855243489e-05,1.0,0.4551905691623688,0.9077612863327149
389,8.994740346679464e-05,1.0,0.4556027352809906,0.9077612863327149
390,8.94695840543136e-05,1.0,0.4554871916770935,0.9077612863327149
391,8.880982204573229e-05,1.0,0.45606938004493713,0.9077612863327149
392,8.831390732666478e-05,1.0,0.45552992820739746,0.9077612863327149
393,8.767435792833567e-05,1.0,0.4566158652305603,0.9077612863327149
394,8.719867037143558e-05,1.0,0.4559002220630646,0.9077612863327149
395,8.656444697408006e-05,1.0,0.45681139826774597,0.9077612863327149
396,8.60983127495274e-05,1.0,0.4563882350921631,0.9077612863327149
397,8.54896497912705e-05,1.0,0.4570907652378082,0.9077612863327149
398,8.502243144903332e-05,1.0,0.45671772956848145,0.9077612863327149
399,8.441590034635738e-05,1.0,0.45740288496017456,0.9077612863327149
400,8.397208148380741e-05,1.0,0.45710447430610657,0.9077612863327149
401,8.335813618032262e-05,1.0,0.4580077826976776,0.9077612863327149
402,8.293239079648629e-05,1.0,0.45723801851272583,0.9077612863327149
403,8.233119297074154e-05,1.0,0.45830991864204407,0.9077612863327149
404,8.19075939944014e-05,1.0,0.45781517028808594,0.9077612863327149
405,8.130426431307569e-05,1.0,0.45848092436790466,0.9077612863327149
406,8.089024049695581e-05,1.0,0.45813825726509094,0.9077612863327149
407,8.029754826566204e-05,1.0,0.45925435423851013,0.9077612863327149
408,7.99111949163489e-05,1.0,0.45804163813591003,0.9077612863327149
409,7.930466381367296e-05,1.0,0.45961740612983704,0.9077612863327149
410,7.892258145147935e-05,1.0,0.4582671821117401,0.9077612863327149
411,7.834369171177968e-05,1.0,0.4598309099674225,0.9077612863327149
412,7.796055433573201e-05,1.0,0.4590129554271698,0.9077612863327149
413,7.738911517662928e-05,1.0,0.45993033051490784,0.9077612863327149
414,7.700385322095826e-05,1.0,0.4594701826572418,0.9077612863327149
415,7.644092693226412e-05,1.0,0.46023935079574585,0.9077612863327149
416,7.608226587763056e-05,1.0,0.4598012864589691,0.9077612863327149
417,7.553210889454931e-05,1.0,0.4606328010559082,0.9077612863327149
418,7.515960169257596e-05,1.0,0.46012184023857117,0.9077612863327149
419,7.461690256604925e-05,1.0,0.46108630299568176,0.9077612863327149
420,7.426674710586667e-05,1.0,0.4601763188838959,0.9077612863327149
421,7.3721916123759e-05,1.0,0.46129027009010315,0.9077612863327149
422,7.337387796724215e-05,1.0,0.460654079914093,0.9077612863327149
423,7.285992614924908e-05,1.0,0.4615998864173889,0.9077612863327149
424,7.249165355460718e-05,1.0,0.4612639844417572,0.9077612863327149
425,7.199152605608106e-05,1.0,0.4615240693092346,0.9077612863327149
426,7.162540714489296e-05,1.0,0.46149930357933044,0.9077612863327149
427,7.112419552868232e-05,1.0,0.4622744023799896,0.9077612863327149
428,7.078575436025858e-05,1.0,0.4613015353679657,0.9077612863327149
429,7.028773688944057e-05,1.0,0.462678462266922,0.9077612863327149
430,6.994503928581253e-05,1.0,0.4617055058479309,0.9077612863327149
431,6.945020140847191e-05,1.0,0.4632222056388855,0.9077612863327149
432,6.912879325682297e-05,1.0,0.46187320351600647,0.9077612863327149
433,6.862757436465472e-05,1.0,0.4635410010814667,0.9077612863327149
434,6.833062798250467e-05,1.0,0.46217530965805054,0.9077612863327149
435,6.78262222209014e-05,1.0,0.4634881019592285,0.9077612863327149
436,6.753885099897161e-05,1.0,0.46295779943466187,0.9077612863327149
437,6.704189581796527e-05,1.0,0.4638044238090515,0.9077612863327149
438,6.675346230622381e-05,1.0,0.46296507120132446,0.9077612863327149
439,6.626289541600272e-05,1.0,0.4641008675098419,0.9077612863327149
440,6.597871833946556e-05,1.0,0.4632498323917389,0.9077612863327149
441,6.549666431965306e-05,1.0,0.4644812047481537,0.9077612863327149
442,6.521461182273924e-05,1.0,0.4634537994861603,0.9077612863327149
443,6.473254325101152e-05,1.0,0.46490880846977234,0.9077612863327149
444,6.446539919124916e-05,1.0,0.4636121690273285,0.9077612863327149
445,6.40067519270815e-05,1.0,0.4648972153663635,0.9077612863327149
446,6.370555638568476e-05,1.0,0.46413925290107727,0.9077612863327149
447,6.326285802060738e-05,1.0,0.4652268886566162,0.9077612863327149
448,6.298827065620571e-05,1.0,0.4645156264305115,0.9077612863327149
449,6.254237814573571e-05,1.0,0.46536698937416077,0.9077612863327149
450,6.225395918590948e-05,1.0,0.464873343706131,0.9077612863327149
451,6.182082870509475e-05,1.0,0.46583178639411926,0.9077612863327149
452,6.153986760182306e-05,1.0,0.4650837779045105,0.9077612863327149
453,6.112269329605624e-05,1.0,0.46572431921958923,0.9077612863327149
454,6.082470645196736e-05,1.0,0.4655795395374298,0.9077612863327149
455,6.042775567038916e-05,1.0,0.4662300646305084,0.9077612863327149
456,6.013828169670887e-05,1.0,0.46569034457206726,0.9077612863327149
457,5.974238592898473e-05,1.0,0.466505765914917,0.9077612863327149
458,5.945397788309492e-05,1.0,0.4659719169139862,0.9077612863327149
459,5.906022124690935e-05,1.0,0.46672821044921875,0.9077612863327149
460,5.877925286768004e-05,1.0,0.46616774797439575,0.9077612863327149
461,5.8394009101903066e-05,1.0,0.4671223759651184,0.9077612863327149
462,5.81364547542762e-05,1.0,0.4665377140045166,0.9077612863327149
463,5.773631710326299e-05,1.0,0.46727004647254944,0.9077612863327149
464,5.749257979914546e-05,1.0,0.46689024567604065,0.9077612863327149
465,5.7103105064015836e-05,1.0,0.4673667848110199,0.9077612863327149
466,5.6855100410757586e-05,1.0,0.46717411279678345,0.9077612863327149
467,5.646881618304178e-05,1.0,0.46762770414352417,0.9077612863327149
468,5.6226137530757114e-05,1.0,0.46733173727989197,0.9077612863327149
469,5.583879101322964e-05,1.0,0.4681081771850586,0.9077612863327149
470,5.5593980505364016e-05,1.0,0.4675251841545105,0.9077612863327149
471,5.521301500266418e-05,1.0,0.46850377321243286,0.9077612863327149
472,5.4976724641164765e-05,1.0,0.46774372458457947,0.9077612863327149
473,5.460107422550209e-05,1.0,0.4690011143684387,0.9077612863327149
474,5.435626735561527e-05,1.0,0.4678557217121124,0.9077612863327149
475,5.3986997954780236e-05,1.0,0.4689014256000519,0.9077612863327149
476,5.37485939275939e-05,1.0,0.46844497323036194,0.9077612863327149
477,5.3389954700833187e-05,1.0,0.4692685902118683,0.9077612863327149
478,5.3147294238442555e-05,1.0,0.4687357544898987,0.9077612863327149
479,5.280036202748306e-05,1.0,0.4695689380168915,0.9077612863327149
480,5.2557705203071237e-05,1.0,0.4688537120819092,0.9077612863327149
481,5.22203445143532e-05,1.0,0.46981915831565857,0.9077612863327149
482,5.1977691327920184e-05,1.0,0.4691724181175232,0.9077612863327149
483,5.164139292901382e-05,1.0,0.4701037108898163,0.9077612863327149
484,5.140193024999462e-05,1.0,0.46956485509872437,0.9077612863327149
485,5.108479308546521e-05,1.0,0.4702747166156769,0.9077612863327149
486,5.0842132623074576e-05,1.0,0.469835102558136,0.9077612863327149
487,5.052925553172827e-05,1.0,0.4706345498561859,0.9077612863327149
488,5.0307873607380316e-05,1.0,0.46996942162513733,0.9077612863327149
489,4.997265568817966e-05,1.0,0.47079089283943176,0.9077612863327149
490,4.9752325139706954e-05,1.0,0.4704441428184509,0.9077612863327149
491,4.9440535804023966e-05,1.0,0.47101935744285583,0.9077612863327149
492,4.9214886530535296e-05,1.0,0.47062358260154724,0.9077612863327149
493,4.889137562713586e-05,1.0,0.47127655148506165,0.9077612863327149
494,4.868701216764748e-05,1.0,0.47088006138801575,0.9077612863327149
495,4.8365625843871385e-05,1.0,0.47179263830184937,0.9077612863327149
496,4.815808279090561e-05,1.0,0.4707149863243103,0.9077612863327149
497,4.783881740877405e-05,1.0,0.4722926616668701,0.9077612863327149
498,4.7639790864195675e-05,1.0,0.47100117802619934,0.9077612863327149
499,4.7317331336671486e-05,1.0,0.47256001830101013,0.9077612863327149
500,4.713000453193672e-05,1.0,0.4712512791156769,0.9077612863327149
501,4.681287464336492e-05,1.0,0.4725293219089508,0.9077612863327149
502,4.662873470806517e-05,1.0,0.471966415643692,0.9077612863327149
503,4.63105425296817e-05,1.0,0.47253432869911194,0.9077612863327149
504,4.612109114532359e-05,1.0,0.47234562039375305,0.9077612863327149
505,4.581459143082611e-05,1.0,0.47305992245674133,0.9077612863327149
506,4.562514368444681e-05,1.0,0.47223636507987976,0.9077612863327149
507,4.5317581680137664e-05,1.0,0.4733934700489044,0.9077612863327149
508,4.5139840949559584e-05,1.0,0.4726436734199524,0.9077612863327149
509,4.4843989599030465e-05,1.0,0.47359734773635864,0.9077612863327149
510,4.4647083996096626e-05,1.0,0.47289910912513733,0.9077612863327149
511,4.436187009559944e-05,1.0,0.4738195538520813,0.9077612863327149
512,4.417774471221492e-05,1.0,0.4732106029987335,0.9077612863327149
513,4.38893330283463e-05,1.0,0.4741555154323578,0.9077612863327149
514,4.371159593574703e-05,1.0,0.47337862849235535,0.9077612863327149
515,4.342531246948056e-05,1.0,0.4743194282054901,0.9077612863327149
516,4.3257146899122745e-05,1.0,0.47361403703689575,0.9077612863327149
517,4.2962357838405296e-05,1.0,0.4745730757713318,0.9077612863327149
518,4.280908979126252e-05,1.0,0.4739631116390228,0.9077612863327149
519,4.250897472957149e-05,1.0,0.4746622145175934,0.9077612863327149
520,4.235996675561182e-05,1.0,0.4742833077907562,0.9077612863327149
521,4.2060921259690076e-05,1.0,0.47495168447494507,0.9077612863327149
522,4.1916169720934704e-05,1.0,0.4744594097137451,0.9077612863327149
523,4.1622442950028926e-05,1.0,0.47505149245262146,0.9077612863327149
524,4.1460654756519943e-05,1.0,0.47503843903541565,0.9077612863327149
525,4.119673394598067e-05,1.0,0.4748466908931732,0.9077612863327149
526,4.10008906328585e-05,1.0,0.47549110651016235,0.9077612863327149
527,4.076143886777572e-05,1.0,0.47533878684043884,0.9077612863327149
528,4.0568796976003796e-05,1.0,0.4753454327583313,0.9077612863327149
529,4.0334667573915794e-05,1.0,0.47565722465515137,0.9077612863327149
530,4.0134571463568136e-05,1.0,0.4756999909877777,0.9077612863327149
531,3.991959965787828e-05,1.0,0.4759126305580139,0.9077612863327149
532,3.971844125771895e-05,1.0,0.47606584429740906,0.9077612863327149
533,3.950346581405029e-05,1.0,0.47603657841682434,0.9077612863327149
534,3.929698505089618e-05,1.0,0.47651344537734985,0.9077612863327149
535,3.9099038986023515e-05,1.0,0.47600874304771423,0.9077612863327149
536,3.889256186084822e-05,1.0,0.47665858268737793,0.9077612863327149
537,3.869035208481364e-05,1.0,0.4763992428779602,0.9077612863327149
538,3.8489200960611925e-05,1.0,0.4768407642841339,0.9077612863327149
539,3.827954060398042e-05,1.0,0.4765523076057434,0.9077612863327149
540,3.809542249655351e-05,1.0,0.4769788682460785,0.9077612863327149
541,3.78900149371475e-05,1.0,0.4768931269645691,0.9077612863327149
542,3.7702695408370346e-05,1.0,0.47726085782051086,0.9077612863327149
543,3.750261748791672e-05,1.0,0.4769154489040375,0.9077612863327149
544,3.732061668415554e-05,1.0,0.4774909019470215,0.9077612863327149
545,3.710989767569117e-05,1.0,0.4773893654346466,0.9077612863327149
546,3.6949179047951475e-05,1.0,0.477371484041214,0.9077612863327149
547,3.673420724226162e-05,1.0,0.47803133726119995,0.9077612863327149
548,3.6571356758940965e-05,1.0,0.47737956047058105,0.9077612863327149
549,3.635425673564896e-05,1.0,0.4786476194858551,0.9077612863327149
550,3.621375435614027e-05,1.0,0.47722285985946655,0.9077612863327149
551,3.5981756809633225e-05,1.0,0.4789479076862335,0.9077612863327149
552,3.586467573768459e-05,1.0,0.47762593626976013,0.9077612863327149
553,3.5615641536423936e-05,1.0,0.47904664278030396,0.9077612863327149
554,3.550920155248605e-05,1.0,0.47806626558303833,0.9077612863327149
555,3.524526982801035e-05,1.0,0.4791313111782074,0.9077612863327149
556,3.515053685987368e-05,1.0,0.4783359467983246,0.9077612863327149
557,3.489724622340873e-05,1.0,0.4791901707649231,0.9077612863327149
558,3.4783355658873916e-05,1.0,0.47877001762390137,0.9077612863327149
559,3.454177203821018e-05,1.0,0.47934743762016296,0.9077612863327149
560,3.441404987825081e-05,1.0,0.47908952832221985,0.9077612863327149
561,3.419055792619474e-05,1.0,0.47952336072921753,0.9077612863327149
562,3.406070754863322e-05,1.0,0.479451447725296,0.9077612863327149
563,3.384465890121646e-05,1.0,0.47958478331565857,0.9077612863327149
564,3.3703105145832524e-05,1.0,0.4797343909740448,0.9077612863327149
565,3.349982944200747e-05,1.0,0.4800325930118561,0.9077612863327149
566,3.337104499223642e-05,1.0,0.47962403297424316,0.9077612863327149
567,3.314861169201322e-05,1.0,0.4804275929927826,0.9077612863327149
568,3.3029406040441245e-05,1.0,0.47982314229011536,0.9077612863327149
569,3.281868339399807e-05,1.0,0.480781614780426,0.9077612863327149
570,3.271012246841565e-05,1.0,0.4801044166088104,0.9077612863327149
571,3.248555731261149e-05,1.0,0.4807365834712982,0.9077612863327149
572,3.2383377401856706e-05,1.0,0.48046714067459106,0.9077612863327149
573,3.216946424799971e-05,1.0,0.48094338178634644,0.9077612863327149
574,3.207259942428209e-05,1.0,0.48079821467399597,0.9077612863327149
575,3.185123932780698e-05,1.0,0.48106127977371216,0.9077612863327149
576,3.1741605198476464e-05,1.0,0.48094692826271057,0.9077612863327149
577,3.153620855300687e-05,1.0,0.4815990924835205,0.9077612863327149
578,3.1428702641278505e-05,1.0,0.48084717988967896,0.9077612863327149
579,3.121585541521199e-05,1.0,0.48199304938316345,0.9077612863327149
580,3.110302714048885e-05,1.0,0.48120036721229553,0.9077612863327149
581,3.089869278483093e-05,1.0,0.4822118580341339,0.9077612863327149
582,3.079225280089304e-05,1.0,0.48122474551200867,0.9077612863327149
583,3.0582592444261536e-05,1.0,0.48224344849586487,0.9077612863327149
584,3.047935024369508e-05,1.0,0.4818381369113922,0.9077612863327149
585,3.0281398721854202e-05,1.0,0.48240944743156433,0.9077612863327149
586,3.016857590409927e-05,1.0,0.4821089804172516,0.9077612863327149
587,2.997807132487651e-05,1.0,0.48255184292793274,0.9077612863327149
588,2.9865248507121578e-05,1.0,0.48239731788635254,0.9077612863327149
589,2.9671553420484997e-05,1.0,0.4827136695384979,0.9077612863327149
590,2.9567245292128064e-05,1.0,0.4826590418815613,0.9077612863327149
591,2.9389513656497e-05,1.0,0.48300936818122864,0.9077612863327149
592,2.926498382294085e-05,1.0,0.4827874004840851,0.9077612863327149
593,2.909150680352468e-05,1.0,0.4834161400794983,0.9077612863327149
594,2.8978687623748556e-05,1.0,0.48309069871902466,0.9077612863327149
595,2.879350540752057e-05,1.0,0.48367562890052795,0.9077612863327149
596,2.869558011298068e-05,1.0,0.48313456773757935,0.9077612863327149
597,2.8517848477349617e-05,1.0,0.483862966299057,0.9077612863327149
598,2.841566856659483e-05,1.0,0.48364001512527466,0.9077612863327149
599,2.8230484531377442e-05,1.0,0.4839721620082855,0.9077612863327149
600,2.8141077564214356e-05,1.0,0.48390212655067444,0.9077612863327149
601,2.7954831239185296e-05,1.0,0.48424696922302246,0.9077612863327149
602,2.7873940780409612e-05,1.0,0.48394283652305603,0.9077612863327149
603,2.7670661438605748e-05,1.0,0.48476043343544006,0.9077612863327149
604,2.7602538466453552e-05,1.0,0.4840291440486908,0.9077612863327149
605,2.7404583306633867e-05,1.0,0.48497334122657776,0.9077612863327149
606,2.733646033448167e-05,1.0,0.48444363474845886,0.9077612863327149
607,2.7138508812640794e-05,1.0,0.4849889278411865,0.9077612863327149
608,2.7065063477493823e-05,1.0,0.4848177433013916,0.9077612863327149
609,2.687455889827106e-05,1.0,0.48498255014419556,0.9077612863327149
610,2.6792598873726092e-05,1.0,0.4853023886680603,0.9077612863327149
611,2.6610610802890733e-05,1.0,0.48501190543174744,0.9077612863327149
612,2.651800969033502e-05,1.0,0.4855416715145111,0.9077612863327149
613,2.6343468562117778e-05,1.0,0.4852871596813202,0.9077612863327149
614,2.6246611014357768e-05,1.0,0.4857305586338043,0.9077612863327149
615,2.608909926493652e-05,1.0,0.4855683743953705,0.9077612863327149
616,2.5979470592574216e-05,1.0,0.4858444333076477,0.9077612863327149
617,2.5828341676970012e-05,1.0,0.48582133650779724,0.9077612863327149
618,2.571765253378544e-05,1.0,0.48598578572273254,0.9077612863327149
619,2.5570780053385533e-05,1.0,0.4863300025463104,0.9077612863327149
620,2.5468601961620152e-05,1.0,0.48609328269958496,0.9077612863327149
621,2.5323857698822394e-05,1.0,0.48638489842414856,0.9077612863327149
622,2.5220617317245342e-05,1.0,0.4864583909511566,0.9077612863327149
623,2.508012948965188e-05,1.0,0.48663824796676636,0.9077612863327149
624,2.4983277398860082e-05,1.0,0.48667845129966736,0.9077612863327149
625,2.4844921426847577e-05,1.0,0.4870232939720154,0.9077612863327149
626,2.4743805624893866e-05,1.0,0.48662838339805603,0.9077612863327149
627,2.4590548491687514e-05,1.0,0.4873828887939453,0.9077612863327149
628,2.4508592105121352e-05,1.0,0.4869447648525238,0.9077612863327149
629,2.4353203116334043e-05,1.0,0.48776862025260925,0.9077612863327149
630,2.4285085601150058e-05,1.0,0.4868791103363037,0.9077612863327149
631,2.4122249669744633e-05,1.0,0.48818641901016235,0.9077612863327149
632,2.406157727818936e-05,1.0,0.4873674809932709,0.9077612863327149
633,2.3899807274574414e-05,1.0,0.4882289469242096,0.9077612863327149
634,2.384339131822344e-05,1.0,0.487580806016922,0.9077612863327149
635,2.367523848079145e-05,1.0,0.48840999603271484,0.9077612863327149
636,2.36177584156394e-05,1.0,0.48779216408729553,0.9077612863327149
637,2.3444281396223232e-05,1.0,0.48856016993522644,0.9077612863327149
638,2.3389993657474406e-05,1.0,0.4882715046405792,0.9077612863327149
639,2.3221840820042416e-05,1.0,0.4885025918483734,0.9077612863327149
640,2.3161164790508337e-05,1.0,0.488917738199234,0.9077612863327149
641,2.299620427947957e-05,1.0,0.48843836784362793,0.9077612863327149
642,2.2929147235117853e-05,1.0,0.48890212178230286,0.9077612863327149
643,2.2771633666707203e-05,1.0,0.48892900347709656,0.9077612863327149
644,2.2704576622345485e-05,1.0,0.48914775252342224,0.9077612863327149
645,2.256409243273083e-05,1.0,0.48900777101516724,0.9077612863327149
646,2.247894008178264e-05,1.0,0.48919180035591125,0.9077612863327149
647,2.2335259927785955e-05,1.0,0.4893744885921478,0.9077612863327149
648,2.2262885977397673e-05,1.0,0.48951786756515503,0.9077612863327149
649,2.212452636740636e-05,1.0,0.489558607339859,0.9077612863327149
650,2.2056408852222376e-05,1.0,0.4896453320980072,0.9077612863327149
651,2.1908466806053184e-05,1.0,0.4898902475833893,0.9077612863327149
652,2.184566983487457e-05,1.0,0.48985639214515686,0.9077612863327149
653,2.1712634406867437e-05,1.0,0.49003463983535767,0.9077612863327149
654,2.1637064492097124e-05,1.0,0.4901914596557617,0.9077612863327149
655,2.1507221390493214e-05,1.0,0.4904523491859436,0.9077612863327149
656,2.1446550817927346e-05,1.0,0.49038758873939514,0.9077612863327149
657,2.1307130737113766e-05,1.0,0.49060186743736267,0.9077612863327149
658,2.125071478076279e-05,1.0,0.49048057198524475,0.9077612863327149
659,2.1107038264744915e-05,1.0,0.49144163727760315,0.9077612863327149
660,2.1054876924608834e-05,1.0,0.49038031697273254,0.9077612863327149
661,2.0909074009978212e-05,1.0,0.4916730523109436,0.9077612863327149
662,2.0868625142611563e-05,1.0,0.49052348732948303,0.9077612863327149
663,2.0718560335808434e-05,1.0,0.4917565882205963,0.9077612863327149
664,2.069301081064623e-05,1.0,0.4911985397338867,0.9077612863327149
665,2.05344313144451e-05,1.0,0.49174126982688904,0.9077612863327149
666,2.0500365280895494e-05,1.0,0.4916808605194092,0.9077612863327149
667,2.033859709626995e-05,1.0,0.49177736043930054,0.9077612863327149
668,2.031517396972049e-05,1.0,0.49220630526542664,0.9077612863327149
669,2.015233985730447e-05,1.0,0.49168920516967773,0.9077612863327149
670,2.0112955098738894e-05,1.0,0.49262362718582153,0.9077612863327149
671,1.9957569747930393e-05,1.0,0.4919774830341339,0.9077612863327149
672,1.9908604372176342e-05,1.0,0.49277544021606445,0.9077612863327149
673,1.9762797819566913e-05,1.0,0.49243083596229553,0.9077612863327149
674,1.970212542801164e-05,1.0,0.4928261339664459,0.9077612863327149
675,1.957547283382155e-05,1.0,0.4926404058933258,0.9077612863327149
676,1.951586818904616e-05,1.0,0.4931338429450989,0.9077612863327149
677,1.9396666175452992e-05,1.0,0.493013471364975,0.9077612863327149
678,1.9332805095473304e-05,1.0,0.49320507049560547,0.9077612863327149
679,1.9216797227272764e-05,1.0,0.493415504693985,0.9077612863327149
680,1.914655149448663e-05,1.0,0.4934651851654053,0.9077612863327149
681,1.904118289530743e-05,1.0,0.4936738610267639,0.9077612863327149
682,1.896880530694034e-05,1.0,0.49362632632255554,0.9077612863327149
683,1.886663267214317e-05,1.0,0.4939027428627014,0.9077612863327149
684,1.879851333796978e-05,1.0,0.4940003752708435,0.9077612863327149
685,1.869847073976416e-05,1.0,0.4941047728061676,0.9077612863327149
686,1.862183489720337e-05,1.0,0.4941331744194031,0.9077612863327149
687,1.8514343537390232e-05,1.0,0.49470141530036926,0.9077612863327149
688,1.8456863472238183e-05,1.0,0.49408799409866333,0.9077612863327149
689,1.8347242075833492e-05,1.0,0.49521729350090027,0.9077612863327149
690,1.830360088206362e-05,1.0,0.4940774142742157,0.9077612863327149
691,1.8175884179072455e-05,1.0,0.49560078978538513,0.9077612863327149
692,1.814501592889428e-05,1.0,0.49463173747062683,0.9077612863327149
693,1.8014106899499893e-05,1.0,0.4954208731651306,0.9077612863327149
694,1.7996007954934612e-05,1.0,0.4950363337993622,0.9077612863327149
695,1.785871609172318e-05,1.0,0.495792955160141,0.9077612863327149
696,1.7849130017566495e-05,1.0,0.4954373240470886,0.9077612863327149
697,1.771716051734984e-05,1.0,0.4957510828971863,0.9077612863327149
698,1.7700122043606825e-05,1.0,0.49596065282821655,0.9077612863327149
699,1.75500590557931e-05,1.0,0.49576902389526367,0.9077612863327149
700,1.7543668946018443e-05,1.0,0.4965624213218689,0.9077612863327149
701,1.738615355861839e-05,1.0,0.495844304561615,0.9077612863327149
702,1.7372311049257405e-05,1.0,0.4969329237937927,0.9077612863327149
703,1.7225440387846902e-05,1.0,0.4959663450717926,0.9077612863327149
704,1.719882493489422e-05,1.0,0.4970302879810333,0.9077612863327149
705,1.7063661289284937e-05,1.0,0.49658623337745667,0.9077612863327149
706,1.7027468857122585e-05,1.0,0.49724119901657104,0.9077612863327149
707,1.689975215413142e-05,1.0,0.4969753623008728,0.9077612863327149
708,1.6855048670549877e-05,1.0,0.49729156494140625,0.9077612863327149
709,1.6752876035752706e-05,1.0,0.4975595474243164,0.9077612863327149
710,1.669965604378376e-05,1.0,0.4973938465118408,0.9077612863327149
711,1.6590032828389667e-05,1.0,0.4977875053882599,0.9077612863327149
712,1.6541071090614423e-05,1.0,0.4976707398891449,0.9077612863327149
713,1.6433576092822477e-05,1.0,0.4980902075767517,0.9077612863327149
714,1.6395255443057977e-05,1.0,0.4979003071784973,0.9077612863327149
715,1.629521466384176e-05,1.0,0.49812713265419006,0.9077612863327149
716,1.6239864635281265e-05,1.0,0.4980178475379944,0.9077612863327149
717,1.6143012544489466e-05,1.0,0.4987439215183258,0.9077612863327149
718,1.6105757822515443e-05,1.0,0.49822184443473816,0.9077612863327149
719,1.5996136426110752e-05,1.0,0.49894681572914124,0.9077612863327149
720,1.5965266356943175e-05,1.0,0.49841398000717163,0.9077612863327149
721,1.5851388525334187e-05,1.0,0.4992484152317047,0.9077612863327149
722,1.5837546015973203e-05,1.0,0.4987296760082245,0.9077612863327149
723,1.5714085748186335e-05,1.0,0.49931833148002625,0.9077612863327149
724,1.5705569239798933e-05,1.0,0.49875518679618835,0.9077612863327149
725,1.5572530173812993e-05,1.0,0.4997135102748871,0.9077612863327149
726,1.5577847079839557e-05,1.0,0.4992826282978058,0.9077612863327149
727,1.5444811651832424e-05,1.0,0.49968987703323364,0.9077612863327149
728,1.5455447282874957e-05,1.0,0.49930667877197266,0.9077612863327149
729,1.532134774606675e-05,1.0,0.4999537169933319,0.9077612863327149
730,1.5331985196098685e-05,1.0,0.5000814199447632,0.9077612863327149
731,1.5190434169198852e-05,1.0,0.49963822960853577,0.9077612863327149
732,1.5200008419924416e-05,1.0,0.5005487203598022,0.9077612863327149
733,1.5046748558233958e-05,1.0,0.49976685643196106,0.9077612863327149
734,1.5053128663566895e-05,1.0,0.5011034607887268,0.9077612863327149
735,1.4914771782059688e-05,1.0,0.5000657439231873,0.9077612863327149
736,1.4910508070897777e-05,1.0,0.5011370778083801,0.9077612863327149
737,1.4776408534089569e-05,1.0,0.5002177357673645,0.9077612863327149
738,1.4759373698325362e-05,1.0,0.5015019178390503,0.9077612863327149
739,1.4638043467130046e-05,1.0,0.5005895495414734,0.9077612863327149
740,1.4608238416258246e-05,1.0,0.5013726353645325,0.9077612863327149
741,1.4501808436762076e-05,1.0,0.5011107921600342,0.9077612863327149
742,1.4465616914094426e-05,1.0,0.5014985799789429,0.9077612863327149
743,1.4367702533490956e-05,1.0,0.5013603568077087,0.9077612863327149
744,1.432299723092001e-05,1.0,0.5016814470291138,0.9077612863327149
745,1.4233596630219836e-05,1.0,0.5016776919364929,0.9077612863327149
746,1.4203792488842737e-05,1.0,0.5018694996833801,0.9077612863327149
747,1.4094167454459239e-05,1.0,0.5018472671508789,0.9077612863327149
748,1.406436331308214e-05,1.0,0.5017231702804565,0.9077612863327149
749,1.3976025911688339e-05,1.0,0.5024348497390747,0.9077612863327149
750,1.3939837117504794e-05,1.0,0.5017978549003601,0.9077612863327149
751,1.3844047316524666e-05,1.0,0.5023128390312195,0.9077612863327149
752,1.3821695574733894e-05,1.0,0.5021453499794006,0.9077612863327149
753,1.3725906683248468e-05,1.0,0.5026072859764099,0.9077612863327149
754,1.3712067811866291e-05,1.0,0.5026429891586304,0.9077612863327149
755,1.3604572814074345e-05,1.0,0.5024474263191223,0.9077612863327149
756,1.3596055396192241e-05,1.0,0.5029333233833313,0.9077612863327149
757,1.3492817743099295e-05,1.0,0.5028747320175171,0.9077612863327149
758,1.3498135558620561e-05,1.0,0.5028723478317261,0.9077612863327149
759,1.3385319107328542e-05,1.0,0.5031092762947083,0.9077612863327149
760,1.3398085684457328e-05,1.0,0.5032904744148254,0.9077612863327149
761,1.3276755453262012e-05,1.0,0.5030364990234375,0.9077612863327149
762,1.3301229955686722e-05,1.0,0.5038947463035583,0.9077612863327149
763,1.3172450962883886e-05,1.0,0.5030286312103271,0.9077612863327149
764,1.3201183719502296e-05,1.0,0.5039171576499939,0.9077612863327149
765,1.3062824109510984e-05,1.0,0.5032767057418823,0.9077612863327149
766,1.3090490938338917e-05,1.0,0.5041927695274353,0.9077612863327149
767,1.2950003110745456e-05,1.0,0.5031736493110657,0.9077612863327149
768,1.2976606740267016e-05,1.0,0.5044289231300354,0.9077612863327149
769,1.2842504474974703e-05,1.0,0.503246009349823,0.9077612863327149
770,1.2851014616899192e-05,1.0,0.5050140619277954,0.9077612863327149
771,1.2720105587504804e-05,1.0,0.503522515296936,0.9077612863327149
772,1.2732873074128293e-05,1.0,0.5047507882118225,0.9077612863327149
773,1.2601964044733904e-05,1.0,0.5040733814239502,0.9077612863327149
774,1.2606217751454096e-05,1.0,0.5049742460250854,0.9077612863327149
775,1.2481692465371452e-05,1.0,0.5041676759719849,0.9077612863327149
776,1.2481688827392645e-05,1.0,0.5051010251045227,0.9077612863327149
777,1.2362486813799478e-05,1.0,0.5044487714767456,0.9077612863327149
778,1.2356098523014225e-05,1.0,0.5054826140403748,0.9077612863327149
779,1.2248602615727577e-05,1.0,0.5048367977142334,0.9077612863327149
780,1.2235826943651773e-05,1.0,0.5055162310600281,0.9077612863327149
781,1.2124074601160828e-05,1.0,0.5051875114440918,0.9077612863327149
782,1.2114492164982948e-05,1.0,0.505596935749054,0.9077612863327149
783,1.2027218872390222e-05,1.0,0.5052148103713989,0.9077612863327149
784,1.2011251783405896e-05,1.0,0.5058904886245728,0.9077612863327149
785,1.1912270565517247e-05,1.0,0.5054786801338196,0.9077612863327149
786,1.1893110240634996e-05,1.0,0.5061620473861694,0.9077612863327149
787,1.1806900147348642e-05,1.0,0.5056859254837036,0.9077612863327149
788,1.1788803931267466e-05,1.0,0.5061309933662415,0.9077612863327149
789,1.1704723874572664e-05,1.0,0.5060504078865051,0.9077612863327149
790,1.1679177987389266e-05,1.0,0.5064151883125305,0.9077612863327149
791,1.1602547601796687e-05,1.0,0.5063992738723755,0.9077612863327149
792,1.1577000805118587e-05,1.0,0.5064762234687805,0.9077612863327149
793,1.1499306310724933e-05,1.0,0.5066602230072021,0.9077612863327149
794,1.1485467439342756e-05,1.0,0.5066739916801453,0.9077612863327149
795,1.1395000001357403e-05,1.0,0.5068663954734802,0.9077612863327149
796,1.1391804946470074e-05,1.0,0.5069828033447266,0.9077612863327149
797,1.1296016054984648e-05,1.0,0.5069606900215149,0.9077612863327149
798,1.1303462997602765e-05,1.0,0.5073325037956238,0.9077612863327149
799,1.1205546798009891e-05,1.0,0.5072086453437805,0.9077612863327149
800,1.1212993740628008e-05,1.0,0.5071790218353271,0.9077612863327149
801,1.1116141649836209e-05,1.0,0.5075795650482178,0.9077612863327149
802,1.1148068551847246e-05,1.0,0.5077173709869385,0.9077612863327149
803,1.1039509445254225e-05,1.0,0.5075605511665344,0.9077612863327149
804,1.1068243111367337e-05,1.0,0.5087263584136963,0.9077612863327149
805,1.0967132766381837e-05,1.0,0.5071675181388855,0.9077612863327149
806,1.100012468668865e-05,1.0,0.5091592073440552,0.9077612863327149
807,1.0886243217100855e-05,1.0,0.507479727268219,0.9077612863327149
808,1.0936261787719559e-05,1.0,0.5092438459396362,0.9077612863327149
809,1.081173923012102e-05,1.0,0.5077686309814453,0.9077612863327149
810,1.0853243111341726e-05,1.0,0.5092901587486267,0.9077612863327149
811,1.0723398190748412e-05,1.0,0.5080444812774658,0.9077612863327149
812,1.0764902071969118e-05,1.0,0.5099822282791138,0.9077612863327149
813,1.062760657077888e-05,1.0,0.507900595664978,0.9077612863327149
814,1.0670176379790064e-05,1.0,0.5103127360343933,0.9077612863327149
815,1.0540330549702048e-05,1.0,0.5083314180374146,0.9077612863327149
816,1.0572256542218383e-05,1.0,0.5105997323989868,0.9077612863327149
817,1.0442410712130368e-05,1.0,0.5084214806556702,0.9077612863327149
818,1.0458372344146483e-05,1.0,0.5107030272483826,0.9077612863327149
819,1.0339169421058614e-05,1.0,0.5088597536087036,0.9077612863327149
820,1.0345552254875656e-05,1.0,0.5108609795570374,0.9077612863327149
821,1.0228477549389936e-05,1.0,0.5089482069015503,0.9077612863327149
822,1.0231668056803755e-05,1.0,0.5108206868171692,0.9077612863327149
823,1.0126300367119256e-05,1.0,0.5093709826469421,0.9077612863327149
824,1.0125232620339375e-05,1.0,0.510719895362854,0.9077612863327149
825,1.0027316420746502e-05,1.0,0.5096197724342346,0.9077612863327149
826,1.0029441909864545e-05,1.0,0.5109268426895142,0.9077612863327149
827,9.926202437782194e-06,1.0,0.509750247001648,0.9077612863327149
828,9.928329745889641e-06,1.0,0.5107731819152832,0.9077612863327149
829,9.838926416705362e-06,1.0,0.5102257132530212,0.9077612863327149
830,9.831474926613737e-06,1.0,0.5109872221946716,0.9077612863327149
831,9.752714504429605e-06,1.0,0.5103384852409363,0.9077612863327149
832,9.749519449542277e-06,1.0,0.5108791589736938,0.9077612863327149
833,9.66756579146022e-06,1.0,0.5107623934745789,0.9077612863327149
834,9.666499863669742e-06,1.0,0.5113815665245056,0.9077612863327149
835,9.577096534485463e-06,1.0,0.5106242299079895,0.9077612863327149
836,9.586673513695132e-06,1.0,0.5114132165908813,0.9077612863327149
837,9.495141057414003e-06,1.0,0.5111746788024902,0.9077612863327149
838,9.514298653812148e-06,1.0,0.5117750763893127,0.9077612863327149
839,9.427023542230017e-06,1.0,0.5111849904060364,0.9077612863327149
840,9.448309356230311e-06,1.0,0.5118390321731567,0.9077612863327149
841,9.357841918244958e-06,1.0,0.5116866827011108,0.9077612863327149
842,9.395090273756068e-06,1.0,0.5122677683830261,0.9077612863327149
843,9.304624654760119e-06,1.0,0.5112677812576294,0.9077612863327149
844,9.348259482067078e-06,1.0,0.5127608776092529,0.9077612863327149
845,9.249277354683727e-06,1.0,0.5113793611526489,0.9077612863327149
846,9.292912181990687e-06,1.0,0.5135186314582825,0.9077612863327149
847,9.186480383505113e-06,1.0,0.5111912488937378,0.9077612863327149
848,9.24714458960807e-06,1.0,0.5137489438056946,0.9077612863327149
849,9.129005775321275e-06,1.0,0.5116205215454102,0.9077612863327149
850,9.18541172723053e-06,1.0,0.5142322778701782,0.9077612863327149
851,9.073659384739585e-06,1.0,0.5116131901741028,0.9077612863327149
852,9.120486538449768e-06,1.0,0.5145412087440491,0.9077612863327149
853,8.994898053060751e-06,1.0,0.5121424794197083,0.9077612863327149
854,9.048110769072082e-06,1.0,0.5151202082633972,0.9077612863327149
855,8.922522283683065e-06,1.0,0.5118268132209778,0.9077612863327149
856,8.958704711403698e-06,1.0,0.51507967710495,0.9077612863327149
857,8.836309461912606e-06,1.0,0.5126086473464966,0.9077612863327149
858,8.860785783326719e-06,1.0,0.5152344107627869,0.9077612863327149
859,8.740518751437776e-06,1.0,0.5125137567520142,0.9077612863327149
860,8.761801836953964e-06,1.0,0.5153093934059143,0.9077612863327149
861,8.651112693769392e-06,1.0,0.5132315158843994,0.9077612863327149
862,8.657496437081136e-06,1.0,0.5154522061347961,0.9077612863327149
863,8.538291695003863e-06,1.0,0.5131767988204956,0.9077612863327149
864,8.554255146009382e-06,1.0,0.5151780247688293,0.9077612863327149
865,8.44675741973333e-06,1.0,0.5136427283287048,0.9077612863327149
866,8.461656761937775e-06,1.0,0.5156769156455994,0.9077612863327149
867,8.367996088054497e-06,1.0,0.5138136744499207,0.9077612863327149
868,8.374380740860943e-06,1.0,0.5150231122970581,0.9077612863327149
869,8.282848284579813e-06,1.0,0.5142416954040527,0.9077612863327149
870,8.288167919090483e-06,1.0,0.5156341791152954,0.9077612863327149
871,8.208343388105277e-06,1.0,0.5142362713813782,0.9077612863327149
872,8.21792218630435e-06,1.0,0.5151731967926025,0.9077612863327149
873,8.137032637023367e-06,1.0,0.5144534111022949,0.9077612863327149
874,8.138094926835038e-06,1.0,0.5155835151672363,0.9077612863327149
875,8.06252774054883e-06,1.0,0.5147398114204407,0.9077612863327149
876,8.071040610957425e-06,1.0,0.5155557990074158,0.9077612863327149
877,7.992281098267995e-06,1.0,0.5148451924324036,0.9077612863327149
878,7.996535714482889e-06,1.0,0.5158212184906006,0.9077612863327149
879,7.92522587289568e-06,1.0,0.5153196454048157,0.9077612863327149
880,7.935867870401125e-06,1.0,0.5155906677246094,0.9077612863327149
881,7.863493920012843e-06,1.0,0.5154658555984497,0.9077612863327149
882,7.88797206041636e-06,1.0,0.5163300633430481,0.9077612863327149
883,7.815599019522779e-06,1.0,0.5154238343238831,0.9077612863327149
884,7.845397703931667e-06,1.0,0.5165546536445618,0.9077612863327149
885,7.761316737742163e-06,1.0,0.5157607793807983,0.9077612863327149
886,7.807081601640675e-06,1.0,0.5171784162521362,0.9077612863327149
887,7.722998816461768e-06,1.0,0.5155231356620789,0.9077612863327149
888,7.781535714457277e-06,1.0,0.5178197026252747,0.9077612863327149
889,7.694261512369849e-06,1.0,0.5157250761985779,0.9077612863327149
890,7.774085133860353e-06,1.0,0.5187122225761414,0.9077612863327149
891,7.674037988181226e-06,1.0,0.515569269657135,0.9077612863327149
892,7.754925718472805e-06,1.0,0.5189383625984192,0.9077612863327149
893,7.648493919987231e-06,1.0,0.5161423683166504,0.9077612863327149
894,7.742151865386404e-06,1.0,0.520134687423706,0.9077612863327149
895,7.620820724696387e-06,1.0,0.5159699320793152,0.9077612863327149
896,7.700642527197488e-06,1.0,0.5205927491188049,0.9077612863327149
897,7.573988568765344e-06,1.0,0.5165495276451111,0.9077612863327149
898,7.646360245416872e-06,1.0,0.521268904209137,0.9077612863327149
899,7.516513960581506e-06,1.0,0.5166314840316772,0.9077612863327149
900,7.555890533694765e-06,1.0,0.5208104252815247,0.9077612863327149
901,7.416464541165624e-06,1.0,0.5173160433769226,0.9077612863327149
902,7.452649242623011e-06,1.0,0.5211427807807922,0.9077612863327149
903,7.328123047045665e-06,1.0,0.517553985118866,0.9077612863327149
904,7.341957825701684e-06,1.0,0.5209445357322693,0.9077612863327149
905,7.222753083624411e-06,1.0,0.5178259015083313,0.9077612863327149
906,7.23233006283408e-06,1.0,0.5208843946456909,0.9077612863327149
907,7.118447229004232e-06,1.0,0.5178592801094055,0.9077612863327149
908,7.110994374670554e-06,1.0,0.5206493139266968,0.9077612863327149
909,7.016269137238851e-06,1.0,0.5186086297035217,0.9077612863327149
910,7.020524662948446e-06,1.0,0.5204278826713562,0.9077612863327149
911,6.937506896065315e-06,1.0,0.5187355279922485,0.9077612863327149
912,6.933247732376913e-06,1.0,0.5201433300971985,0.9077612863327149
913,6.859808763692854e-06,1.0,0.5191450715065002,0.9077612863327149
914,6.866193871246651e-06,1.0,0.520280659198761,0.9077612863327149
915,6.8065919549553655e-06,1.0,0.5192360877990723,0.9077612863327149
916,6.810847935412312e-06,1.0,0.5202897191047668,0.9077612863327149
917,6.741665401932551e-06,1.0,0.5193215012550354,0.9077612863327149
918,6.755501999577973e-06,1.0,0.5204421281814575,0.9077612863327149
919,6.687384484393988e-06,1.0,0.5194516181945801,0.9077612863327149
920,6.700155154248932e-06,1.0,0.5207656025886536,0.9077612863327149
921,6.642681000812445e-06,1.0,0.5197583436965942,0.9077612863327149
922,6.661838142463239e-06,1.0,0.5207697153091431,0.9077612863327149
923,6.591592409677105e-06,1.0,0.5199956893920898,0.9077612863327149
924,6.637357728322968e-06,1.0,0.5212839841842651,0.9077612863327149
925,6.563918759638909e-06,1.0,0.5198802351951599,0.9077612863327149
926,6.6064903876394965e-06,1.0,0.521382749080658,0.9077612863327149
927,6.52879452900379e-06,1.0,0.5202535390853882,0.9077612863327149
928,6.589460554096149e-06,1.0,0.5224656462669373,0.9077612863327149
929,6.517086603707867e-06,1.0,0.5200275182723999,0.9077612863327149
930,6.591588771698298e-06,1.0,0.5233437418937683,0.9077612863327149
931,6.513892913062591e-06,1.0,0.5200982689857483,0.9077612863327149
932,6.597973879252095e-06,1.0,0.5242316722869873,0.9077612863327149
933,6.512828804261517e-06,1.0,0.5204786658287048,0.9077612863327149
934,6.596908406208968e-06,1.0,0.5250955820083618,0.9077612863327149
935,6.502184987766668e-06,1.0,0.5204914212226868,0.9077612863327149
936,6.592650606762618e-06,1.0,0.525785505771637,0.9077612863327149
937,6.481961463578045e-06,1.0,0.520974338054657,0.9077612863327149
938,6.556462722073775e-06,1.0,0.5261733531951904,0.9077612863327149
939,6.4266155277437065e-06,1.0,0.5211893320083618,0.9077612863327149
940,6.4947298596962355e-06,1.0,0.5266947150230408,0.9077612863327149
941,6.360625320667168e-06,1.0,0.5214199423789978,0.9077612863327149
942,6.409582510968903e-06,1.0,0.5268716812133789,0.9077612863327149
943,6.2658982642460614e-06,1.0,0.5217982530593872,0.9077612863327149
944,6.285053132160101e-06,1.0,0.5265772938728333,0.9077612863327149
945,6.153076810733182e-06,1.0,0.5225124955177307,0.9077612863327149
946,6.160526481835404e-06,1.0,0.5260313749313354,0.9077612863327149
947,6.042384484317154e-06,1.0,0.5225136876106262,0.9077612863327149
948,6.040253992978251e-06,1.0,0.5256471633911133,0.9077612863327149
949,5.944463737250771e-06,1.0,0.522940456867218,0.9077612863327149
950,5.955106189503567e-06,1.0,0.5255993008613586,0.9077612863327149
951,5.872087967873085e-06,1.0,0.523487389087677,0.9077612863327149
952,5.876343948330032e-06,1.0,0.5255297422409058,0.9077612863327149
953,5.7997108342533465e-06,1.0,0.5234479904174805,0.9077612863327149
954,5.812482868350344e-06,1.0,0.5254392027854919,0.9077612863327149
955,5.752880042564357e-06,1.0,0.5237101316452026,0.9077612863327149
956,5.75181456952123e-06,1.0,0.5253503918647766,0.9077612863327149
957,5.694339961337391e-06,1.0,0.5239970088005066,0.9077612863327149
958,5.6985968512890395e-06,1.0,0.5254554748535156,0.9077612863327149
959,5.637929007207276e-06,1.0,0.5242891907691956,0.9077612863327149
960,5.648572368954774e-06,1.0,0.5256273746490479,0.9077612863327149
961,5.58577539777616e-06,1.0,0.5243526101112366,0.9077612863327149
962,5.600675649475306e-06,1.0,0.5256701111793518,0.9077612863327149
963,5.54320195078617e-06,1.0,0.5246912837028503,0.9077612863327149
964,5.5538444030389655e-06,1.0,0.5257322192192078,0.9077612863327149
965,5.498498467204627e-06,1.0,0.5248124599456787,0.9077612863327149
966,5.507012247107923e-06,1.0,0.525953471660614,0.9077612863327149
967,5.454860456666211e-06,1.0,0.525044322013855,0.9077612863327149
968,5.471888471220154e-06,1.0,0.526029646396637,0.9077612863327149
969,5.416542990133166e-06,1.0,0.525391697883606,0.9077612863327149
970,5.449537184176734e-06,1.0,0.5263016819953918,0.9077612863327149
971,5.392063030740246e-06,1.0,0.5255308151245117,0.9077612863327149
972,5.439957021735609e-06,1.0,0.5268009305000305,0.9077612863327149
973,5.3729045248473994e-06,1.0,0.5254973769187927,0.9077612863327149
974,5.4282495511870366e-06,1.0,0.5276880860328674,0.9077612863327149
975,5.3686467254010495e-06,1.0,0.5255938172340393,0.9077612863327149
976,5.45379316463368e-06,1.0,0.5287755727767944,0.9077612863327149
977,5.386740667745471e-06,1.0,0.5254958271980286,0.9077612863327149
978,5.491044703376247e-06,1.0,0.5303454995155334,0.9077612863327149
979,5.423992661235388e-06,1.0,0.5258132219314575,0.9077612863327149
980,5.549583420361159e-06,1.0,0.5317839980125427,0.9077612863327149
981,5.475081252370728e-06,1.0,0.5259207487106323,0.9077612863327149
982,5.601735665550223e-06,1.0,0.5326118469238281,0.9022667808382094
983,5.51339735466172e-06,1.0,0.5264078378677368,0.9077612863327149
984,5.6602739277877845e-06,1.0,0.5345823168754578,0.9022667808382094
985,5.559164037549635e-06,1.0,0.526838481426239,0.9077612863327149
986,5.681560196535429e-06,1.0,0.5360366106033325,0.9022667808382094
987,5.543198767554713e-06,1.0,0.5270984172821045,0.9077612863327149
988,5.629407496599015e-06,1.0,0.5369793772697449,0.9022667808382094
989,5.446342584036756e-06,1.0,0.527633547782898,0.9077612863327149
990,5.47507715964457e-06,1.0,0.5352815985679626,0.9077612863327149
991,5.284561211738037e-06,1.0,0.528774619102478,0.9077612863327149
992,5.261143542156788e-06,1.0,0.5341519117355347,0.9077612863327149
993,5.088720172352623e-06,1.0,0.5293998122215271,0.9077612863327149
994,5.0525309234217275e-06,1.0,0.5333974361419678,0.9077612863327149
995,4.938646270602476e-06,1.0,0.5296156406402588,0.9077612863327149
996,4.9237437451665755e-06,1.0,0.5325294137001038,0.9077612863327149
997,4.8364677240897436e-06,1.0,0.529552161693573,0.9077612863327149
998,4.832209924643394e-06,1.0,0.5313245058059692,0.9077612863327149
999,4.767284735862631e-06,1.0,0.5300499796867371,0.9077612863327149
