,loss,recall,val_loss,val_recall
0,0.9535233378410339,0.6611567004424147,0.5158150792121887,0.7846982382696668
1,0.514953076839447,0.768735827664399,0.5747423768043518,0.7964131106988249
2,0.4488876760005951,0.8667207792207793,0.8015616536140442,0.8229532372389514
3,0.2155035436153412,0.8481459017173302,0.6785148978233337,0.8363945578231293
4,0.16621258854866028,0.9142857142857144,0.594449520111084,0.8736961451247167
5,0.10454779863357544,0.9125,0.5634370446205139,0.878133374561946
6,0.07461687177419662,0.9438775510204083,0.5557597875595093,0.8663832199546485
7,0.04386167600750923,0.9952380952380953,0.471477210521698,0.856859410430839
8,0.03414440527558327,0.9880952380952381,0.37710997462272644,0.8838151927437642
9,0.018962282687425613,1.0,0.4620198905467987,0.8656333745619459
10,0.019207920879125595,0.9880952380952381,0.4855203926563263,0.8661453625739339
11,0.011701717041432858,1.0,0.46100935339927673,0.8878444967730682
12,0.008069292642176151,1.0,0.431976318359375,0.8815759637188209
13,0.005324333440512419,1.0,0.4980015456676483,0.875907029478458
14,0.004320651292800903,1.0,0.5200629830360413,0.8704125239839525
15,0.0033664852380752563,1.0,0.5158827900886536,0.8598683062968776
16,0.002829303964972496,1.0,0.5430270433425903,0.8653628117913831
17,0.0024445203598588705,1.0,0.561961829662323,0.8653628117913831
18,0.0020700350869446993,1.0,0.5972942113876343,0.8704125239839525
19,0.0018391378689557314,1.0,0.6042336821556091,0.8704125239839525
20,0.001624317024834454,1.0,0.6062923669815063,0.8704125239839525
21,0.0014436462661251426,1.0,0.6183551549911499,0.8704125239839525
22,0.001298320246860385,1.0,0.6222609281539917,0.8704125239839525
23,0.0011659618467092514,1.0,0.6341089010238647,0.8704125239839525
24,0.0010583217954263091,1.0,0.6403388381004333,0.8704125239839525
25,0.000957562995608896,1.0,0.647369384765625,0.8704125239839525
26,0.0008707664674147964,1.0,0.654281497001648,0.8704125239839525
27,0.0007934857276268303,1.0,0.6614847183227539,0.875907029478458
28,0.0007268302142620087,1.0,0.6711145043373108,0.875907029478458
29,0.0006672189338132739,1.0,0.6793134808540344,0.875907029478458
30,0.000613069161772728,1.0,0.6884738802909851,0.8653628117913831
31,0.0005643874756060541,1.0,0.696365237236023,0.8653628117913831
32,0.0005211929092183709,1.0,0.7036796808242798,0.8653628117913831
33,0.00048212899127975106,1.0,0.7109888195991516,0.8653628117913831
34,0.00044752118992619216,1.0,0.7185988426208496,0.8653628117913831
35,0.0004160074458923191,1.0,0.7265872955322266,0.8653628117913831
36,0.00038785533979535103,1.0,0.7346598505973816,0.8653628117913831
37,0.0003621383220888674,1.0,0.7423548102378845,0.8653628117913831
38,0.00033888319740071893,1.0,0.7498248815536499,0.8653628117913831
39,0.00031765917083248496,1.0,0.7569499611854553,0.8653628117913831
40,0.00029838710906915367,1.0,0.7644168138504028,0.8653628117913831
41,0.00028089623083360493,1.0,0.7719577550888062,0.8653628117913831
42,0.0002650754468049854,1.0,0.7796732783317566,0.8653628117913831
43,0.00025067004025913775,1.0,0.7871009707450867,0.8653628117913831
44,0.00023739319294691086,1.0,0.7944450378417969,0.8510770975056688
45,0.00022513451403938234,1.0,0.8013485074043274,0.8510770975056688
46,0.00021385478612501174,1.0,0.807878851890564,0.8510770975056688
47,0.0002034902572631836,1.0,0.8140590786933899,0.8510770975056688
48,0.00019393049296922982,1.0,0.8200949430465698,0.8510770975056688
49,0.0001850734552135691,1.0,0.8260412216186523,0.8510770975056688
50,0.00017682240286376327,1.0,0.8319185376167297,0.847180993609565
51,0.0001691317156655714,1.0,0.8376871943473816,0.847180993609565
52,0.0001619141548871994,1.0,0.8432246446609497,0.847180993609565
53,0.00015515701670665294,1.0,0.8485541939735413,0.847180993609565
54,0.00014882841787766665,1.0,0.8537349104881287,0.847180993609565
55,0.0001428837131243199,1.0,0.8588243126869202,0.847180993609565
56,0.00013729951751884073,1.0,0.86378413438797,0.847180993609565
57,0.00013202798436395824,1.0,0.8686783909797668,0.847180993609565
58,0.00012707767018582672,1.0,0.8734321594238281,0.847180993609565
59,0.00012238684576004744,1.0,0.8781073689460754,0.847180993609565
60,0.00011795553291449323,1.0,0.8827226758003235,0.847180993609565
61,0.00011377206828910857,1.0,0.8872222900390625,0.847180993609565
62,0.00010980771185131744,1.0,0.8916041254997253,0.847180993609565
63,0.00010605929855955765,1.0,0.8958448767662048,0.847180993609565
64,0.00010250126797473058,1.0,0.8999733328819275,0.847180993609565
65,9.913260873872787e-05,1.0,0.9039941430091858,0.847180993609565
66,9.594159200787544e-05,1.0,0.9079819917678833,0.847180993609565
67,9.289950685342774e-05,1.0,0.9118160605430603,0.847180993609565
68,9.002232400234789e-05,1.0,0.9154947996139526,0.847180993609565
69,8.728661487111822e-05,1.0,0.9190718531608582,0.847180993609565
70,8.468284067930654e-05,1.0,0.9224967956542969,0.847180993609565
71,8.219714072765782e-05,1.0,0.9258662462234497,0.847180993609565
72,7.983592513483018e-05,1.0,0.9291486144065857,0.847180993609565
73,7.757898129057139e-05,1.0,0.9322897791862488,0.847180993609565
74,7.542841194663197e-05,1.0,0.9353275299072266,0.847180993609565
75,7.337361603276804e-05,1.0,0.9382821917533875,0.847180993609565
76,7.14092529960908e-05,1.0,0.9411888718605042,0.847180993609565
77,6.952253897907212e-05,1.0,0.9440062642097473,0.847180993609565
78,6.772414781153202e-05,1.0,0.9467744827270508,0.847180993609565
79,6.600236520171165e-05,1.0,0.9494118094444275,0.847180993609565
80,6.434335227822885e-05,1.0,0.9520214200019836,0.847180993609565
81,6.275563646340743e-05,1.0,0.9546002149581909,0.847180993609565
82,6.123175990069285e-05,1.0,0.957058310508728,0.847180993609565
83,5.976320244371891e-05,1.0,0.9595127105712891,0.847180993609565
84,5.835317278979346e-05,1.0,0.961873471736908,0.847180993609565
85,5.6999542721314356e-05,1.0,0.9641846418380737,0.847180993609565
86,5.569484710576944e-05,1.0,0.9664711356163025,0.847180993609565
87,5.4438049119198695e-05,1.0,0.9686967134475708,0.847180993609565
88,5.3227002354105935e-05,1.0,0.9708971977233887,0.847180993609565
89,5.205638808547519e-05,1.0,0.973077118396759,0.847180993609565
90,5.092833089292981e-05,1.0,0.9751371145248413,0.847180993609565
91,4.98428416904062e-05,1.0,0.9772078394889832,0.847180993609565
92,4.879034167970531e-05,1.0,0.9792639017105103,0.847180993609565
93,4.777402136824094e-05,1.0,0.9812681078910828,0.847180993609565
94,4.679068661062047e-05,1.0,0.9832058548927307,0.847180993609565
95,4.582863039104268e-05,1.0,0.985173225402832,0.847180993609565
96,4.4914464524481446e-05,1.0,0.9871134757995605,0.847180993609565
97,4.4022646761732176e-05,1.0,0.9889737367630005,0.847180993609565
98,4.3153169826837257e-05,1.0,0.9908679127693176,0.847180993609565
99,4.231562343193218e-05,1.0,0.9926928281784058,0.847180993609565
100,4.149935193709098e-05,1.0,0.9944933652877808,0.847180993609565
101,4.0709688619244844e-05,1.0,0.9962941408157349,0.847180993609565
102,3.993917925981805e-05,1.0,0.9980915784835815,0.847180993609565
103,3.919846858480014e-05,1.0,0.9998343586921692,0.847180993609565
104,3.846839535981417e-05,1.0,1.0015171766281128,0.847180993609565
105,3.77713113266509e-05,1.0,1.0032356977462769,0.847180993609565
106,3.7076359149068594e-05,1.0,1.0048503875732422,0.847180993609565
107,3.6417583032744005e-05,1.0,1.0065208673477173,0.847180993609565
108,3.5764132917393e-05,1.0,1.008183479309082,0.847180993609565
109,3.514048148645088e-05,1.0,1.0098439455032349,0.847180993609565
110,3.452533928793855e-05,1.0,1.0114771127700806,0.847180993609565
111,3.392296639503911e-05,1.0,1.0130360126495361,0.847180993609565
112,3.3340817026328295e-05,1.0,1.0146340131759644,0.847180993609565
113,3.2768242817837745e-05,1.0,1.0161314010620117,0.847180993609565
114,3.220950020477176e-05,1.0,1.0176634788513184,0.847180993609565
115,3.167204340570606e-05,1.0,1.0191833972930908,0.847180993609565
116,3.11462972604204e-05,1.0,1.0207256078720093,0.847180993609565
117,3.062586620217189e-05,1.0,1.0221991539001465,0.847180993609565
118,3.012991692230571e-05,1.0,1.0236915349960327,0.847180993609565
119,2.9632899895659648e-05,1.0,1.0251232385635376,0.847180993609565
120,2.9150778573239222e-05,1.0,1.0265837907791138,0.847180993609565
121,2.8687820304185152e-05,1.0,1.0280520915985107,0.847180993609565
122,2.8226986614754423e-05,1.0,1.0294182300567627,0.847180993609565
123,2.7778922230936587e-05,1.0,1.0308496952056885,0.847180993609565
124,2.734256850089878e-05,1.0,1.032257318496704,0.847180993609565
125,2.6914727641269565e-05,1.0,1.0336153507232666,0.847180993609565
126,2.6494331905269064e-05,1.0,1.0349845886230469,0.847180993609565
127,2.608245449664537e-05,1.0,1.036301851272583,0.847180993609565
128,2.5686540539027192e-05,1.0,1.03769850730896,0.847180993609565
129,2.529168523324188e-05,1.0,1.0389702320098877,0.847180993609565
130,2.4912800654419698e-05,1.0,1.040297508239746,0.847180993609565
131,2.4538167053833604e-05,1.0,1.0416555404663086,0.847180993609565
132,2.4167793526430614e-05,1.0,1.0429209470748901,0.847180993609565
133,2.3813383450033143e-05,1.0,1.0442378520965576,0.847180993609565
134,2.3463231627829373e-05,1.0,1.0454562902450562,0.847180993609565
135,2.3108819732442498e-05,1.0,1.0467050075531006,0.847180993609565
136,2.277569547004532e-05,1.0,1.0479907989501953,0.847180993609565
137,2.2441503460868262e-05,1.0,1.0491622686386108,0.847180993609565
138,2.2111571524874307e-05,1.0,1.0503824949264526,0.847180993609565
139,2.1796538931084797e-05,1.0,1.0516252517700195,0.847180993609565
140,2.148576095351018e-05,1.0,1.0528662204742432,0.847180993609565
141,2.1183499484322965e-05,1.0,1.054018259048462,0.847180993609565
142,2.0881239834125154e-05,1.0,1.0551819801330566,0.847180993609565
143,2.0588553525158204e-05,1.0,1.056360125541687,0.847180993609565
144,2.030863834079355e-05,1.0,1.057583212852478,0.847180993609565
145,2.002340625040233e-05,1.0,1.0586696863174438,0.847180993609565
146,1.9741364667424932e-05,1.0,1.0598219633102417,0.847180993609565
147,1.946783777384553e-05,1.0,1.060953140258789,0.847180993609565
148,1.9206016077077948e-05,1.0,1.0620824098587036,0.847180993609565
149,1.893568150990177e-05,1.0,1.0632045269012451,0.847180993609565
150,1.868343861133326e-05,1.0,1.0643147230148315,0.847180993609565
151,1.8430133422953077e-05,1.0,1.0653654336929321,0.847180993609565
152,1.818321288737934e-05,1.0,1.066478967666626,0.847180993609565
153,1.7943744751391932e-05,1.0,1.0675411224365234,0.847180993609565
154,1.7708529412630014e-05,1.0,1.0685855150222778,0.847180993609565
155,1.7472251784056425e-05,1.0,1.0696980953216553,0.847180993609565
156,1.7242358808289282e-05,1.0,1.0707145929336548,0.847180993609565
157,1.7019916413119063e-05,1.0,1.0717881917953491,0.847180993609565
158,1.680066816334147e-05,1.0,1.0728018283843994,0.847180993609565
159,1.658674045756925e-05,1.0,1.0738075971603394,0.847180993609565
160,1.63696186064044e-05,1.0,1.0748155117034912,0.847180993609565
161,1.6161011444637552e-05,1.0,1.0758270025253296,0.847180993609565
162,1.5956662537064403e-05,1.0,1.0767492055892944,0.847180993609565
163,1.5745925338706e-05,1.0,1.0777909755706787,0.847180993609565
164,1.5552219338133e-05,1.0,1.0787394046783447,0.847180993609565
165,1.5358513337559998e-05,1.0,1.0796700716018677,0.847180993609565
166,1.5171192899288144e-05,1.0,1.0806766748428345,0.847180993609565
167,1.4982806533225812e-05,1.0,1.0815534591674805,0.847180993609565
168,1.4797615222050808e-05,1.0,1.0825831890106201,0.847180993609565
169,1.461029296478955e-05,1.0,1.0834726095199585,0.847180993609565
170,1.4435744560614694e-05,1.0,1.0843867063522339,0.847180993609565
171,1.426438848284306e-05,1.0,1.0853617191314697,0.847180993609565
172,1.4087710042076651e-05,1.0,1.0862209796905518,0.847180993609565
173,1.391741716361139e-05,1.0,1.0871257781982422,0.847180993609565
174,1.3747124285146128e-05,1.0,1.087981939315796,0.847180993609565
175,1.3583217878476717e-05,1.0,1.0888289213180542,0.847180993609565
176,1.3428890270006377e-05,1.0,1.089764952659607,0.847180993609565
177,1.3262855645734817e-05,1.0,1.090612769126892,0.847180993609565
178,1.3106399819662329e-05,1.0,1.0914812088012695,0.847180993609565
179,1.2952071301697288e-05,1.0,1.0923932790756226,0.847180993609565
180,1.2806257473130245e-05,1.0,1.093246340751648,0.847180993609565
181,1.265938044525683e-05,1.0,1.094070553779602,0.847180993609565
182,1.251356843567919e-05,1.0,1.0948971509933472,0.847180993609565
183,1.2367753697617445e-05,1.0,1.0956991910934448,0.847180993609565
184,1.222406808665255e-05,1.0,1.096494436264038,0.847180993609565
185,1.208251342177391e-05,1.0,1.097438931465149,0.847180993609565
186,1.194840751850279e-05,1.0,1.0981703996658325,0.847180993609565
187,1.1812173397629522e-05,1.0,1.099018931388855,0.847180993609565
188,1.1672745131363627e-05,1.0,1.0998072624206543,0.847180993609565
189,1.1546087989700027e-05,1.0,1.1005280017852783,0.847180993609565
190,1.1411982995923609e-05,1.0,1.101339340209961,0.847180993609565
191,1.1285324944765307e-05,1.0,1.1021873950958252,0.847180993609565
192,1.1162927876284812e-05,1.0,1.1030164957046509,0.847180993609565
193,1.1044787243008614e-05,1.0,1.1037296056747437,0.847180993609565
194,1.0913873666140717e-05,1.0,1.1045467853546143,0.847180993609565
195,1.0797861250466667e-05,1.0,1.1053065061569214,0.847180993609565
196,1.0679718798201066e-05,1.0,1.1060701608657837,0.847180993609565
197,1.0563707292021718e-05,1.0,1.1067726612091064,0.847180993609565
198,1.0445563930261414e-05,1.0,1.1075791120529175,0.847180993609565
199,1.0329552424082067e-05,1.0,1.1083062887191772,0.847180993609565
200,1.0222053788311314e-05,1.0,1.109083652496338,0.847180993609565
201,1.0107105481438339e-05,1.0,1.1097934246063232,0.847180993609565
202,1.0000671863963362e-05,1.0,1.1104851961135864,0.847180993609565
203,9.89530235528946e-06,1.0,1.1111575365066528,0.847180993609565
204,9.794189281819854e-06,1.0,1.1119381189346313,0.847180993609565
205,9.687755664344877e-06,1.0,1.1126480102539062,0.847180993609565
206,9.582386155670974e-06,1.0,1.1133291721343994,0.847180993609565
207,9.48340220929822e-06,1.0,1.1140644550323486,0.847180993609565
208,9.380161827721167e-06,1.0,1.1147170066833496,0.847180993609565
209,9.284371117246337e-06,1.0,1.1155083179473877,0.847180993609565
210,9.187516297970433e-06,1.0,1.116076946258545,0.847180993609565
211,9.091724678000901e-06,1.0,1.116902232170105,0.847180993609565
212,8.996998985821847e-06,1.0,1.117451786994934,0.847180993609565
213,8.908657946449239e-06,1.0,1.1181292533874512,0.847180993609565
214,8.813932254270185e-06,1.0,1.1189498901367188,0.847180993609565
215,8.729847650101874e-06,1.0,1.1194628477096558,0.847180993609565
216,8.627671377325896e-06,1.0,1.120120644569397,0.847180993609565
217,8.546781828044914e-06,1.0,1.1208263635635376,0.847180993609565
218,8.455246643279679e-06,1.0,1.121434211730957,0.847180993609565
219,8.37967854749877e-06,1.0,1.1222164630889893,0.847180993609565
220,8.295595762319863e-06,1.0,1.1227227449417114,0.847180993609565
221,8.21044795884518e-06,1.0,1.1234188079833984,0.847180993609565
222,8.125300155370496e-06,1.0,1.124091386795044,0.847180993609565
223,8.044410606089514e-06,1.0,1.1246280670166016,0.847180993609565
224,7.964584256114904e-06,1.0,1.1253658533096313,0.847180993609565
225,7.884758815634996e-06,1.0,1.1258795261383057,0.847180993609565
226,7.81451217335416e-06,1.0,1.126530408859253,0.847180993609565
227,7.733621714578476e-06,1.0,1.1272820234298706,0.847180993609565
228,7.654860382899642e-06,1.0,1.1278530359268188,0.847180993609565
229,7.579291377624031e-06,1.0,1.1283947229385376,0.847180993609565
230,7.5133020800421946e-06,1.0,1.1292002201080322,0.847180993609565
231,7.438797638315009e-06,1.0,1.129577875137329,0.847180993609565
232,7.368550541286822e-06,1.0,1.130268931388855,0.847180993609565
233,7.302560788957635e-06,1.0,1.1309655904769897,0.847180993609565
234,7.224864475574577e-06,1.0,1.1313140392303467,0.847180993609565
235,7.158873813750688e-06,1.0,1.1321645975112915,0.847180993609565
236,7.087562607921427e-06,1.0,1.132624864578247,0.847180993609565
237,7.018380074441666e-06,1.0,1.1332952976226807,0.847180993609565
238,6.955583558010403e-06,1.0,1.1338602304458618,0.847180993609565
239,6.891722932778066e-06,1.0,1.1344432830810547,0.847180993609565
240,6.826797289249953e-06,1.0,1.1351203918457031,0.847180993609565
241,6.7650648816197645e-06,1.0,1.1355082988739014,0.847180993609565
242,6.705461146339076e-06,1.0,1.136173129081726,0.847180993609565
243,6.639471394009888e-06,1.0,1.1367186307907104,0.847180993609565
244,6.5777398958744016e-06,1.0,1.1372475624084473,0.847180993609565
245,6.5213289417442866e-06,1.0,1.1379239559173584,0.847180993609565
246,6.45533964416245e-06,1.0,1.1384741067886353,0.847180993609565
247,6.398928690032335e-06,1.0,1.139024257659912,0.847180993609565
248,6.3457118812948465e-06,1.0,1.1395150423049927,0.847180993609565
249,6.2850435824657325e-06,1.0,1.1402602195739746,0.847180993609565
250,6.2328904277819674e-06,1.0,1.1406272649765015,0.847180993609565
251,6.173286237753928e-06,1.0,1.1413342952728271,0.847180993609565
252,6.114747066021664e-06,1.0,1.1419308185577393,0.8376571840857555
253,6.066850801289547e-06,1.0,1.1423701047897339,0.8376571840857555
254,6.005119303154061e-06,1.0,1.1429373025894165,0.8376571840857555
255,5.959352165518794e-06,1.0,1.1435070037841797,0.8376571840857555
256,5.902941211388679e-06,1.0,1.1441013813018799,0.8376571840857555
257,5.855045401403913e-06,1.0,1.1446369886398315,0.8376571840857555
258,5.801828137919074e-06,1.0,1.145183801651001,0.8376571840857555
259,5.745417183788959e-06,1.0,1.1457958221435547,0.8376571840857555
260,5.696456810255768e-06,1.0,1.1461647748947144,0.8376571840857555
261,5.648561455018353e-06,1.0,1.146884799003601,0.8376571840857555
262,5.596408300334588e-06,1.0,1.1473549604415894,0.8376571840857555
263,5.546383818000322e-06,1.0,1.1479284763336182,0.8376571840857555
264,5.49955166206928e-06,1.0,1.1484688520431519,0.8376571840857555
265,5.4505917432834394e-06,1.0,1.1488946676254272,0.8376571840857555
266,5.414403858594596e-06,1.0,1.149533987045288,0.8376571840857555
267,5.360121576813981e-06,1.0,1.150144338607788,0.8376571840857555
268,5.320740910974564e-06,1.0,1.1505963802337646,0.8376571840857555
269,5.276037427393021e-06,1.0,1.1512902975082397,0.8376571840857555
270,5.23133485330618e-06,1.0,1.1517575979232788,0.8376571840857555
271,5.186631369724637e-06,1.0,1.1523267030715942,0.8376571840857555
272,5.135542778589297e-06,1.0,1.1528682708740234,0.8376571840857555
273,5.102548129798379e-06,1.0,1.1534582376480103,0.8376571840857555
274,5.054652319813613e-06,1.0,1.1538562774658203,0.8376571840857555
275,5.011013399780495e-06,1.0,1.1544530391693115,0.8376571840857555
276,4.972697297489503e-06,1.0,1.1549614667892456,0.8376571840857555
277,4.9279938139079604e-06,1.0,1.155631184577942,0.8376571840857555
278,4.8843553486221936e-06,1.0,1.1559206247329712,0.8376571840857555
279,4.8449751375301275e-06,1.0,1.1565853357315063,0.8376571840857555
280,4.804528998647584e-06,1.0,1.157208800315857,0.8376571840857555
281,4.766211532114539e-06,1.0,1.1575769186019897,0.8376571840857555
282,4.731088665721472e-06,1.0,1.1582376956939697,0.8376571840857555
283,4.692771653935779e-06,1.0,1.1588561534881592,0.8376571840857555
284,4.651261406252161e-06,1.0,1.1592611074447632,0.8376571840857555
285,4.612944849213818e-06,1.0,1.1598014831542969,0.8376571840857555
286,4.57569240097655e-06,1.0,1.1603965759277344,0.8376571840857555
287,4.5426977521856315e-06,1.0,1.1608229875564575,0.8376571840857555
288,4.504380740399938e-06,1.0,1.1613960266113281,0.8376571840857555
289,4.46712829216267e-06,1.0,1.1620229482650757,0.8376571840857555
290,4.432004516274901e-06,1.0,1.1624536514282227,0.8376571840857555
291,4.3968802856397815e-06,1.0,1.163185715675354,0.8376571840857555
292,4.3649497456499375e-06,1.0,1.1635032892227173,0.8376571840857555
293,4.326633188611595e-06,1.0,1.1640270948410034,0.8376571840857555
294,4.2947021938744e-06,1.0,1.1646748781204224,0.8376571840857555
295,4.259578417986631e-06,1.0,1.165115475654602,0.8376571840857555
296,4.224454642098863e-06,1.0,1.1658049821853638,0.8376571840857555
297,4.198910573904868e-06,1.0,1.1662992238998413,0.8376571840857555
298,4.166979579167673e-06,1.0,1.1667301654815674,0.8376571840857555
299,4.13079169447883e-06,1.0,1.167324423789978,0.8376571840857555
300,4.093539246241562e-06,1.0,1.1679277420043945,0.8376571840857555
301,4.063737378601218e-06,1.0,1.1681934595108032,0.8376571840857555
302,4.034999165014597e-06,1.0,1.1688297986984253,0.8376571840857555
303,4.004133188573178e-06,1.0,1.169337272644043,0.8376571840857555
304,3.975395429733908e-06,1.0,1.1699212789535522,0.8376571840857555
305,3.939207545045065e-06,1.0,1.1702800989151,0.8376571840857555
306,3.9094052226573694e-06,1.0,1.1709831953048706,0.8376571840857555
307,3.8732168832211755e-06,1.0,1.1716302633285522,0.8376571840857555
308,3.849801487376681e-06,1.0,1.172019600868225,0.8376571840857555
309,3.82319240088691e-06,1.0,1.1725999116897583,0.8376571840857555
310,3.7859397252759663e-06,1.0,1.17306387424469,0.8376571840857555
311,3.7614595385093708e-06,1.0,1.1735503673553467,0.8376571840857555
312,3.733786343218526e-06,1.0,1.1740747690200806,0.8376571840857555
313,3.700791467053932e-06,1.0,1.174780011177063,0.8376571840857555
314,3.6784397252631607e-06,1.0,1.175179362297058,0.8376571840857555
315,3.6486376302491408e-06,1.0,1.175769567489624,0.8376571840857555
316,3.6167068628856214e-06,1.0,1.1761659383773804,0.8376571840857555
317,3.591162339944276e-06,1.0,1.1769040822982788,0.8376571840857555
318,3.5656175896292552e-06,1.0,1.177248239517212,0.8376571840857555
319,3.537944166964735e-06,1.0,1.1779677867889404,0.8376571840857555
320,3.514528316372889e-06,1.0,1.1782828569412231,0.8376571840857555
321,3.4857907849072944e-06,1.0,1.1789780855178833,0.8376571840857555
322,3.468761406111298e-06,1.0,1.1795555353164673,0.8376571840857555
323,3.435765847825678e-06,1.0,1.1796445846557617,0.8376571840857555
324,3.4070283163600834e-06,1.0,1.1807396411895752,0.8376571840857555
325,3.3889341466419864e-06,1.0,1.1808100938796997,0.8376571840857555
326,3.3580679428268922e-06,1.0,1.1814850568771362,0.8376571840857555
327,3.334651864861371e-06,1.0,1.182178258895874,0.8376571840857555
328,3.3101714507211e-06,1.0,1.1823692321777344,0.8376571840857555
329,3.28569149132818e-06,1.0,1.1831692457199097,0.8376571840857555
330,3.262275640736334e-06,1.0,1.183590292930603,0.8376571840857555
331,3.2335376545233885e-06,1.0,1.1839746236801147,0.8376571840857555
332,3.2175723845284665e-06,1.0,1.1848243474960327,0.8453102453102452
333,3.188834398315521e-06,1.0,1.185133695602417,0.8453102453102452
334,3.1686117836216e-06,1.0,1.1856220960617065,0.8453102453102452
335,3.1462604965781793e-06,1.0,1.1864566802978516,0.8453102453102452
336,3.1175225103652338e-06,1.0,1.1865400075912476,0.8453102453102452
337,3.098364004472387e-06,1.0,1.1872369050979614,0.8453102453102452
338,3.0760122626816155e-06,1.0,1.18787682056427,0.8453102453102452
339,3.052596639463445e-06,1.0,1.1883348226547241,0.8453102453102452
340,3.0281164526968496e-06,1.0,1.1888635158538818,0.8453102453102452
341,3.007893610629253e-06,1.0,1.189493179321289,0.8453102453102452
342,2.9951213491585804e-06,1.0,1.1899253129959106,0.8453102453102452
343,2.971705271193059e-06,1.0,1.190574049949646,0.8453102453102452
344,2.9429672849801136e-06,1.0,1.191024899482727,0.8453102453102452
345,2.9227446702861926e-06,1.0,1.1914994716644287,0.8453102453102452
346,2.90890807264077e-06,1.0,1.192186951637268,0.8453102453102452
347,2.884427658500499e-06,1.0,1.1926149129867554,0.8453102453102452
348,2.8684621611319017e-06,1.0,1.1931253671646118,0.8453102453102452
349,2.843981974365306e-06,1.0,1.1938031911849976,0.8453102453102452
350,2.8248234684724594e-06,1.0,1.1940244436264038,0.8453102453102452
351,2.8003432817058638e-06,1.0,1.1947506666183472,0.8453102453102452
352,2.779055876089842e-06,1.0,1.1954765319824219,0.8453102453102452
353,2.756704361672746e-06,1.0,1.1957916021347046,0.8453102453102452
354,2.7481894449010724e-06,1.0,1.1961051225662231,0.8453102453102452
355,2.714130232561729e-06,1.0,1.1968222856521606,0.8453102453102452
356,2.7056153157900553e-06,1.0,1.1975959539413452,0.8453102453102452
357,2.687520918698283e-06,1.0,1.1979073286056519,0.8453102453102452
358,2.6715554213296855e-06,1.0,1.1985341310501099,0.8453102453102452
359,2.649204134286265e-06,1.0,1.1990220546722412,0.8453102453102452
360,2.631109964568168e-06,1.0,1.199432373046875,0.8453102453102452
361,2.6130160222237464e-06,1.0,1.2002452611923218,0.8453102453102452
362,2.5938572889572242e-06,1.0,1.2006021738052368,0.8453102453102452
363,2.5800204639381263e-06,1.0,1.2010555267333984,0.8453102453102452
364,2.5587335130694555e-06,1.0,1.2018173933029175,0.8453102453102452
365,2.5395747798029333e-06,1.0,1.202237844467163,0.8453102453102452
366,2.524673845982761e-06,1.0,1.202858328819275,0.8453102453102452
367,2.507644012439414e-06,1.0,1.2034709453582764,0.8453102453102452
368,2.4874211703718174e-06,1.0,1.2038902044296265,0.8453102453102452
369,2.47145567300322e-06,1.0,1.2045748233795166,0.8453102453102452
370,2.454425839459873e-06,1.0,1.2048450708389282,0.8453102453102452
371,2.4342029973922763e-06,1.0,1.2055635452270508,0.8453102453102452
372,2.424623744445853e-06,1.0,1.2061485052108765,0.8453102453102452
373,2.4033365662035067e-06,1.0,1.2067867517471313,0.8453102453102452
374,2.3894997411844088e-06,1.0,1.2072190046310425,0.8453102453102452
375,2.374598579990561e-06,1.0,1.207887887954712,0.8453102453102452
376,2.3628908820683137e-06,1.0,1.2081705331802368,0.8453102453102452
377,2.3501183932239655e-06,1.0,1.208691954612732,0.8453102453102452
378,2.323509306734195e-06,1.0,1.2095264196395874,0.8453102453102452
379,2.3118011540645966e-06,1.0,1.20991051197052,0.8453102453102452
380,2.293707211720175e-06,1.0,1.2103906869888306,0.8453102453102452
381,2.2798703867010772e-06,1.0,1.210780143737793,0.8453102453102452
382,2.2660337890556548e-06,1.0,1.211361050605774,0.8453102453102452
383,2.2458111743617337e-06,1.0,1.212170958518982,0.8453102453102452
384,2.231974349342636e-06,1.0,1.2124919891357422,0.8453102453102452
385,2.2213305328477873e-06,1.0,1.2132471799850464,0.8453102453102452
386,2.2096226075518643e-06,1.0,1.2136027812957764,0.8453102453102452
387,2.1872710931347683e-06,1.0,1.2141979932785034,0.8453102453102452
388,2.1744988316640956e-06,1.0,1.2149313688278198,0.8453102453102452
389,2.1617263428197475e-06,1.0,1.2151508331298828,0.8453102453102452
390,2.1446965092764003e-06,1.0,1.2158527374267578,0.8453102453102452
391,2.135117256329977e-06,1.0,1.216365933418274,0.8453102453102452
392,2.1180874227866298e-06,1.0,1.21681809425354,0.8453102453102452
393,2.108508397213882e-06,1.0,1.2173422574996948,0.8453102453102452
394,2.0904140001221094e-06,1.0,1.2181233167648315,0.8453102453102452
395,2.0787060748261865e-06,1.0,1.2185312509536743,0.8453102453102452
396,2.065933813355514e-06,1.0,1.219104528427124,0.8453102453102452
397,2.046775307462667e-06,1.0,1.2194387912750244,0.8453102453102452
398,2.0435820715647424e-06,1.0,1.219857096672058,0.8453102453102452
399,2.022294893322396e-06,1.0,1.2206487655639648,0.8453102453102452
400,2.0063293959537987e-06,1.0,1.2210983037948608,0.8453102453102452
401,1.991428234759951e-06,1.0,1.2217878103256226,0.8453102453102452
402,1.977591409740853e-06,1.0,1.2223703861236572,0.8453102453102452
403,1.9722697288671043e-06,1.0,1.222572684288025,0.8453102453102452
404,1.9605618035711814e-06,1.0,1.2235515117645264,0.8453102453102452
405,1.944596306202584e-06,1.0,1.223719596862793,0.8453102453102452
406,1.9275662452855613e-06,1.0,1.2243897914886475,0.8453102453102452
407,1.915858547363314e-06,1.0,1.2251538038253784,0.8453102453102452
408,1.9052149582421407e-06,1.0,1.225454568862915,0.8453102453102452
409,1.8945713691209676e-06,1.0,1.2261533737182617,0.8453102453102452
410,1.889249574560381e-06,1.0,1.2266179323196411,0.8453102453102452
411,1.8743484133665334e-06,1.0,1.22677481174469,0.8453102453102452
412,1.8519967852625996e-06,1.0,1.2276649475097656,0.8453102453102452
413,1.8445462046656758e-06,1.0,1.2284611463546753,0.8453102453102452
414,1.8328382793697529e-06,1.0,1.2286700010299683,0.8453102453102452
415,1.819001454350655e-06,1.0,1.2294076681137085,0.8453102453102452
416,1.8136796597900684e-06,1.0,1.230001449584961,0.8453102453102452
417,1.8019716208073078e-06,1.0,1.2302026748657227,0.8453102453102452
418,1.7881350231618853e-06,1.0,1.2308876514434814,0.8453102453102452
419,1.7732338619680377e-06,1.0,1.2315572500228882,0.8453102453102452
420,1.7668477312327013e-06,1.0,1.2321698665618896,0.8453102453102452
421,1.7551398059367784e-06,1.0,1.2325986623764038,0.8453102453102452
422,1.7444961031287676e-06,1.0,1.2330114841461182,0.8453102453102452
423,1.72959494193492e-06,1.0,1.2337843179702759,0.8453102453102452
424,1.7200155753016588e-06,1.0,1.2337931394577026,0.8453102453102452
425,1.7051145277946489e-06,1.0,1.2345131635665894,0.8453102453102452
426,1.6955353885350632e-06,1.0,1.2351429462432861,0.8453102453102452
427,1.6827631270643906e-06,1.0,1.2357537746429443,0.8453102453102452
428,1.6731837604311295e-06,1.0,1.236453652381897,0.8453102453102452
429,1.6657331798342057e-06,1.0,1.2368160486221313,0.8453102453102452
430,1.6550894770261948e-06,1.0,1.2371667623519897,0.8453102453102452
431,1.6455102240797714e-06,1.0,1.2380483150482178,0.8453102453102452
432,1.6348666349585983e-06,1.0,1.237889051437378,0.8453102453102452
433,1.6210299236263381e-06,1.0,1.238640546798706,0.8453102453102452
434,1.6103862208183273e-06,1.0,1.2397854328155518,0.8453102453102452
435,1.604000090082991e-06,1.0,1.2399095296859741,0.8453102453102452
436,1.5954850596244796e-06,1.0,1.2402204275131226,0.8453102453102452
437,1.590163265063893e-06,1.0,1.2409918308258057,0.8453102453102452
438,1.5816484619790572e-06,1.0,1.2412828207015991,0.8453102453102452
439,1.5614253925377852e-06,1.0,1.2418733835220337,0.8453102453102452
440,1.5443956726812758e-06,1.0,1.2423372268676758,0.8453102453102452
441,1.5326876336985151e-06,1.0,1.2428570985794067,0.8453102453102452
442,1.5273657254510908e-06,1.0,1.2435609102249146,0.8453102453102452
443,1.519915144854167e-06,1.0,1.243854284286499,0.8453102453102452
444,1.5103358919077436e-06,1.0,1.2444082498550415,0.8453102453102452
445,1.5039496474855696e-06,1.0,1.2449506521224976,0.8453102453102452
446,1.4933060583643964e-06,1.0,1.2453943490982056,0.8453102453102452
447,1.4847911415927229e-06,1.0,1.2457962036132812,0.8453102453102452
448,1.477340560995799e-06,1.0,1.2462588548660278,0.8453102453102452
449,1.4613751773140393e-06,1.0,1.2468405961990356,0.8453102453102452
450,1.4539245967171155e-06,1.0,1.2475578784942627,0.8453102453102452
451,1.448602802156529e-06,1.0,1.2478182315826416,0.8453102453102452
452,1.4400877716980176e-06,1.0,1.2482327222824097,0.8453102453102452
453,1.4262510603657574e-06,1.0,1.2490872144699097,0.8453102453102452
454,1.4198650433172588e-06,1.0,1.2492018938064575,0.8453102453102452
455,1.4102857903708355e-06,1.0,1.2497234344482422,0.8453102453102452
456,1.4007064237375744e-06,1.0,1.2502073049545288,0.8453102453102452
457,1.3911270571043133e-06,1.0,1.2507222890853882,0.8453102453102452
458,1.38154780415789e-06,1.0,1.2513608932495117,0.8453102453102452
459,1.3783546819468029e-06,1.0,1.2521406412124634,0.8453102453102452
460,1.373033001073054e-06,1.0,1.252217411994934,0.8453102453102452
461,1.3613249620902934e-06,1.0,1.2523738145828247,0.8453102453102452
462,1.3506812592822826e-06,1.0,1.2534551620483398,0.8453102453102452
463,1.3400376701611094e-06,1.0,1.253226637840271,0.8453102453102452
464,1.3379088841247722e-06,1.0,1.2540686130523682,0.8453102453102452
465,1.327265295003599e-06,1.0,1.2544822692871094,0.8453102453102452
466,1.3155571423340007e-06,1.0,1.2550249099731445,0.8453102453102452
467,1.3049136668996653e-06,1.0,1.2557599544525146,0.8453102453102452
468,1.2974630863027414e-06,1.0,1.2561674118041992,0.8453102453102452
469,1.2889480558442301e-06,1.0,1.2564295530319214,0.8453102453102452
470,1.2846905974583933e-06,1.0,1.2571018934249878,0.8453102453102452
471,1.278304466723057e-06,1.0,1.2573175430297852,0.8453102453102452
472,1.2697894362645457e-06,1.0,1.2579729557037354,0.8453102453102452
473,1.2612746331797098e-06,1.0,1.2587734460830688,0.8453102453102452
474,1.2548883887575357e-06,1.0,1.2588623762130737,0.8453102453102452
475,1.2495665941969492e-06,1.0,1.2594764232635498,0.8453102453102452
476,1.2389228913889383e-06,1.0,1.260008454322815,0.8453102453102452
477,1.2325366469667642e-06,1.0,1.2601381540298462,0.8453102453102452
478,1.2250862937435159e-06,1.0,1.2610280513763428,0.8453102453102452
479,1.217635713146592e-06,1.0,1.2609719038009644,0.8453102453102452
480,1.2101851325496682e-06,1.0,1.2616407871246338,0.8453102453102452
481,1.2048633379890816e-06,1.0,1.2618958950042725,0.8453102453102452
482,1.196348421217408e-06,1.0,1.262257695198059,0.8453102453102452
483,1.1910266266568215e-06,1.0,1.2630231380462646,0.8453102453102452
484,1.1803829238488106e-06,1.0,1.2634868621826172,0.8453102453102452
485,1.1761254654629738e-06,1.0,1.2639787197113037,0.8453102453102452
486,1.1676104350044625e-06,1.0,1.2642574310302734,0.8453102453102452
487,1.156966959570127e-06,1.0,1.2646410465240479,0.8453102453102452
488,1.1516450513227028e-06,1.0,1.2653776407241821,0.8453102453102452
489,1.1463232567621162e-06,1.0,1.2660945653915405,0.8453102453102452
490,1.1388726761651924e-06,1.0,1.2658931016921997,0.8453102453102452
491,1.1356795539541054e-06,1.0,1.2668811082839966,0.8453102453102452
492,1.1271646371824318e-06,1.0,1.2668488025665283,0.8453102453102452
493,1.116520934374421e-06,1.0,1.2673274278640747,0.8453102453102452
494,1.1111990261269966e-06,1.0,1.2683773040771484,0.8453102453102452
495,1.1037484455300728e-06,1.0,1.2678601741790771,0.8453102453102452
496,1.0994912145179114e-06,1.0,1.2686156034469604,0.8453102453102452
497,1.0962982059936621e-06,1.0,1.269602656364441,0.8453102453102452
498,1.0877831755351508e-06,1.0,1.2694005966186523,0.8453102453102452
499,1.0824612672877265e-06,1.0,1.2701610326766968,0.8453102453102452
500,1.0728820143413031e-06,1.0,1.270825743675232,0.8453102453102452
501,1.0675601060938789e-06,1.0,1.2709953784942627,0.8453102453102452
502,1.0622383115332923e-06,1.0,1.2712218761444092,0.8453102453102452
503,1.055852180797956e-06,1.0,1.2717212438583374,0.8453102453102452
504,1.0505302725505317e-06,1.0,1.2726399898529053,0.8453102453102452
505,1.045208477989945e-06,1.0,1.272628664970398,0.8453102453102452
506,1.0388223472546088e-06,1.0,1.2732757329940796,0.8453102453102452
507,1.0324361028324347e-06,1.0,1.2733460664749146,0.8453102453102452
508,1.0292429806213477e-06,1.0,1.2742582559585571,0.8453102453102452
509,1.0228567361991736e-06,1.0,1.2745262384414673,0.8453102453102452
510,1.0122131470780005e-06,1.0,1.2747570276260376,0.8453102453102452
511,1.006891352517414e-06,1.0,1.275712013244629,0.8453102453102452
512,1.0026338941315771e-06,1.0,1.2765260934829712,0.8453102453102452
513,9.9944077192049e-07,1.0,1.2763569355010986,0.8453102453102452
514,9.930546411851537e-07,1.0,1.2764467000961304,0.8453102453102452
515,9.898615189740667e-07,1.0,1.2767341136932373,0.8453102453102452
516,9.8560406058823e-07,1.0,1.2770023345947266,0.8453102453102452
517,9.760246939549688e-07,1.0,1.2778345346450806,0.8453102453102452
518,9.71767235569132e-07,1.0,1.2782399654388428,0.8453102453102452
519,9.58994746724784e-07,1.0,1.2794615030288696,0.8453102453102452
520,9.558017382005346e-07,1.0,1.2787399291992188,0.8453102453102452
521,9.526085591460287e-07,1.0,1.2796199321746826,0.8453102453102452
522,9.526085591460287e-07,1.0,1.2802412509918213,0.8453102453102452
523,9.398361839885183e-07,1.0,1.2804495096206665,0.8453102453102452
524,9.323857739218511e-07,1.0,1.282016634941101,0.8453102453102452
525,9.259995863430959e-07,1.0,1.2816625833511353,0.8453102453102452
526,9.238708003067586e-07,1.0,1.2819349765777588,0.8453102453102452
527,9.15355883535085e-07,1.0,1.2823807001113892,0.8453102453102452
528,9.110984251492482e-07,1.0,1.2828315496444702,0.8453102453102452
529,9.079053029381612e-07,1.0,1.282935380935669,0.8453102453102452
530,9.057765737452428e-07,1.0,1.28359854221344,0.8453102453102452
531,8.972616001301503e-07,1.0,1.2838622331619263,0.8453102453102452
532,8.919397487261449e-07,1.0,1.2844011783599854,0.8453102453102452
533,8.887466833584767e-07,1.0,1.2847658395767212,0.8453102453102452
534,8.834248319544713e-07,1.0,1.2855726480484009,0.8453102453102452
535,8.781030373938847e-07,1.0,1.2858384847640991,0.8453102453102452
536,8.727811859898793e-07,1.0,1.2856552600860596,0.8453102453102452
537,8.717168498151295e-07,1.0,1.2862136363983154,0.8453102453102452
538,8.610731470071187e-07,1.0,1.2867687940597534,0.8453102453102452
539,8.546869025849446e-07,1.0,1.2874103784561157,0.8453102453102452
540,8.483007150061894e-07,1.0,1.2880070209503174,0.8453102453102452
541,8.408501344092656e-07,1.0,1.288277506828308,0.8453102453102452
542,8.408502480961033e-07,1.0,1.2879650592803955,0.8453102453102452
543,8.344640605173481e-07,1.0,1.28880774974823,0.8453102453102452
544,8.312709383062611e-07,1.0,1.2902058362960815,0.8453102453102452
545,8.248847507275059e-07,1.0,1.2893139123916626,0.8453102453102452
546,8.238203577093373e-07,1.0,1.2898198366165161,0.8453102453102452
547,8.174341701305821e-07,1.0,1.2910643815994263,0.8453102453102452
548,8.14241047919495e-07,1.0,1.2912676334381104,0.8453102453102452
549,8.121123187265766e-07,1.0,1.2913901805877686,0.8453102453102452
550,8.089191965154896e-07,1.0,1.292541742324829,0.8453102453102452
551,8.046617949730717e-07,1.0,1.2919104099273682,0.8453102453102452
552,8.025330657801533e-07,1.0,1.2931278944015503,0.8453102453102452
553,7.908250836408115e-07,1.0,1.2932167053222656,0.8453102453102452
554,7.844388392186374e-07,1.0,1.2936078310012817,0.8453102453102452
555,7.780526516398822e-07,1.0,1.294182538986206,0.8453102453102452
556,7.748595294287952e-07,1.0,1.2944635152816772,0.8453102453102452
557,7.6847334185004e-07,1.0,1.295062780380249,0.8453102453102452
558,7.663446695005405e-07,1.0,1.2953777313232422,0.8453102453102452
559,7.620871542712848e-07,1.0,1.295973777770996,0.8453102453102452
560,7.599584250783664e-07,1.0,1.2961599826812744,0.8453102453102452
561,7.57829695885448e-07,1.0,1.2961281538009644,0.8453102453102452
562,7.54636573674361e-07,1.0,1.296784520149231,0.8453102453102452
563,7.482503860956058e-07,1.0,1.2971340417861938,0.8453102453102452
564,7.429285346916004e-07,1.0,1.297392725944519,0.8453102453102452
565,7.429285346916004e-07,1.0,1.2978662252426147,0.8453102453102452
566,7.40799805498682e-07,1.0,1.2986233234405518,0.8453102453102452
567,7.36542403956264e-07,1.0,1.298512578010559,0.8453102453102452
568,7.312205525522586e-07,1.0,1.299559473991394,0.8453102453102452
569,7.248343649735034e-07,1.0,1.30031418800354,0.8453102453102452
570,7.152549983402423e-07,1.0,1.3001737594604492,0.8453102453102452
571,7.173837843765796e-07,1.0,1.300925612449646,0.8453102453102452
572,7.078045314301562e-07,1.0,1.3013755083084106,0.8453102453102452
573,7.099332606230746e-07,1.0,1.3019706010818481,0.8453102453102452
574,7.035470162009005e-07,1.0,1.301660180091858,0.8453102453102452
575,6.982251647968951e-07,1.0,1.3027771711349487,0.8453102453102452
576,6.960964356039767e-07,1.0,1.3026636838912964,0.8453102453102452
577,6.875815188323031e-07,1.0,1.302883505821228,0.8453102453102452
578,6.854527896393847e-07,1.0,1.3033913373947144,0.8453102453102452
579,6.811952744101291e-07,1.0,1.3039714097976685,0.8453102453102452
580,6.790665452172107e-07,1.0,1.3047516345977783,0.8453102453102452
581,6.790665452172107e-07,1.0,1.3048757314682007,0.8453102453102452
582,6.758734230061236e-07,1.0,1.304850697517395,0.8453102453102452
583,6.716159646202868e-07,1.0,1.3055522441864014,0.8453102453102452
584,6.684228424091998e-07,1.0,1.3059622049331665,0.8453102453102452
585,6.64165384023363e-07,1.0,1.3056899309158325,0.8453102453102452
586,6.609723754991137e-07,1.0,1.30734384059906,0.8453102453102452
587,6.567149171132769e-07,1.0,1.3070666790008545,0.8453102453102452
588,6.535218517456087e-07,1.0,1.3080565929412842,0.8453102453102452
589,6.492643365163531e-07,1.0,1.3085914850234985,0.8453102453102452
590,6.471356073234347e-07,1.0,1.3086553812026978,0.8453102453102452
591,6.439425419557665e-07,1.0,1.3088276386260986,0.8453102453102452
592,6.386206905517611e-07,1.0,1.3096485137939453,0.8453102453102452
593,6.332988391477556e-07,1.0,1.3097683191299438,0.8453102453102452
594,6.311701099548372e-07,1.0,1.310240387916565,0.8453102453102452
595,6.301057169366686e-07,1.0,1.3107460737228394,0.8453102453102452
596,6.279769877437502e-07,1.0,1.3111467361450195,0.8453102453102452
597,6.258482585508318e-07,1.0,1.311249017715454,0.8453102453102452
598,6.21590800164995e-07,1.0,1.311105489730835,0.8453102453102452
599,6.162689487609896e-07,1.0,1.311881184577942,0.8453102453102452
600,6.120114335317339e-07,1.0,1.3119382858276367,0.8453102453102452
601,6.098827043388155e-07,1.0,1.312934160232544,0.8453102453102452
602,6.056252459529787e-07,1.0,1.3134926557540894,0.8453102453102452
603,6.034965167600603e-07,1.0,1.3133269548416138,0.8453102453102452
604,6.003033945489733e-07,1.0,1.3134815692901611,0.8453102453102452
605,5.949815431449679e-07,1.0,1.3146330118179321,0.8453102453102452
606,5.917885346207186e-07,1.0,1.314319372177124,0.8453102453102452
607,5.907241416025499e-07,1.0,1.314342737197876,0.8453102453102452
608,5.854022901985445e-07,1.0,1.3157522678375244,0.8453102453102452
609,5.843379540237947e-07,1.0,1.315667986869812,0.8453102453102452
610,5.832735610056261e-07,1.0,1.316421627998352,0.8453102453102452
611,5.811448318127077e-07,1.0,1.3168944120407104,0.8453102453102452
612,5.800804387945391e-07,1.0,1.3165884017944336,0.8453102453102452
613,5.736942512157839e-07,1.0,1.3175209760665894,0.8453102453102452
614,5.683723998117785e-07,1.0,1.317228078842163,0.8453102453102452
615,5.683723998117785e-07,1.0,1.3182306289672852,0.8453102453102452
616,5.6624367061886e-07,1.0,1.3182084560394287,0.8453102453102452
617,5.577286970037676e-07,1.0,1.3192567825317383,0.8453102453102452
618,5.545356316360994e-07,1.0,1.3193262815475464,0.8453102453102452
619,5.513425094250124e-07,1.0,1.3201675415039062,0.8453102453102452
620,5.52406902443181e-07,1.0,1.3199310302734375,0.8453102453102452
621,5.449563218462572e-07,1.0,1.320932388305664,0.8453102453102452
622,5.49213780232094e-07,1.0,1.3210152387619019,0.8453102453102452
623,5.470850510391756e-07,1.0,1.3201457262039185,0.8453102453102452
624,5.46020658021007e-07,1.0,1.3214493989944458,0.8453102453102452
625,5.406988634604204e-07,1.0,1.3225667476654053,0.8453102453102452
626,5.417631996351702e-07,1.0,1.3220646381378174,0.8453102453102452
627,5.343126758816652e-07,1.0,1.3223870992660522,0.8453102453102452
628,5.343126758816652e-07,1.0,1.3235353231430054,0.8453102453102452
629,5.268620952847414e-07,1.0,1.3231842517852783,0.8453102453102452
630,5.2792648830291e-07,1.0,1.32371985912323,0.8453102453102452
631,5.226046368989046e-07,1.0,1.3235543966293335,0.8453102453102452
632,5.162183924767305e-07,1.0,1.3251515626907349,0.8453102453102452
633,5.194115146878175e-07,1.0,1.324249267578125,0.8453102453102452
634,5.130253271090623e-07,1.0,1.3252743482589722,0.8453102453102452
635,5.119609909343126e-07,1.0,1.3263155221939087,0.8453102453102452
636,5.087678687232255e-07,1.0,1.3265817165374756,0.8453102453102452
637,5.087678687232255e-07,1.0,1.3267091512680054,0.8453102453102452
638,5.023816811444703e-07,1.0,1.3272124528884888,0.8453102453102452
639,4.938667075293779e-07,1.0,1.3284810781478882,0.8453102453102452
640,4.928023713546281e-07,1.0,1.3281854391098022,0.8453102453102452
641,4.896092491435411e-07,1.0,1.3287078142166138,0.8453102453102452
642,4.885449129687913e-07,1.0,1.3293401002883911,0.8453102453102452
643,4.864161269324541e-07,1.0,1.3290098905563354,0.8453102453102452
644,4.853517907577043e-07,1.0,1.3296691179275513,0.8453102453102452
645,4.821586685466173e-07,1.0,1.3302173614501953,0.8453102453102452
646,4.800299393536989e-07,1.0,1.3299758434295654,0.8453102453102452
647,4.7683684556432127e-07,1.0,1.3308570384979248,0.8453102453102452
648,4.7470808794969344e-07,1.0,1.3310199975967407,0.8453102453102452
649,4.7257935875677504e-07,1.0,1.3310539722442627,0.8453102453102452
650,4.7257935875677504e-07,1.0,1.3317716121673584,0.8453102453102452
651,4.7151499416031584e-07,1.0,1.3323127031326294,0.8453102453102452
652,4.661931427563104e-07,1.0,1.3329658508300781,0.8453102453102452
653,4.651287781598512e-07,1.0,1.333418846130371,0.8453102453102452
654,4.651287781598512e-07,1.0,1.3335126638412476,0.8453102453102452
655,4.64064413563392e-07,1.0,1.334033727645874,0.8453102453102452
656,4.6087134819572384e-07,1.0,1.3344801664352417,0.8453102453102452
657,4.5767825440634624e-07,1.0,1.3345214128494263,0.8453102453102452
658,4.5554952521342784e-07,1.0,1.3346784114837646,0.8453102453102452
659,4.5448516061696864e-07,1.0,1.3353091478347778,0.8453102453102452
660,4.5235643142405024e-07,1.0,1.335802674293518,0.8453102453102452
661,4.512920384058816e-07,1.0,1.335711121559143,0.8453102453102452
662,4.502276738094224e-07,1.0,1.3366925716400146,0.8453102453102452
663,4.48098944616504e-07,1.0,1.3365072011947632,0.8453102453102452
664,4.449058508271264e-07,1.0,1.337186574935913,0.8453102453102452
665,4.449058508271264e-07,1.0,1.3372421264648438,0.8453102453102452
666,4.417127286160394e-07,1.0,1.3373279571533203,0.8453102453102452
667,4.406483640195802e-07,1.0,1.3380523920059204,0.8453102453102452
668,4.34262176440825e-07,1.0,1.338539719581604,0.8453102453102452
669,4.34262176440825e-07,1.0,1.3383108377456665,0.8453102453102452
670,4.310690826514474e-07,1.0,1.339680552482605,0.8453102453102452
671,4.2468286665098276e-07,1.0,1.3388664722442627,0.8453102453102452
672,4.2042537984343653e-07,1.0,1.3398829698562622,0.8453102453102452
673,4.2042537984343653e-07,1.0,1.34068763256073,0.8453102453102452
674,4.2042537984343653e-07,1.0,1.3403688669204712,0.8453102453102452
675,4.1616792145759973e-07,1.0,1.3406530618667603,0.8453102453102452
676,4.1403919226468133e-07,1.0,1.3417178392410278,0.8453102453102452
677,4.097817054571351e-07,1.0,1.341323971748352,0.8453102453102452
678,4.076529762642167e-07,1.0,1.3422603607177734,0.8453102453102452
679,4.087173408606759e-07,1.0,1.3419944047927856,0.8453102453102452
680,4.065886116677575e-07,1.0,1.3430662155151367,0.8453102453102452
681,4.055242186495889e-07,1.0,1.3432886600494385,0.8453102453102452
682,4.033954894566705e-07,1.0,1.3433372974395752,0.8453102453102452
683,4.033954894566705e-07,1.0,1.3438886404037476,0.8453102453102452
684,4.012667602637521e-07,1.0,1.3444188833236694,0.8453102453102452
685,3.9807363805266505e-07,1.0,1.3444979190826416,0.8453102453102452
686,3.9700927345620585e-07,1.0,1.3455690145492554,0.8453102453102452
687,3.9700927345620585e-07,1.0,1.3460423946380615,0.8453102453102452
688,3.9594490885974665e-07,1.0,1.3459312915802002,0.8453102453102452
689,3.9488054426328745e-07,1.0,1.346313714981079,0.8453102453102452
690,3.927518434920785e-07,1.0,1.347036361694336,0.8453102453102452
691,3.916874788956193e-07,1.0,1.3468774557113647,0.8453102453102452
692,3.8849435668453225e-07,1.0,1.3468446731567383,0.8453102453102452
693,3.8742999208807305e-07,1.0,1.3485172986984253,0.8453102453102452
694,3.8317253370223625e-07,1.0,1.3477176427841187,0.8453102453102452
695,3.810437760876084e-07,1.0,1.3485949039459229,0.8453102453102452
696,3.799794114911492e-07,1.0,1.3488242626190186,0.8453102453102452
697,3.767863177017716e-07,1.0,1.3494871854782104,0.8453102453102452
698,3.778506822982308e-07,1.0,1.3490607738494873,0.8453102453102452
699,3.746575600871438e-07,1.0,1.350665807723999,0.8453102453102452
700,3.735931954906846e-07,1.0,1.3503962755203247,0.8453102453102452
701,3.682713725083886e-07,1.0,1.351277470588684,0.8453102453102452
702,3.6614261489376076e-07,1.0,1.3513051271438599,0.8453102453102452
703,3.6188515650792397e-07,1.0,1.3510633707046509,0.8453102453102452
704,3.6188515650792397e-07,1.0,1.3517199754714966,0.8453102453102452
705,3.5869206271854637e-07,1.0,1.3516175746917725,0.8453102453102452
706,3.5762769812208717e-07,1.0,1.3522299528121948,0.8453102453102452
707,3.5762769812208717e-07,1.0,1.3530399799346924,0.8453102453102452
708,3.5656333352562797e-07,1.0,1.3532594442367554,0.8453102453102452
709,3.5017711752516334e-07,1.0,1.353487253189087,0.8453102453102452
710,3.4804841675395437e-07,1.0,1.3542641401290894,0.8453102453102452
711,3.4804841675395437e-07,1.0,1.3550838232040405,0.8453102453102452
712,3.4698405215749517e-07,1.0,1.355171799659729,0.8453102453102452
713,3.4485532296457677e-07,1.0,1.3553531169891357,0.8453102453102452
714,3.4379095836811757e-07,1.0,1.355828881263733,0.8453102453102452
715,3.4166220075348974e-07,1.0,1.3568629026412964,0.8453102453102452
716,3.4059783615703054e-07,1.0,1.3557167053222656,0.8453102453102452
717,3.3846910696411214e-07,1.0,1.3585045337677002,0.8453102453102452
718,3.3740474236765294e-07,1.0,1.3566902875900269,0.8453102453102452
719,3.3634037777119374e-07,1.0,1.358774185180664,0.8453102453102452
720,3.352759847530251e-07,1.0,1.3573747873306274,0.8453102453102452
721,3.331472555601067e-07,1.0,1.359214186668396,0.8453102453102452
722,3.310185263671883e-07,1.0,1.3595117330551147,0.8453102453102452
723,3.267610395596421e-07,1.0,1.3598076105117798,0.8453102453102452
724,3.256966749631829e-07,1.0,1.3596246242523193,0.8453102453102452
725,3.267610395596421e-07,1.0,1.3595863580703735,0.8453102453102452
726,3.246323103667237e-07,1.0,1.3617665767669678,0.8453102453102452
727,3.1718172976979986e-07,1.0,1.3613706827163696,0.8453102453102452
728,3.225035811738053e-07,1.0,1.361383318901062,0.8453102453102452
729,3.214392165773461e-07,1.0,1.3604768514633179,0.8453102453102452
730,3.1398863598042226e-07,1.0,1.3631964921951294,0.8453102453102452
731,3.1931045896271826e-07,1.0,1.36351478099823,0.8453102453102452
732,3.1079551376933523e-07,1.0,1.3619775772094727,0.8453102453102452
733,3.1611736517334066e-07,1.0,1.3645366430282593,0.8453102453102452
734,3.1505300057688146e-07,1.0,1.3629474639892578,0.8453102453102452
735,3.1079551376933523e-07,1.0,1.364635705947876,0.8453102453102452
736,3.1505300057688146e-07,1.0,1.365887999534607,0.8453102453102452
737,3.0866678457641683e-07,1.0,1.363714337348938,0.8453102453102452
738,3.1185987836579443e-07,1.0,1.365930199623108,0.8453102453102452
739,3.054736623653298e-07,1.0,1.3652632236480713,0.8453102453102452
740,3.0760241997995763e-07,1.0,1.3656069040298462,0.8453102453102452
741,3.033449331724114e-07,1.0,1.366111159324646,0.8453102453102452
742,3.044092977688706e-07,1.0,1.3661413192749023,0.8453102453102452
743,2.990874747865746e-07,1.0,1.3661607503890991,0.8453102453102452
744,3.033449331724114e-07,1.0,1.368133783340454,0.8453102453102452
745,2.9695871717194677e-07,1.0,1.3664686679840088,0.8453102453102452
746,2.9802308176840597e-07,1.0,1.3690017461776733,0.8453102453102452
747,3.001518393830338e-07,1.0,1.3665618896484375,0.8453102453102452
748,2.9270125878611e-07,1.0,1.3698291778564453,0.8453102453102452
749,2.958943525754876e-07,1.0,1.3698912858963013,0.8453102453102452
750,2.9270125878611e-07,1.0,1.3675092458724976,0.8453102453102452
751,2.8737940738210455e-07,1.0,1.3728249073028564,0.8453102453102452
752,2.8525067818918615e-07,1.0,1.3668824434280396,0.8453102453102452
753,2.9057250117148214e-07,1.0,1.3706659078598022,0.8453102453102452
754,2.8418631359272695e-07,1.0,1.372161865234375,0.8453102453102452
755,2.820575559780991e-07,1.0,1.3726491928100586,0.8453102453102452
756,2.799288267851807e-07,1.0,1.370563268661499,0.8453102453102452
757,2.831219205745583e-07,1.0,1.3730266094207764,0.8453102453102452
758,2.788644621887215e-07,1.0,1.3736432790756226,0.8453102453102452
759,2.703495169953385e-07,1.0,1.372786521911621,0.8453102453102452
760,2.703495169953385e-07,1.0,1.3745681047439575,0.8453102453102452
761,2.692851523988793e-07,1.0,1.374593734741211,0.8453102453102452
762,2.703495169953385e-07,1.0,1.376708984375,0.8453102453102452
763,2.692851523988793e-07,1.0,1.3747098445892334,0.8453102453102452
764,2.682207878024201e-07,1.0,1.377057671546936,0.8453102453102452
765,2.650276940130425e-07,1.0,1.3762643337249756,0.8453102453102452
766,2.607702356272057e-07,1.0,1.37751042842865,0.8453102453102452
767,2.5970584260903706e-07,1.0,1.3780878782272339,0.8453102453102452
768,2.5970584260903706e-07,1.0,1.3774807453155518,0.8453102453102452
769,2.5970584260903706e-07,1.0,1.377913236618042,0.8453102453102452
770,2.5864147801257786e-07,1.0,1.3791496753692627,0.8453102453102452
771,2.5970584260903706e-07,1.0,1.3789398670196533,0.8453102453102452
772,2.5864147801257786e-07,1.0,1.3790236711502075,0.8453102453102452
773,2.5864147801257786e-07,1.0,1.3802121877670288,0.8453102453102452
774,2.5864147801257786e-07,1.0,1.3801084756851196,0.8453102453102452
775,2.5757711341611866e-07,1.0,1.380139708518982,0.8453102453102452
776,2.5757711341611866e-07,1.0,1.3811157941818237,0.8453102453102452
777,2.5757711341611866e-07,1.0,1.3815155029296875,0.8453102453102452
778,2.5757711341611866e-07,1.0,1.3815041780471802,0.8453102453102452
779,2.5651274881965946e-07,1.0,1.3819140195846558,0.8453102453102452
780,2.5438401962674106e-07,1.0,1.3821773529052734,0.8453102453102452
781,2.5438401962674106e-07,1.0,1.3826849460601807,0.8453102453102452
782,2.5119089741565404e-07,1.0,1.3824383020401,0.8453102453102452
783,2.5119089741565404e-07,1.0,1.383017659187317,0.8453102453102452
784,2.5119089741565404e-07,1.0,1.3836370706558228,0.8453102453102452
785,2.4693343902981724e-07,1.0,1.3832257986068726,0.8453102453102452
786,2.4480473825860827e-07,1.0,1.3844273090362549,0.8453102453102452
787,2.4480473825860827e-07,1.0,1.3845146894454956,0.8453102453102452
788,2.4480473825860827e-07,1.0,1.3843411207199097,0.8453102453102452
789,2.4480473825860827e-07,1.0,1.3850505352020264,0.8453102453102452
790,2.4374034524043964e-07,1.0,1.3857187032699585,0.8453102453102452
791,2.4267598064398044e-07,1.0,1.3859167098999023,0.8453102453102452
792,2.3841850804728892e-07,1.0,1.3862924575805664,0.8453102453102452
793,2.3841850804728892e-07,1.0,1.3862149715423584,0.8453102453102452
794,2.3522541425791132e-07,1.0,1.3870238065719604,0.8453102453102452
795,2.341610354505974e-07,1.0,1.386667251586914,0.8453102453102452
796,2.341610354505974e-07,1.0,1.3878040313720703,0.8453102453102452
797,2.299035628539059e-07,1.0,1.3876858949661255,0.8453102453102452
798,2.309679274503651e-07,1.0,1.3881458044052124,0.8453102453102452
799,2.299035628539059e-07,1.0,1.3887351751327515,0.8453102453102452
800,2.277748336609875e-07,1.0,1.38966965675354,0.8453102453102452
801,2.288391982574467e-07,1.0,1.3878605365753174,0.8453102453102452
802,2.277748336609875e-07,1.0,1.3920915126800537,0.8453102453102452
803,2.2458172566075518e-07,1.0,1.3879865407943726,0.8453102453102452
804,2.2671045485367358e-07,1.0,1.3924394845962524,0.8453102453102452
805,2.2245298225698207e-07,1.0,1.3900258541107178,0.8453102453102452
806,2.1925987425674975e-07,1.0,1.3920198678970337,0.8453102453102452
807,2.2138861766052287e-07,1.0,1.3927592039108276,0.8453102453102452
808,2.1819550966029055e-07,1.0,1.3917577266693115,0.8453102453102452
809,2.1606679467822687e-07,1.0,1.3942651748657227,0.8453102453102452
810,2.1500240166005824e-07,1.0,1.3936913013458252,0.8453102453102452
811,2.1606676625651744e-07,1.0,1.3930269479751587,0.8453102453102452
812,2.1393805127445376e-07,1.0,1.394268274307251,0.8453102453102452
813,2.1287368667799456e-07,1.0,1.3941549062728882,0.8453102453102452
814,2.1287368667799456e-07,1.0,1.3945146799087524,0.8453102453102452
815,2.1074494327422144e-07,1.0,1.3936086893081665,0.8453102453102452
816,2.1074494327422144e-07,1.0,1.3957784175872803,0.8453102453102452
817,2.1180930787068064e-07,1.0,1.396697759628296,0.8453102453102452
818,2.1074494327422144e-07,1.0,1.3942315578460693,0.8453102453102452
819,2.1074494327422144e-07,1.0,1.3965176343917847,0.8453102453102452
820,2.0968057867776224e-07,1.0,1.3955707550048828,0.8453102453102452
821,2.0861621408130304e-07,1.0,1.397654414176941,0.8453102453102452
822,2.0755183527398913e-07,1.0,1.3961162567138672,0.8453102453102452
823,2.0648747067752993e-07,1.0,1.3977583646774292,0.8453102453102452
824,2.0542310608107073e-07,1.0,1.3965562582015991,0.8453102453102452
825,2.0542310608107073e-07,1.0,1.3990449905395508,0.8453102453102452
826,1.979725254841469e-07,1.0,1.3969860076904297,0.8453102453102452
827,2.032943626772976e-07,1.0,1.402402639389038,0.8453102453102452
828,1.979725254841469e-07,1.0,1.3959301710128784,0.8453102453102452
829,1.9371505288745539e-07,1.0,1.4017916917800903,0.8453102453102452
830,2.001012546770653e-07,1.0,1.3987458944320679,0.8453102453102452
831,1.9158630948368227e-07,1.0,1.39994215965271,0.8453102453102452
832,1.9371505288745539e-07,1.0,1.3985365629196167,0.8453102453102452
833,1.9052194488722307e-07,1.0,1.4021403789520264,0.8453102453102452
834,1.9158630948368227e-07,1.0,1.399271011352539,0.8453102453102452
835,1.8839318727259524e-07,1.0,1.4017282724380493,0.8453102453102452
836,1.8839318727259524e-07,1.0,1.4019705057144165,0.8453102453102452
837,1.8626444386882213e-07,1.0,1.400210976600647,0.8453102453102452
838,1.8626444386882213e-07,1.0,1.401750922203064,0.8453102453102452
839,1.8520007927236293e-07,1.0,1.401997447013855,0.8453102453102452
840,1.8520007927236293e-07,1.0,1.4012490510940552,0.8453102453102452
841,1.8520007927236293e-07,1.0,1.4017001390457153,0.8453102453102452
842,1.8520007927236293e-07,1.0,1.402079463005066,0.8453102453102452
843,1.8520007927236293e-07,1.0,1.4020599126815796,0.8453102453102452
844,1.8520007927236293e-07,1.0,1.402318000793457,0.8453102453102452
845,1.8520007927236293e-07,1.0,1.4026044607162476,0.8453102453102452
846,1.8520007927236293e-07,1.0,1.4027138948440552,0.8453102453102452
847,1.8520007927236293e-07,1.0,1.402919888496399,0.8453102453102452
848,1.8413571467590373e-07,1.0,1.4035232067108154,0.8453102453102452
849,1.8413571467590373e-07,1.0,1.4038429260253906,0.8453102453102452
850,1.8200698548298533e-07,1.0,1.4040626287460327,0.8453102453102452
851,1.7987825629006693e-07,1.0,1.4038418531417847,0.8453102453102452
852,1.8094262088652613e-07,1.0,1.4042030572891235,0.8453102453102452
853,1.7881389169360773e-07,1.0,1.4050800800323486,0.8453102453102452
854,1.7774951288629381e-07,1.0,1.404305100440979,0.8453102453102452
855,1.7668514828983461e-07,1.0,1.404841661453247,0.8453102453102452
856,1.7668514828983461e-07,1.0,1.4059451818466187,0.8453102453102452
857,1.7562078369337542e-07,1.0,1.4067652225494385,0.8453102453102452
858,1.7668514828983461e-07,1.0,1.4062917232513428,0.8453102453102452
859,1.745564048860615e-07,1.0,1.4073423147201538,0.8453102453102452
860,1.745564048860615e-07,1.0,1.4077976942062378,0.8453102453102452
861,1.745564048860615e-07,1.0,1.4082355499267578,0.8453102453102452
862,1.724276756931431e-07,1.0,1.4088257551193237,0.8453102453102452
863,1.724276756931431e-07,1.0,1.4080193042755127,0.8453102453102452
864,1.724276756931431e-07,1.0,1.409964680671692,0.8453102453102452
865,1.7029893228936999e-07,1.0,1.4086248874664307,0.8453102453102452
866,1.713633110966839e-07,1.0,1.410348653793335,0.8453102453102452
867,1.7029893228936999e-07,1.0,1.4101893901824951,0.8453102453102452
868,1.7029893228936999e-07,1.0,1.4118953943252563,0.8453102453102452
869,1.6923456769291079e-07,1.0,1.4111392498016357,0.8453102453102452
870,1.681702173073063e-07,1.0,1.4116919040679932,0.8453102453102452
871,1.681702173073063e-07,1.0,1.4126758575439453,0.8453102453102452
872,1.671058527108471e-07,1.0,1.4128856658935547,0.8453102453102452
873,1.681702173073063e-07,1.0,1.4145246744155884,0.8453102453102452
874,1.671058527108471e-07,1.0,1.4132393598556519,0.8453102453102452
875,1.671058527108471e-07,1.0,1.4137698411941528,0.8453102453102452
876,1.64977109307074e-07,1.0,1.4145734310150146,0.8453102453102452
877,1.64977109307074e-07,1.0,1.4152076244354248,0.8453102453102452
878,1.64977109307074e-07,1.0,1.4148014783859253,0.8453102453102452
879,1.6284836590330087e-07,1.0,1.4163777828216553,0.8453102453102452
880,1.639127447106148e-07,1.0,1.4134219884872437,0.8492063492063491
881,1.639127447106148e-07,1.0,1.4189188480377197,0.8453102453102452
882,1.6284836590330087e-07,1.0,1.4148609638214111,0.8492063492063491
883,1.6178400130684167e-07,1.0,1.4193555116653442,0.8453102453102452
884,1.6071963671038247e-07,1.0,1.4139126539230347,0.8492063492063491
885,1.6178400130684167e-07,1.0,1.4191824197769165,0.8453102453102452
886,1.5965527211392327e-07,1.0,1.4184023141860962,0.8492063492063491
887,1.6071963671038247e-07,1.0,1.4192615747451782,0.8492063492063491
888,1.6071963671038247e-07,1.0,1.4166871309280396,0.8492063492063491
889,1.5965527211392327e-07,1.0,1.4196745157241821,0.8492063492063491
890,1.5752652871015016e-07,1.0,1.417127013206482,0.8492063492063491
891,1.5859089330660936e-07,1.0,1.4200376272201538,0.8492063492063491
892,1.5646216411369096e-07,1.0,1.417459487915039,0.8492063492063491
893,1.5539778530637705e-07,1.0,1.4217151403427124,0.8492063492063491
894,1.5539778530637705e-07,1.0,1.4183356761932373,0.8492063492063491
895,1.5433342070991785e-07,1.0,1.4211194515228271,0.8492063492063491
896,1.5433342070991785e-07,1.0,1.4201987981796265,0.8492063492063491
897,1.5326905611345865e-07,1.0,1.4198189973831177,0.8492063492063491
898,1.5220469151699945e-07,1.0,1.4227980375289917,0.8492063492063491
899,1.5220469151699945e-07,1.0,1.4212666749954224,0.8492063492063491
900,1.5007594811322633e-07,1.0,1.4204787015914917,0.8492063492063491
901,1.5114031270968553e-07,1.0,1.423396348953247,0.8492063492063491
902,1.4794720470945322e-07,1.0,1.4205526113510132,0.8492063492063491
903,1.5220469151699945e-07,1.0,1.424399495124817,0.8492063492063491
904,1.5007594811322633e-07,1.0,1.4204751253128052,0.8492063492063491
905,1.4794720470945322e-07,1.0,1.424749493598938,0.8492063492063491
906,1.4901158351676713e-07,1.0,1.4220201969146729,0.8492063492063491
907,1.4901158351676713e-07,1.0,1.4257166385650635,0.8492063492063491
908,1.4581847551653482e-07,1.0,1.4210513830184937,0.8492063492063491
909,1.4581847551653482e-07,1.0,1.4265130758285522,0.8492063492063491
910,1.436897321127617e-07,1.0,1.4223016500473022,0.8543083900226757
911,1.4688284011299402e-07,1.0,1.4282112121582031,0.8492063492063491
912,1.415610029198433e-07,1.0,1.4193614721298218,0.8543083900226757
913,1.426253675163025e-07,1.0,1.428493857383728,0.8492063492063491
914,1.404966241125294e-07,1.0,1.42210853099823,0.8543083900226757
915,1.426253675163025e-07,1.0,1.4292353391647339,0.8492063492063491
916,1.394322595160702e-07,1.0,1.4241583347320557,0.8543083900226757
917,1.394322595160702e-07,1.0,1.4263261556625366,0.8492063492063491
918,1.394322595160702e-07,1.0,1.4279736280441284,0.8543083900226757
919,1.38367894919611e-07,1.0,1.4254823923110962,0.8543083900226757
920,1.394322595160702e-07,1.0,1.4284573793411255,0.8492063492063491
921,1.362391657266926e-07,1.0,1.426998496055603,0.8543083900226757
922,1.3411042232291948e-07,1.0,1.4315913915634155,0.8492063492063491
923,1.362391657266926e-07,1.0,1.42764413356781,0.8543083900226757
924,1.3304605772646028e-07,1.0,1.42894446849823,0.8543083900226757
925,1.3198169313000108e-07,1.0,1.4322463274002075,0.8492063492063491
926,1.3091732853354188e-07,1.0,1.4267717599868774,0.8543083900226757
927,1.3091731432268716e-07,1.0,1.4331828355789185,0.8492063492063491
928,1.3091732853354188e-07,1.0,1.4265397787094116,0.8543083900226757
929,1.2985296393708268e-07,1.0,1.4362552165985107,0.8453102453102452
930,1.2985296393708268e-07,1.0,1.427569031715393,0.8543083900226757
931,1.2772422053330956e-07,1.0,1.4347718954086304,0.8543083900226757
932,1.2665985593685036e-07,1.0,1.428865671157837,0.8543083900226757
933,1.2878858512976876e-07,1.0,1.4372152090072632,0.8453102453102452
934,1.2772422053330956e-07,1.0,1.4274389743804932,0.8543083900226757
935,1.2772422053330956e-07,1.0,1.4376908540725708,0.8492063492063491
936,1.1920927533992653e-07,1.0,1.4312658309936523,0.8543083900226757
937,1.2240238334015885e-07,1.0,1.4382439851760864,0.8492063492063491
938,1.2453111253307725e-07,1.0,1.435982584953308,0.8543083900226757
939,1.1814490363803998e-07,1.0,1.4328817129135132,0.8543083900226757
940,1.2346674793661805e-07,1.0,1.4384801387786865,0.8543083900226757
941,1.1388743104134846e-07,1.0,1.4349048137664795,0.8543083900226757
942,1.1601616733969422e-07,1.0,1.4364426136016846,0.8543083900226757
943,1.1708053904158078e-07,1.0,1.4355127811431885,0.8543083900226757
944,1.1708053904158078e-07,1.0,1.4379321336746216,0.8543083900226757
945,1.1175869474300271e-07,1.0,1.4392355680465698,0.8543083900226757
946,1.1920927533992653e-07,1.0,1.434468150138855,0.8543083900226757
947,1.2027363993638573e-07,1.0,1.4396798610687256,0.8543083900226757
948,1.1601616733969422e-07,1.0,1.437793493270874,0.8543083900226757
949,1.128230593394619e-07,1.0,1.438157081604004,0.8543083900226757
950,1.1388743104134846e-07,1.0,1.4406708478927612,0.8543083900226757
951,1.1388743104134846e-07,1.0,1.4367796182632446,0.8543083900226757
952,1.1069432304111615e-07,1.0,1.4460207223892212,0.8543083900226757
953,1.1495179563780766e-07,1.0,1.4362765550613403,0.8543083900226757
954,1.1601616733969422e-07,1.0,1.441010594367981,0.8543083900226757
955,1.0750121504088384e-07,1.0,1.4436129331588745,0.8492063492063491
956,1.0962995844465695e-07,1.0,1.439740538597107,0.8543083900226757
957,1.128230593394619e-07,1.0,1.4389512538909912,0.8543083900226757
958,1.0750121504088384e-07,1.0,1.4462693929672241,0.8543083900226757
959,1.1069432304111615e-07,1.0,1.4400837421417236,0.8543083900226757
960,1.0856558674277039e-07,1.0,1.445029616355896,0.8543083900226757
961,1.0962995844465695e-07,1.0,1.4462977647781372,0.8492063492063491
962,1.0643685044442464e-07,1.0,1.4400910139083862,0.8543083900226757
963,1.0962995844465695e-07,1.0,1.4483444690704346,0.8543083900226757
964,1.0324374244419232e-07,1.0,1.4449862241744995,0.8543083900226757
965,1.0856558674277039e-07,1.0,1.4459065198898315,0.8543083900226757
966,1.0430811414607888e-07,1.0,1.445448875427246,0.8543083900226757
967,1.0537247874253808e-07,1.0,1.445474624633789,0.8543083900226757
968,1.0643685044442464e-07,1.0,1.4460114240646362,0.8543083900226757
969,1.0111500614584656e-07,1.0,1.4510968923568726,0.8543083900226757
970,1.0537247874253808e-07,1.0,1.4448870420455933,0.8543083900226757
971,1.0324374244419232e-07,1.0,1.4514586925506592,0.8543083900226757
972,1.0750121504088384e-07,1.0,1.4447726011276245,0.8543083900226757
973,1.0217937784773312e-07,1.0,1.450376272201538,0.8543083900226757
974,1.0430811414607888e-07,1.0,1.4511597156524658,0.8543083900226757
975,9.898626984750081e-08,1.0,1.4457826614379883,0.8543083900226757
976,1.0324374244419232e-07,1.0,1.451987624168396,0.8492063492063491
977,9.685753354915505e-08,1.0,1.4481947422027588,0.8543083900226757
978,1.0111500614584656e-07,1.0,1.453871488571167,0.8543083900226757
979,9.47287972508093e-08,1.0,1.4486478567123413,0.8543083900226757
980,1.0005063444396001e-07,1.0,1.453973412513733,0.8543083900226757
981,9.366442554892274e-08,1.0,1.4505285024642944,0.8543083900226757
982,1.0111500614584656e-07,1.0,1.4550789594650269,0.8543083900226757
983,9.260005384703618e-08,1.0,1.452046275138855,0.8543083900226757
984,9.685753354915505e-08,1.0,1.4524753093719482,0.8543083900226757
985,9.047131754869042e-08,1.0,1.4565889835357666,0.8492063492063491
986,9.792189814561425e-08,1.0,1.4504162073135376,0.8543083900226757
987,9.366442554892274e-08,1.0,1.4612200260162354,0.8492063492063491
988,9.685753354915505e-08,1.0,1.4496688842773438,0.8543083900226757
989,9.366442554892274e-08,1.0,1.4574819803237915,0.8492063492063491
990,9.685753354915505e-08,1.0,1.4514979124069214,0.8543083900226757
991,9.047131754869042e-08,1.0,1.4546701908111572,0.8543083900226757
992,9.366442554892274e-08,1.0,1.4561614990234375,0.8543083900226757
993,8.621385205742627e-08,1.0,1.4551111459732056,0.8543083900226757
994,8.621385205742627e-08,1.0,1.459450602531433,0.8492063492063491
995,9.26000680578909e-08,1.0,1.4494879245758057,0.8543083900226757
996,8.940696005765858e-08,1.0,1.4640651941299438,0.8492063492063491
997,8.727822375931282e-08,1.0,1.4546787738800049,0.8543083900226757
998,8.621385205742627e-08,1.0,1.4533175230026245,0.8543083900226757
999,8.940696005765858e-08,1.0,1.4614249467849731,0.8492063492063491
