,loss,recall,val_loss,val_recall
0,0.5084253549575806,0.75,0.717590868473053,0.3700000047683716
1,0.39463484287261963,0.8299999833106995,0.6889950633049011,0.4399999976158142
2,0.3648168444633484,0.8199999928474426,0.7925708889961243,0.36000001430511475
3,0.316562682390213,0.8600000143051147,0.9334844350814819,0.36000001430511475
4,0.30146896839141846,0.8700000047683716,1.1968045234680176,0.36000001430511475
5,0.25765252113342285,0.9100000262260437,1.4783799648284912,0.36000001430511475
6,0.2394455373287201,0.9200000166893005,2.0069282054901123,0.36000001430511475
7,0.2119971066713333,0.9300000071525574,2.185964584350586,0.36000001430511475
8,0.26060304045677185,0.8799999952316284,2.2490453720092773,0.36000001430511475
9,0.18920229375362396,0.9300000071525574,2.8886992931365967,0.36000001430511475
10,0.19932487607002258,0.9200000166893005,3.088972568511963,0.36000001430511475
11,0.17986583709716797,0.949999988079071,3.4121646881103516,0.36000001430511475
12,0.15519723296165466,0.9300000071525574,3.4095630645751953,0.36000001430511475
13,0.13897225260734558,0.949999988079071,3.749673366546631,0.36000001430511475
14,0.21275758743286133,0.8999999761581421,3.749929428100586,0.36000001430511475
15,0.2302800714969635,0.8799999952316284,3.6057872772216797,0.36000001430511475
16,0.13600003719329834,0.949999988079071,4.160468578338623,0.36000001430511475
17,0.14030618965625763,0.9700000286102295,3.494872808456421,0.36000001430511475
18,0.17240102589130402,0.949999988079071,3.8778486251831055,0.36000001430511475
19,0.21501854062080383,0.8799999952316284,2.7638168334960938,0.36000001430511475
20,0.13347572088241577,0.9700000286102295,2.778028964996338,0.36000001430511475
21,0.1365252435207367,0.9700000286102295,3.0135250091552734,0.36000001430511475
22,0.12717367708683014,0.949999988079071,1.8899450302124023,0.36000001430511475
23,0.2870093882083893,0.9100000262260437,3.3065009117126465,0.36000001430511475
24,0.21081095933914185,0.8899999856948853,2.9683926105499268,0.36000001430511475
25,0.18435817956924438,0.9300000071525574,1.7438486814498901,0.36000001430511475
26,0.16405880451202393,0.9100000262260437,2.8345119953155518,0.36000001430511475
27,0.12982875108718872,0.949999988079071,2.230072021484375,0.36000001430511475
28,0.13412298262119293,0.949999988079071,1.3976986408233643,0.3700000047683716
29,0.09327965974807739,0.9700000286102295,2.0627081394195557,0.36000001430511475
30,0.16163970530033112,0.9300000071525574,1.649214744567871,0.36000001430511475
31,0.12691660225391388,0.949999988079071,1.7018365859985352,0.36000001430511475
32,0.1314336657524109,0.9599999785423279,1.13571298122406,0.4000000059604645
33,0.1223054900765419,0.9700000286102295,1.396998405456543,0.3799999952316284
34,0.13751675188541412,0.9599999785423279,1.1797596216201782,0.4300000071525574
35,0.1167491152882576,0.949999988079071,2.0303568840026855,0.36000001430511475
36,0.19646188616752625,0.9200000166893005,0.3779839277267456,0.8100000023841858
37,0.11863259971141815,0.949999988079071,0.3613298535346985,0.8600000143051147
38,0.10638202726840973,0.9599999785423279,1.078108310699463,0.550000011920929
39,0.1261393427848816,0.9399999976158142,0.34700798988342285,0.8700000047683716
40,0.08278725296258926,0.9800000190734863,0.36665043234825134,0.8399999737739563
41,0.052576616406440735,0.9900000095367432,0.4112352430820465,0.8100000023841858
42,0.062042832374572754,0.9800000190734863,0.37565940618515015,0.8600000143051147
43,0.054596953094005585,1.0,0.31074753403663635,0.8799999952316284
44,0.047595757991075516,1.0,0.3051884174346924,0.8600000143051147
45,0.04552411660552025,0.9900000095367432,0.3069151043891907,0.8799999952316284
46,0.03662971407175064,1.0,0.30126866698265076,0.8999999761581421
47,0.030611515045166016,1.0,0.34105220437049866,0.8700000047683716
48,0.04457990825176239,0.9900000095367432,0.3540409803390503,0.8600000143051147
49,0.08152702450752258,0.9800000190734863,0.6613419055938721,0.800000011920929
50,0.06754183769226074,0.9900000095367432,0.3329834043979645,0.8600000143051147
51,0.05886242538690567,0.9800000190734863,0.4389464855194092,0.8399999737739563
52,0.06318839639425278,0.9900000095367432,0.525472104549408,0.8399999737739563
53,0.07012616842985153,0.9900000095367432,0.8497791886329651,0.7799999713897705
54,0.11079858988523483,0.9399999976158142,0.6135213375091553,0.800000011920929
55,0.12036499381065369,0.949999988079071,0.4547305703163147,0.8700000047683716
56,0.09823121875524521,0.9800000190734863,0.3184771239757538,0.8899999856948853
57,0.11159875988960266,0.949999988079071,1.4015395641326904,0.6899999976158142
58,0.08535136282444,1.0,0.3402465879917145,0.8700000047683716
59,0.062367044389247894,0.9800000190734863,0.2987513244152069,0.8799999952316284
60,0.08824775367975235,0.9800000190734863,0.3714890778064728,0.8600000143051147
61,0.06887925416231155,0.9900000095367432,0.7820369601249695,0.75
62,0.05899500846862793,0.9700000286102295,0.9271519184112549,0.6700000166893005
63,0.06288902461528778,0.9800000190734863,0.7587623000144958,0.75
64,0.03799465298652649,1.0,0.7059581875801086,0.7599999904632568
65,0.01609816588461399,1.0,0.3127920925617218,0.8899999856948853
66,0.11464303731918335,0.949999988079071,1.459200382232666,0.7200000286102295
67,0.0825338289141655,0.9700000286102295,1.9326342344284058,0.6800000071525574
68,0.0991763323545456,0.9599999785423279,0.3316020667552948,0.8799999952316284
69,0.07347173243761063,0.9700000286102295,0.47532570362091064,0.8600000143051147
70,0.14401672780513763,0.9700000286102295,0.7790440320968628,0.7900000214576721
71,0.0754992663860321,0.9599999785423279,0.4187924265861511,0.8500000238418579
72,0.11111729592084885,0.9700000286102295,0.29952624440193176,0.8700000047683716
73,0.06402483582496643,0.9800000190734863,0.3993043601512909,0.8299999833106995
74,0.08065999299287796,0.9700000286102295,0.3626481890678406,0.8799999952316284
75,0.03328574076294899,1.0,0.4218137264251709,0.8700000047683716
76,0.0369369275867939,0.9900000095367432,0.4992498755455017,0.8199999928474426
77,0.020749328657984734,1.0,0.4019071161746979,0.8700000047683716
78,0.05394706875085831,0.9800000190734863,0.5251685976982117,0.8299999833106995
79,0.03841136395931244,0.9900000095367432,0.502480685710907,0.8500000238418579
80,0.06814190745353699,0.9700000286102295,0.5096861124038696,0.8199999928474426
81,0.02612430788576603,1.0,0.3793635964393616,0.8700000047683716
82,0.04698186367750168,0.9900000095367432,0.41056227684020996,0.8700000047683716
83,0.02730359509587288,1.0,0.8053588271141052,0.7699999809265137
84,0.03075687400996685,0.9900000095367432,1.488243818283081,0.5400000214576721
85,0.05193021148443222,0.9900000095367432,0.6207244396209717,0.8100000023841858
86,0.03606163710355759,1.0,1.2235078811645508,0.7300000190734863
87,0.02728487178683281,1.0,0.4310828745365143,0.8700000047683716
88,0.02482733316719532,1.0,0.7898181080818176,0.800000011920929
89,0.03833526745438576,0.9900000095367432,0.4466908276081085,0.8500000238418579
90,0.10602137446403503,0.9800000190734863,3.4429361820220947,0.36000001430511475
91,0.04802544414997101,0.9900000095367432,1.6729267835617065,0.6899999976158142
92,0.022384943440556526,1.0,0.42758870124816895,0.8799999952316284
93,0.01579809933900833,1.0,0.871127188205719,0.7300000190734863
94,0.08019284904003143,0.9599999785423279,0.4726690948009491,0.8700000047683716
95,0.038249269127845764,0.9900000095367432,5.699544906616211,0.6399999856948853
96,0.05367612838745117,0.9800000190734863,0.43243786692619324,0.8999999761581421
97,0.02035086788237095,1.0,3.8082821369171143,0.3700000047683716
98,0.04306112602353096,1.0,0.800642728805542,0.7799999713897705
99,0.0158196110278368,1.0,0.3444208800792694,0.8799999952316284
100,0.015781281515955925,1.0,0.37116920948028564,0.8899999856948853
101,0.00935998372733593,1.0,0.4445277750492096,0.8600000143051147
102,0.020978594198822975,1.0,0.40372973680496216,0.8799999952316284
103,0.030756773427128792,0.9900000095367432,0.7229282855987549,0.7900000214576721
104,0.02602577954530716,0.9900000095367432,1.5105856657028198,0.5299999713897705
105,0.02873932383954525,1.0,0.9260604977607727,0.7799999713897705
106,0.028119675815105438,1.0,0.8671659231185913,0.800000011920929
107,0.05157950520515442,0.9800000190734863,1.1616429090499878,0.7400000095367432
108,0.03816275671124458,0.9900000095367432,0.3644963204860687,0.9100000262260437
109,0.037294406443834305,0.9900000095367432,0.7070221900939941,0.8100000023841858
110,0.07390312850475311,0.9700000286102295,0.5160815119743347,0.8500000238418579
111,0.03286730870604515,0.9900000095367432,0.4437980651855469,0.8799999952316284
112,0.039089664816856384,0.9900000095367432,0.5265712141990662,0.8299999833106995
113,0.016889143735170364,1.0,0.40608498454093933,0.8600000143051147
114,0.013895809650421143,1.0,0.3830149173736572,0.8999999761581421
115,0.008457282558083534,1.0,0.385868638753891,0.8899999856948853
116,0.007782020140439272,1.0,0.39134055376052856,0.8899999856948853
117,0.009107870981097221,1.0,0.4973388612270355,0.8799999952316284
118,0.004874012898653746,1.0,0.4918462634086609,0.8799999952316284
119,0.008541040122509003,1.0,0.36321350932121277,0.8899999856948853
120,0.007688655983656645,1.0,0.3741340637207031,0.8999999761581421
121,0.0036446689628064632,1.0,0.37795573472976685,0.8899999856948853
122,0.004751273430883884,1.0,0.3801979720592499,0.8799999952316284
123,0.009271282702684402,1.0,0.4718627631664276,0.8700000047683716
124,0.0035347563680261374,1.0,0.4629846513271332,0.8700000047683716
125,0.0033250439446419477,1.0,0.39352402091026306,0.8899999856948853
126,0.011488191783428192,1.0,0.42219996452331543,0.8899999856948853
127,0.01547981146723032,1.0,1.946028232574463,0.6899999976158142
128,0.0678870901465416,0.9700000286102295,0.37258008122444153,0.9100000262260437
129,0.05772092938423157,0.9800000190734863,9.642010688781738,0.36000001430511475
130,0.145679771900177,0.949999988079071,2.8973937034606934,0.6800000071525574
131,0.09891830384731293,0.9700000286102295,1.6080154180526733,0.7699999809265137
132,0.07432049512863159,0.9800000190734863,0.5343206524848938,0.8500000238418579
133,0.04324477165937424,0.9900000095367432,0.9221775531768799,0.7699999809265137
134,0.04464070871472359,0.9800000190734863,0.6709370613098145,0.8199999928474426
135,0.03408753499388695,1.0,0.6743070483207703,0.8799999952316284
136,0.018003568053245544,1.0,0.4694749116897583,0.8999999761581421
137,0.03881203755736351,0.9900000095367432,1.1019872426986694,0.699999988079071
138,0.023410014808177948,1.0,0.6196280717849731,0.8500000238418579
139,0.0205728467553854,1.0,0.9228845834732056,0.7200000286102295
140,0.018194444477558136,0.9900000095367432,1.0148518085479736,0.6399999856948853
141,0.023320835083723068,1.0,0.7143443822860718,0.7799999713897705
142,0.018390070647001266,1.0,0.3831445276737213,0.8600000143051147
143,0.018146956339478493,1.0,0.47855672240257263,0.8899999856948853
144,0.008741515688598156,1.0,0.44391608238220215,0.8899999856948853
145,0.008146248757839203,1.0,0.39881792664527893,0.8799999952316284
146,0.004767552018165588,1.0,0.39684149622917175,0.8700000047683716
147,0.00465052668005228,1.0,0.3835586607456207,0.8799999952316284
148,0.005403180606663227,1.0,0.4566047191619873,0.8899999856948853
149,0.013003390282392502,1.0,0.45744583010673523,0.8999999761581421
150,0.009654572233557701,1.0,0.3812352120876312,0.8799999952316284
151,0.0032286227215081453,1.0,0.4862317740917206,0.8299999833106995
152,0.00449296273291111,1.0,0.3840775787830353,0.8799999952316284
153,0.0026585208252072334,1.0,0.4286455810070038,0.8899999856948853
154,0.003881369484588504,1.0,0.44211718440055847,0.8899999856948853
155,0.00672057643532753,1.0,0.4398651123046875,0.8899999856948853
156,0.0017779269255697727,1.0,0.39748984575271606,0.8700000047683716
157,0.001870298059657216,1.0,0.39560699462890625,0.8700000047683716
158,0.005891985725611448,1.0,0.4061990976333618,0.8899999856948853
159,0.00208236463367939,1.0,0.41676029562950134,0.8999999761581421
160,0.004405321087688208,1.0,0.43066075444221497,0.8999999761581421
161,0.004589961376041174,1.0,0.4399297833442688,0.8899999856948853
162,0.001652655890211463,1.0,0.49473339319229126,0.8899999856948853
163,0.0008293923456221819,1.0,0.49122074246406555,0.8899999856948853
164,0.0018032874213531613,1.0,0.47378939390182495,0.8899999856948853
165,0.002093913732096553,1.0,0.4541268050670624,0.8899999856948853
166,0.006108518224209547,1.0,0.40089935064315796,0.8899999856948853
167,0.0028500750195235014,1.0,0.42617419362068176,0.8899999856948853
168,0.0027135186828672886,1.0,0.5223976373672485,0.8799999952316284
169,0.0031480840407311916,1.0,0.4778905212879181,0.8899999856948853
170,0.001506129396148026,1.0,0.5406588912010193,0.8700000047683716
171,0.002214060863479972,1.0,0.5740640759468079,0.8700000047683716
172,0.0009575380245223641,1.0,0.5273056626319885,0.8899999856948853
173,0.0032689606305211782,1.0,0.45960426330566406,0.8899999856948853
174,0.007167959585785866,1.0,0.4202789068222046,0.8600000143051147
175,0.011590443551540375,1.0,0.6405671834945679,0.8399999737739563
176,0.0030180527828633785,1.0,0.5575922131538391,0.8799999952316284
177,0.0017680792370811105,1.0,0.4656829535961151,0.8899999856948853
178,0.00385724357329309,1.0,0.5117028951644897,0.8999999761581421
179,0.00646692281588912,1.0,0.4720943868160248,0.8899999856948853
180,0.0017300127074122429,1.0,0.795583188533783,0.8500000238418579
181,0.13843534886837006,0.949999988079071,12.733713150024414,0.6399999856948853
182,0.37051427364349365,0.8700000047683716,11.791848182678223,0.6399999856948853
183,0.23685653507709503,0.8999999761581421,14.741479873657227,0.6399999856948853
184,0.17233611643314362,0.9300000071525574,2.4616689682006836,0.6899999976158142
185,0.14618194103240967,0.9200000166893005,4.158181190490723,0.6499999761581421
186,0.07871614396572113,0.9700000286102295,0.4255813956260681,0.8899999856948853
187,0.08347031474113464,0.9700000286102295,0.6261407732963562,0.8100000023841858
188,0.046190209686756134,0.9800000190734863,0.39460989832878113,0.8999999761581421
189,0.04884326457977295,0.9900000095367432,0.5882375836372375,0.8399999737739563
190,0.043531451374292374,1.0,0.632009744644165,0.7699999809265137
191,0.04005987569689751,1.0,1.832808256149292,0.46000000834465027
192,0.028923487290740013,0.9900000095367432,0.8912538290023804,0.7900000214576721
193,0.01960037648677826,1.0,0.792336106300354,0.7099999785423279
194,0.01654953323304653,1.0,0.38314324617385864,0.8700000047683716
195,0.012259475886821747,1.0,0.5529493093490601,0.800000011920929
196,0.009057593531906605,1.0,4.1340203285217285,0.36000001430511475
197,0.014537365175783634,0.9900000095367432,2.930466651916504,0.4000000059604645
198,0.010464437305927277,1.0,0.4946671426296234,0.8399999737739563
199,0.05941520631313324,0.9800000190734863,0.535895049571991,0.8399999737739563
200,0.026673955842852592,0.9900000095367432,0.6620141863822937,0.8999999761581421
201,0.10706882178783417,0.949999988079071,6.998664379119873,0.6399999856948853
202,0.11542398482561111,0.949999988079071,1.0789916515350342,0.6700000166893005
203,0.17607997357845306,0.9399999976158142,2.3748884201049805,0.6700000166893005
204,0.051622696220874786,1.0,2.9746477603912354,0.6700000166893005
205,0.05701011046767235,0.9700000286102295,0.45550858974456787,0.8799999952316284
206,0.04843229427933693,0.9800000190734863,0.57002854347229,0.8500000238418579
207,0.026125457137823105,0.9900000095367432,0.38014987111091614,0.8899999856948853
208,0.014508772641420364,1.0,0.3704946041107178,0.8999999761581421
209,0.010571510531008244,1.0,0.3567679226398468,0.8899999856948853
210,0.019558029249310493,0.9900000095367432,0.3972572088241577,0.9100000262260437
211,0.015209794044494629,1.0,0.42013853788375854,0.8999999761581421
212,0.011068161576986313,1.0,0.3824712336063385,0.8999999761581421
213,0.012367990799248219,1.0,0.7695151567459106,0.800000011920929
214,0.007355460897088051,1.0,0.6221654415130615,0.8100000023841858
215,0.004647624678909779,1.0,0.47034603357315063,0.8899999856948853
216,0.003863999154418707,1.0,0.40427619218826294,0.8999999761581421
217,0.017940621823072433,1.0,0.39705735445022583,0.8799999952316284
218,0.012173815630376339,1.0,0.3781619966030121,0.8899999856948853
219,0.005601192824542522,1.0,0.4347853362560272,0.8799999952316284
220,0.0033066195901483297,1.0,0.49232780933380127,0.8700000047683716
221,0.0036690381821244955,1.0,0.4960564374923706,0.8700000047683716
222,0.0043791807256639,1.0,0.4734954535961151,0.8899999856948853
223,0.0024921095464378595,1.0,0.4530481696128845,0.8899999856948853
224,0.005244365893304348,1.0,0.4470100700855255,0.8999999761581421
225,0.005706540774554014,1.0,0.4481372833251953,0.8899999856948853
226,0.0031047642696648836,1.0,0.44396305084228516,0.8899999856948853
227,0.010159405879676342,1.0,0.44912654161453247,0.8899999856948853
228,0.0015453093219548464,1.0,0.4642412066459656,0.8999999761581421
229,0.004048345610499382,1.0,0.4810088872909546,0.8899999856948853
230,0.005185676272958517,1.0,0.5033581852912903,0.8899999856948853
231,0.0018987974617630243,1.0,0.5082385540008545,0.8899999856948853
232,0.007701243739575148,1.0,0.5112241506576538,0.8899999856948853
233,0.010566039010882378,1.0,0.4796055257320404,0.8999999761581421
234,0.011072129011154175,1.0,0.4350273907184601,0.8799999952316284
235,0.0020952271297574043,1.0,0.4419160783290863,0.8799999952316284
236,0.0023995116353034973,1.0,0.4463909864425659,0.8799999952316284
237,0.00210761371999979,1.0,0.4466405510902405,0.8799999952316284
238,0.0019712315406650305,1.0,0.44540756940841675,0.8899999856948853
239,0.004348473157733679,1.0,0.4540329873561859,0.8899999856948853
240,0.006841803900897503,1.0,0.45306146144866943,0.8899999856948853
241,0.0015715275658294559,1.0,0.46344009041786194,0.8899999856948853
242,0.00168128265067935,1.0,0.4663427472114563,0.8899999856948853
243,0.04511592537164688,0.9800000190734863,0.4916464686393738,0.8799999952316284
244,0.03320588544011116,0.9900000095367432,0.5228589177131653,0.8700000047683716
245,0.005414615850895643,1.0,0.5684388875961304,0.8399999737739563
246,0.017026953399181366,1.0,0.4385208487510681,0.8999999761581421
247,0.058762289583683014,0.9599999785423279,5.289760589599609,0.6399999856948853
248,0.043191906064748764,0.9900000095367432,2.0027589797973633,0.7300000190734863
249,0.07008415460586548,0.9800000190734863,1.1579300165176392,0.7799999713897705
250,0.038758136332035065,0.9900000095367432,0.696745753288269,0.8600000143051147
251,0.018676334992051125,0.9900000095367432,1.4693865776062012,0.6700000166893005
252,0.018207764253020287,0.9900000095367432,0.6974844336509705,0.8399999737739563
253,0.0332365557551384,0.9900000095367432,0.4175698161125183,0.8899999856948853
254,0.004992518573999405,1.0,0.443741112947464,0.8899999856948853
255,0.009463813155889511,1.0,0.4127858877182007,0.8999999761581421
256,0.02061345800757408,1.0,0.42460399866104126,0.8899999856948853
257,0.007673993241041899,1.0,0.43661174178123474,0.8899999856948853
258,0.003445989452302456,1.0,0.44684913754463196,0.8799999952316284
259,0.0026020368095487356,1.0,0.4457891583442688,0.8799999952316284
260,0.0014024314004927874,1.0,0.4370923936367035,0.8899999856948853
261,0.0013219963293522596,1.0,0.43816766142845154,0.8899999856948853
262,0.001926332712173462,1.0,0.44467464089393616,0.8899999856948853
263,0.0034171435981988907,1.0,0.4468950629234314,0.8899999856948853
264,0.0029265766497701406,1.0,0.4400331377983093,0.8799999952316284
265,0.002395085757598281,1.0,0.4381726086139679,0.8799999952316284
266,0.0013393041444942355,1.0,0.43882060050964355,0.8799999952316284
267,0.004867067094892263,1.0,0.43902167677879333,0.8799999952316284
268,0.0022025154903531075,1.0,0.436605840921402,0.8799999952316284
269,0.004196354653686285,1.0,0.43417784571647644,0.8899999856948853
270,0.0054046050645411015,1.0,0.43738749623298645,0.8999999761581421
271,0.004012614488601685,1.0,0.4480845630168915,0.8999999761581421
272,0.0021776228677481413,1.0,0.4591618478298187,0.8899999856948853
273,0.0009134726133197546,1.0,0.4637792110443115,0.8899999856948853
274,0.0017054531490430236,1.0,0.464720755815506,0.8899999856948853
275,0.00238223560154438,1.0,0.4596118927001953,0.8899999856948853
276,0.0009745681309141219,1.0,0.4584540128707886,0.8899999856948853
277,0.00444711372256279,1.0,0.46346837282180786,0.8999999761581421
278,0.003172711469233036,1.0,0.46301546692848206,0.8899999856948853
279,0.0023088043089956045,1.0,0.4558848440647125,0.8999999761581421
280,0.001801774837076664,1.0,0.44822219014167786,0.8999999761581421
281,0.001466370653361082,1.0,0.44892778992652893,0.8999999761581421
282,0.0010853754356503487,1.0,0.4518437683582306,0.8999999761581421
283,0.0016993960598483682,1.0,0.4598710536956787,0.8999999761581421
284,0.0025237114168703556,1.0,0.46584540605545044,0.8999999761581421
285,0.0007724183960817754,1.0,0.4669700860977173,0.8899999856948853
286,0.0027954496908932924,1.0,0.4676479995250702,0.8899999856948853
287,0.0029762685298919678,1.0,0.4691513180732727,0.8999999761581421
288,0.001911874278448522,1.0,0.46887898445129395,0.8999999761581421
289,0.002070292131975293,1.0,0.4721171259880066,0.8899999856948853
290,0.0027405526489019394,1.0,0.4668639898300171,0.8999999761581421
291,0.001473731710575521,1.0,0.46640560030937195,0.8999999761581421
292,0.0030095844995230436,1.0,0.47161048650741577,0.8999999761581421
293,0.0027085125911980867,1.0,0.48847466707229614,0.8999999761581421
294,0.000683738209772855,1.0,0.49470722675323486,0.8999999761581421
295,0.004129040986299515,1.0,0.50119549036026,0.8999999761581421
296,0.008691995404660702,1.0,0.4832654595375061,0.8999999761581421
297,0.0011287250090390444,1.0,0.46150580048561096,0.8799999952316284
298,0.006185214500874281,1.0,0.4599725306034088,0.8799999952316284
299,0.0011935647344216704,1.0,0.49817925691604614,0.8999999761581421
300,0.0013000954641029239,1.0,0.5097808241844177,0.8899999856948853
301,0.0016468194080516696,1.0,0.4993424713611603,0.8999999761581421
302,0.0015679526841267943,1.0,0.4852120280265808,0.8999999761581421
303,0.0026149784680455923,1.0,0.4770035445690155,0.8999999761581421
304,0.0012164543149992824,1.0,0.4698711335659027,0.8999999761581421
305,0.0011510446202009916,1.0,0.4689452350139618,0.8999999761581421
306,0.00147435802500695,1.0,0.4714001715183258,0.8999999761581421
307,0.0013289969647303224,1.0,0.46951714158058167,0.8999999761581421
308,0.0028879684396088123,1.0,0.4973416030406952,0.8999999761581421
309,0.0008713406277820468,1.0,0.5062425136566162,0.8999999761581421
310,0.001211434369906783,1.0,0.5051827430725098,0.8999999761581421
311,0.0014239753363654017,1.0,0.49951156973838806,0.8999999761581421
312,0.0009231191361322999,1.0,0.4965767562389374,0.8999999761581421
313,0.000875589088536799,1.0,0.4942859709262848,0.8999999761581421
314,0.0016473993891850114,1.0,0.49148017168045044,0.8999999761581421
315,0.0011710680555552244,1.0,0.4898066222667694,0.8999999761581421
316,0.0010888819815590978,1.0,0.48972398042678833,0.8999999761581421
317,0.0007538391510024667,1.0,0.48597609996795654,0.8899999856948853
318,0.0014417661586776376,1.0,0.48166143894195557,0.8899999856948853
319,0.0009901027660816908,1.0,0.4807315766811371,0.8899999856948853
320,0.0009918323485180736,1.0,0.4798915386199951,0.8899999856948853
321,0.001738008577376604,1.0,0.48258858919143677,0.8899999856948853
322,0.0009302720427513123,1.0,0.4830826222896576,0.8899999856948853
323,0.0014599962159991264,1.0,0.4881473481655121,0.8899999856948853
324,0.0010935438331216574,1.0,0.4884128272533417,0.8899999856948853
325,0.0018203326035290956,1.0,0.48736336827278137,0.8899999856948853
326,0.009312951937317848,1.0,0.47885170578956604,0.8999999761581421
327,0.0014291965635493398,1.0,0.47390639781951904,0.8999999761581421
328,0.0018048573983833194,1.0,0.4712487459182739,0.8999999761581421
329,0.001097355387173593,1.0,0.46940064430236816,0.8999999761581421
330,0.0042773024179041386,1.0,0.47827303409576416,0.8899999856948853
331,0.002551421755924821,1.0,0.4913473129272461,0.8899999856948853
332,0.003037428017705679,1.0,0.48806649446487427,0.8899999856948853
333,0.0012587403180077672,1.0,0.4839196801185608,0.8899999856948853
334,0.0009324427228420973,1.0,0.4857829213142395,0.8899999856948853
335,0.0014364297967404127,1.0,0.48929205536842346,0.8899999856948853
336,0.0014895766507834196,1.0,0.49092400074005127,0.8799999952316284
337,0.0010273713851347566,1.0,0.49298325181007385,0.8899999856948853
338,0.000756304943934083,1.0,0.49533453583717346,0.8899999856948853
339,0.0010813747067004442,1.0,0.49818193912506104,0.8899999856948853
340,0.0013646010775119066,1.0,0.5004358887672424,0.8899999856948853
341,0.007626048754900694,1.0,0.5160490870475769,0.8999999761581421
342,0.0012910832883790135,1.0,0.5507785081863403,0.8999999761581421
343,0.0022569538559764624,1.0,0.5767151117324829,0.8899999856948853
344,0.0035232815425843,1.0,0.5498456358909607,0.8999999761581421
345,0.001334176049567759,1.0,0.5445541143417358,0.8999999761581421
346,0.0016798611031845212,1.0,0.5430953502655029,0.8999999761581421
347,0.0017351293936371803,1.0,0.5397132635116577,0.8999999761581421
348,0.0008018419030122459,1.0,0.5379660129547119,0.8999999761581421
349,0.000815863604657352,1.0,0.5360046625137329,0.8999999761581421
350,0.0022190939635038376,1.0,0.5356273055076599,0.8999999761581421
351,0.0007860914338380098,1.0,0.5296372175216675,0.8999999761581421
352,0.0010750573128461838,1.0,0.524385929107666,0.8999999761581421
353,0.0021427033934742212,1.0,0.5227710604667664,0.8999999761581421
354,0.004665258340537548,1.0,0.5213022232055664,0.8899999856948853
355,0.0029084039852023125,1.0,0.5173338651657104,0.8899999856948853
356,0.0006413856172002852,1.0,0.5161617398262024,0.8899999856948853
357,0.001155654899775982,1.0,0.5148252844810486,0.8899999856948853
358,0.002575127175077796,1.0,0.5245950222015381,0.8899999856948853
359,0.0016047173412516713,1.0,0.5252830386161804,0.8899999856948853
360,0.0011605414329096675,1.0,0.5242516994476318,0.8899999856948853
361,0.001117891282774508,1.0,0.5200580358505249,0.8899999856948853
362,0.0011961479904130101,1.0,0.5169458985328674,0.8899999856948853
363,0.0005917474627494812,1.0,0.5150424838066101,0.8899999856948853
364,0.000973709742538631,1.0,0.5130640268325806,0.8899999856948853
365,0.0010629555908963084,1.0,0.5121925473213196,0.8899999856948853
366,0.0012550618266686797,1.0,0.5126484632492065,0.8899999856948853
367,0.0009880764409899712,1.0,0.5141994953155518,0.8899999856948853
368,0.0022883648052811623,1.0,0.5163081884384155,0.8899999856948853
369,0.002394161419942975,1.0,0.5192916989326477,0.8899999856948853
370,0.0003793974465224892,1.0,0.5179838538169861,0.8899999856948853
371,0.0016123371897265315,1.0,0.5171706676483154,0.8899999856948853
372,0.0015510580269619823,1.0,0.5162832736968994,0.8899999856948853
373,0.000806953466963023,1.0,0.5159108638763428,0.8899999856948853
374,0.0008050311589613557,1.0,0.5153428316116333,0.8899999856948853
375,0.000883162603713572,1.0,0.5159901976585388,0.8899999856948853
376,0.002668726723641157,1.0,0.5158624053001404,0.8899999856948853
377,0.0020884352270513773,1.0,0.5170021057128906,0.8899999856948853
378,0.0007936246693134308,1.0,0.5174923539161682,0.8899999856948853
379,0.0007480044732801616,1.0,0.5185800194740295,0.8899999856948853
380,0.0013909286353737116,1.0,0.5144299268722534,0.8899999856948853
381,0.0005027508595958352,1.0,0.5124812126159668,0.8899999856948853
382,0.0064744893461465836,1.0,0.5176842212677002,0.8899999856948853
383,0.0012755163479596376,1.0,0.5375036597251892,0.8999999761581421
384,0.00033487589098513126,1.0,0.5420548319816589,0.8999999761581421
385,0.0003998070606030524,1.0,0.5406125783920288,0.8999999761581421
386,0.0013676828239113092,1.0,0.5286263823509216,0.8899999856948853
387,0.0016946004470810294,1.0,0.5195145606994629,0.8899999856948853
388,0.0006037386483512819,1.0,0.5154821276664734,0.8899999856948853
389,0.0029279086738824844,1.0,0.5064723491668701,0.8799999952316284
390,0.00044108284055255353,1.0,0.504936933517456,0.8799999952316284
391,0.000798591470811516,1.0,0.505613386631012,0.8799999952316284
392,0.0008175043039955199,1.0,0.5068498253822327,0.8799999952316284
393,0.0008951967465691268,1.0,0.5087640285491943,0.8799999952316284
394,0.0015732740284875035,1.0,0.5093066692352295,0.8799999952316284
395,0.0009113475680351257,1.0,0.5098040103912354,0.8799999952316284
396,0.0009488370851613581,1.0,0.5124050378799438,0.8799999952316284
397,0.00044260031427256763,1.0,0.5141494870185852,0.8899999856948853
398,0.0010935533791780472,1.0,0.5154314637184143,0.8899999856948853
399,0.002268158132210374,1.0,0.5190694332122803,0.8899999856948853
400,0.006378889083862305,1.0,0.5210288763046265,0.8999999761581421
401,0.00141072494443506,1.0,0.5213228464126587,0.8999999761581421
402,0.000404915539547801,1.0,0.522901713848114,0.8999999761581421
403,0.0009974573040381074,1.0,0.5249857902526855,0.8999999761581421
404,0.0007242522551678121,1.0,0.5250738859176636,0.8899999856948853
405,0.0009147878736257553,1.0,0.5256140232086182,0.8899999856948853
406,0.0022974542807787657,1.0,0.5343625545501709,0.8999999761581421
407,0.0019430320244282484,1.0,0.5435751080513,0.8999999761581421
408,0.000804173992946744,1.0,0.5457916259765625,0.8999999761581421
409,0.0010485292878001928,1.0,0.5455889701843262,0.8999999761581421
410,0.0008475735667161644,1.0,0.5354141592979431,0.8999999761581421
411,0.0006406860193237662,1.0,0.5295551419258118,0.8899999856948853
412,0.0007150044548325241,1.0,0.5239554643630981,0.8899999856948853
413,0.0008554611122235656,1.0,0.5215630531311035,0.8899999856948853
414,0.0011660337913781404,1.0,0.5204883217811584,0.8899999856948853
415,0.0006074169068597257,1.0,0.5196956396102905,0.8899999856948853
416,0.0012785702710971236,1.0,0.5198830962181091,0.8899999856948853
417,0.0018476778641343117,1.0,0.5188686847686768,0.8899999856948853
418,0.0011095997178927064,1.0,0.5162298679351807,0.8899999856948853
419,0.0007596886716783047,1.0,0.5168659090995789,0.8899999856948853
420,0.00031338180997408926,1.0,0.5167251825332642,0.8799999952316284
421,0.0008096639649011195,1.0,0.5177958607673645,0.8899999856948853
422,0.0008470672182738781,1.0,0.5178250670433044,0.8899999856948853
423,0.001420782064087689,1.0,0.5182364583015442,0.8899999856948853
424,0.00242042588070035,1.0,0.5218567848205566,0.8899999856948853
425,0.00048702192725613713,1.0,0.5261184573173523,0.8899999856948853
426,0.0011320263147354126,1.0,0.5292422771453857,0.8899999856948853
427,0.0004619774117600173,1.0,0.5305962562561035,0.8899999856948853
428,0.0005938217509537935,1.0,0.5314127206802368,0.8899999856948853
429,0.0012935203267261386,1.0,0.535799503326416,0.8899999856948853
430,0.00034087509266100824,1.0,0.5381518006324768,0.8899999856948853
431,0.0005811381270177662,1.0,0.5394458174705505,0.8899999856948853
432,0.002051569754257798,1.0,0.5443533062934875,0.8999999761581421
433,0.0011281791375949979,1.0,0.5512371063232422,0.8999999761581421
434,0.0006567675736732781,1.0,0.5539753437042236,0.8999999761581421
435,0.0011551737552508712,1.0,0.5531319975852966,0.8999999761581421
436,0.0015439917333424091,1.0,0.5531797409057617,0.8999999761581421
437,0.0002567811752669513,1.0,0.5531867742538452,0.8999999761581421
438,0.0006189889973029494,1.0,0.5491784811019897,0.8999999761581421
439,0.0006953442934900522,1.0,0.5421386361122131,0.8899999856948853
440,0.0006252886960282922,1.0,0.5387360453605652,0.8899999856948853
441,0.0003400364948902279,1.0,0.5364719033241272,0.8899999856948853
442,0.0032904795370996,1.0,0.5373097062110901,0.8899999856948853
443,0.0003229102003388107,1.0,0.5367372035980225,0.8899999856948853
444,0.0008207208011299372,1.0,0.5351237654685974,0.8899999856948853
445,0.0007141202222555876,1.0,0.5295231342315674,0.8899999856948853
446,0.00283884909003973,1.0,0.5316890478134155,0.8899999856948853
447,0.00405838480219245,1.0,0.5206085443496704,0.8899999856948853
448,0.0005409906152635813,1.0,0.5132550001144409,0.8899999856948853
449,0.0018570576794445515,1.0,0.515063464641571,0.8899999856948853
450,0.0005915405927225947,1.0,0.5173749327659607,0.8899999856948853
451,0.0002836231724359095,1.0,0.5195474028587341,0.8899999856948853
452,0.002870723605155945,1.0,0.5238035321235657,0.8899999856948853
453,0.0009741276735439897,1.0,0.5226624011993408,0.8899999856948853
454,0.0007733953534625471,1.0,0.5193666815757751,0.8899999856948853
455,0.00026157699176110327,1.0,0.5196073055267334,0.8799999952316284
456,0.0006975747528485954,1.0,0.5222545266151428,0.8899999856948853
457,0.00042124660103581846,1.0,0.5242405533790588,0.8899999856948853
458,0.0010940836509689689,1.0,0.5249883532524109,0.8899999856948853
459,0.00045137573033571243,1.0,0.5251697301864624,0.8799999952316284
460,0.00046341004781425,1.0,0.5253590941429138,0.8799999952316284
461,0.0006386475870385766,1.0,0.5272093415260315,0.8899999856948853
462,0.0005973828374408185,1.0,0.5295946598052979,0.8899999856948853
463,0.001017423695884645,1.0,0.5346906781196594,0.8899999856948853
464,0.00030029087793082,1.0,0.5374704599380493,0.8899999856948853
465,0.0005406535929068923,1.0,0.539508581161499,0.8899999856948853
466,0.00024587323423475027,1.0,0.5405546426773071,0.8899999856948853
467,0.0005667831283062696,1.0,0.5410104990005493,0.8899999856948853
468,0.0030280789360404015,1.0,0.5200435519218445,0.8799999952316284
469,0.00045776396291330457,1.0,0.5163331031799316,0.8799999952316284
470,0.0011672370601445436,1.0,0.5169647336006165,0.8799999952316284
471,0.0019298004917800426,1.0,0.5206937193870544,0.8799999952316284
472,0.0003135292208753526,1.0,0.5290546417236328,0.8899999856948853
473,0.0006095613352954388,1.0,0.5332526564598083,0.8899999856948853
474,0.0008561587310396135,1.0,0.5350106954574585,0.8899999856948853
475,0.0008097898098640144,1.0,0.5366537570953369,0.8899999856948853
476,0.0011144968448206782,1.0,0.5438048243522644,0.8899999856948853
477,0.0018244268139824271,1.0,0.5581291913986206,0.8999999761581421
478,0.001770491129718721,1.0,0.5642762184143066,0.8999999761581421
479,0.0012411497300490737,1.0,0.5658507347106934,0.8999999761581421
480,0.00027725740801543,1.0,0.5657908916473389,0.8999999761581421
481,0.00039216605364345014,1.0,0.5648963451385498,0.8999999761581421
482,0.0003671617014333606,1.0,0.5623352527618408,0.8999999761581421
483,0.0007900001364760101,1.0,0.5607845783233643,0.8999999761581421
484,0.00019507415709085763,1.0,0.5572927594184875,0.8999999761581421
485,0.003803141415119171,1.0,0.5269951224327087,0.8899999856948853
486,0.0005666719516739249,1.0,0.5067561268806458,0.8799999952316284
487,0.0011901822872459888,1.0,0.5035940408706665,0.8799999952316284
488,0.0008127918117679656,1.0,0.506716787815094,0.8799999952316284
489,0.0020483348052948713,1.0,0.5183178186416626,0.8899999856948853
490,0.0007789393421262503,1.0,0.530210554599762,0.8999999761581421
491,0.00052882224554196,1.0,0.5347387194633484,0.8999999761581421
492,0.0009993119165301323,1.0,0.5426004528999329,0.8999999761581421
493,0.000815998762845993,1.0,0.5533186793327332,0.8999999761581421
494,0.0003530331305228174,1.0,0.5577188730239868,0.8999999761581421
495,0.0006838220288045704,1.0,0.5573862195014954,0.8999999761581421
496,0.0018684171373024583,1.0,0.5551562309265137,0.8999999761581421
497,0.0020225257612764835,1.0,0.5657272934913635,0.8999999761581421
498,0.0006418302655220032,1.0,0.5718888640403748,0.8999999761581421
499,0.00025202782126143575,1.0,0.5691275000572205,0.8999999761581421
500,0.0003419342392589897,1.0,0.56754469871521,0.8999999761581421
501,0.00036135807749815285,1.0,0.5641968846321106,0.8999999761581421
502,0.0003262243699282408,1.0,0.5597741603851318,0.8999999761581421
503,0.013456924818456173,0.9900000095367432,1.2515572309494019,0.8100000023841858
504,0.0046803904697299,1.0,1.3101822137832642,0.800000011920929
505,0.001585589605383575,1.0,0.7599220871925354,0.8399999737739563
506,0.004760267212986946,1.0,0.5617701411247253,0.8999999761581421
507,0.005468099843710661,1.0,0.5141307711601257,0.8799999952316284
508,0.0006322499248199165,1.0,0.515836238861084,0.8899999856948853
509,0.0007146564312279224,1.0,0.5168889760971069,0.8899999856948853
510,0.0006979443714953959,1.0,0.5188482403755188,0.8899999856948853
511,0.001135495607741177,1.0,0.5207957625389099,0.8899999856948853
512,0.0005216079298406839,1.0,0.5221058130264282,0.8899999856948853
513,0.0012700636871159077,1.0,0.5275508761405945,0.8899999856948853
514,0.00041148916352540255,1.0,0.5302357077598572,0.8899999856948853
515,0.0006738768424838781,1.0,0.5319573879241943,0.8799999952316284
516,0.0005268586683087051,1.0,0.5326011180877686,0.8799999952316284
517,0.0007351815584115684,1.0,0.534127950668335,0.8799999952316284
518,0.0003995602601207793,1.0,0.5342633724212646,0.8799999952316284
519,0.004257683642208576,1.0,0.5225898027420044,0.8899999856948853
520,0.0008494018111377954,1.0,0.5180480480194092,0.8899999856948853
521,0.001786990906111896,1.0,0.5203231573104858,0.8799999952316284
522,0.0021775460336357355,1.0,0.5245833992958069,0.8799999952316284
523,0.001993749290704727,1.0,0.5378777980804443,0.8999999761581421
524,0.0005199040751904249,1.0,0.5430982708930969,0.8999999761581421
525,0.0003865579201374203,1.0,0.5440148115158081,0.8999999761581421
526,0.0005119124543853104,1.0,0.5436463952064514,0.8999999761581421
527,0.00045758296619169414,1.0,0.5429012179374695,0.8999999761581421
528,0.0017124614678323269,1.0,0.5431642532348633,0.8999999761581421
529,0.00022501582861877978,1.0,0.5452636480331421,0.8999999761581421
530,0.002057233126834035,1.0,0.5482824444770813,0.8899999856948853
531,0.00032921525416895747,1.0,0.5531601309776306,0.8899999856948853
532,0.0004804118361789733,1.0,0.5560363531112671,0.8899999856948853
533,0.0005754719022661448,1.0,0.5551450848579407,0.8899999856948853
534,0.0007466964307241142,1.0,0.5519934296607971,0.8899999856948853
535,0.0012843437725678086,1.0,0.548306405544281,0.8899999856948853
536,0.0003796005330514163,1.0,0.5452744364738464,0.8899999856948853
537,0.0009615464368835092,1.0,0.5453097820281982,0.8899999856948853
538,0.00038546163705177605,1.0,0.5450071692466736,0.8899999856948853
539,0.0005538836121559143,1.0,0.5448908805847168,0.8899999856948853
540,0.0004436662420630455,1.0,0.5446080565452576,0.8899999856948853
541,0.0003279533702880144,1.0,0.5430598855018616,0.8799999952316284
542,0.0003111978876404464,1.0,0.5432278513908386,0.8899999856948853
543,0.00031234987545758486,1.0,0.5444814562797546,0.8899999856948853
544,0.016840558499097824,1.0,0.5605359077453613,0.8899999856948853
545,0.0035053750034421682,1.0,0.8225361108779907,0.8299999833106995
546,0.0026838872581720352,1.0,0.8557371497154236,0.8299999833106995
547,0.00145202677231282,1.0,0.729397714138031,0.8700000047683716
548,0.0019986967090517282,1.0,0.6613786816596985,0.8700000047683716
549,0.0008888079319149256,1.0,0.6309388875961304,0.8799999952316284
550,0.0024925770703703165,1.0,0.5912302136421204,0.8999999761581421
551,0.0008215863490477204,1.0,0.5657081604003906,0.8999999761581421
552,0.0004829457320738584,1.0,0.5583621263504028,0.8899999856948853
553,0.0019982331432402134,1.0,0.5461820363998413,0.8899999856948853
554,0.0009070286178030074,1.0,0.5458105206489563,0.8899999856948853
555,0.0016996021149680018,1.0,0.539281964302063,0.8899999856948853
556,0.00033918555709533393,1.0,0.5377101302146912,0.8799999952316284
557,0.0003722513501998037,1.0,0.5375632643699646,0.8799999952316284
558,0.0006972369737923145,1.0,0.5376459360122681,0.8799999952316284
559,0.0002489035250619054,1.0,0.5376632809638977,0.8799999952316284
560,0.0008318056352436543,1.0,0.5351602435112,0.8799999952316284
561,0.0019622286781668663,1.0,0.5403373837471008,0.8899999856948853
562,0.00041011665598489344,1.0,0.5443273782730103,0.8899999856948853
563,0.0005135357496328652,1.0,0.5427449941635132,0.8899999856948853
564,0.0003007132327184081,1.0,0.5409013628959656,0.8899999856948853
565,0.00023467121354769915,1.0,0.5391478538513184,0.8899999856948853
566,0.0016652251360937953,1.0,0.5409903526306152,0.8799999952316284
567,0.0005597186973318458,1.0,0.5526479482650757,0.8899999856948853
568,0.00031414139084517956,1.0,0.5573939681053162,0.8899999856948853
569,0.000249831733526662,1.0,0.5569053888320923,0.8899999856948853
570,0.0007596344221383333,1.0,0.5569109320640564,0.8899999856948853
571,0.001827142434194684,1.0,0.5850148797035217,0.8999999761581421
572,0.00043083089985884726,1.0,0.5948478579521179,0.8899999856948853
573,0.0007782104657962918,1.0,0.5917733907699585,0.8899999856948853
574,0.00022338436974678189,1.0,0.5845475792884827,0.8899999856948853
575,0.0007296463008970022,1.0,0.5768565535545349,0.8999999761581421
576,0.0006207028636708856,1.0,0.5738316178321838,0.8999999761581421
577,0.0003811080823652446,1.0,0.5702290534973145,0.8999999761581421
578,0.00029525335412472486,1.0,0.5638760924339294,0.8999999761581421
579,0.0012377650709822774,1.0,0.5525811910629272,0.8899999856948853
580,0.0004655987140722573,1.0,0.5460697412490845,0.8899999856948853
581,0.005230420269072056,1.0,0.5503777861595154,0.8899999856948853
582,0.0011229844531044364,1.0,0.5606094598770142,0.8899999856948853
583,0.0006997842574492097,1.0,0.5581365823745728,0.8999999761581421
584,0.0006631726282648742,1.0,0.5485882759094238,0.8999999761581421
585,0.0010339810978621244,1.0,0.5465269684791565,0.8899999856948853
586,0.005151473451405764,1.0,0.5704180598258972,0.8899999856948853
587,0.0007871628040447831,1.0,0.659797191619873,0.8899999856948853
588,0.0006773883360438049,1.0,0.7050245404243469,0.8899999856948853
589,0.0014272304251790047,1.0,0.6673756241798401,0.8899999856948853
590,0.0033289664424955845,1.0,0.5896892547607422,0.8999999761581421
591,0.00195294339209795,1.0,0.559557318687439,0.8899999856948853
592,0.003140453714877367,1.0,0.5618246793746948,0.8999999761581421
593,0.0022332752123475075,1.0,0.5843322277069092,0.8999999761581421
594,0.0003108033270109445,1.0,0.5920900702476501,0.8999999761581421
595,0.0004906764952465892,1.0,0.5926910042762756,0.8999999761581421
596,0.00063710956601426,1.0,0.594106912612915,0.8999999761581421
597,0.0003364663280081004,1.0,0.5961933732032776,0.8999999761581421
598,0.00025483075296506286,1.0,0.5959715247154236,0.8999999761581421
599,0.0003486571367830038,1.0,0.5918383598327637,0.8999999761581421
600,0.004207841120660305,1.0,0.5807369947433472,0.8899999856948853
601,0.00045199343003332615,1.0,0.5497738718986511,0.8899999856948853
602,0.00029932381585240364,1.0,0.5466298460960388,0.8999999761581421
603,0.0012023255694657564,1.0,0.5471937656402588,0.8899999856948853
604,0.0003919318551197648,1.0,0.5500738620758057,0.8899999856948853
605,0.0012386984890326858,1.0,0.5569462776184082,0.8899999856948853
606,0.003306265687569976,1.0,0.6231353282928467,0.8999999761581421
607,0.00048130523646250367,1.0,0.6546146273612976,0.8899999856948853
608,0.0006251016166061163,1.0,0.6336920261383057,0.8999999761581421
609,0.0005120718851685524,1.0,0.6035648584365845,0.8999999761581421
610,0.0008497026283293962,1.0,0.5825056433677673,0.8999999761581421
611,0.0007363305776380002,1.0,0.5638560652732849,0.8999999761581421
612,0.0005060851108282804,1.0,0.5592439770698547,0.8899999856948853
613,0.0002852317120414227,1.0,0.5596544146537781,0.8899999856948853
614,0.0002797978522721678,1.0,0.5627577304840088,0.8899999856948853
615,0.0011637909337878227,1.0,0.5655635595321655,0.8899999856948853
616,0.000534265476744622,1.0,0.566501796245575,0.8899999856948853
617,0.00013885102816857398,1.0,0.5684584975242615,0.8899999856948853
618,0.0012271186569705606,1.0,0.5707563757896423,0.8899999856948853
619,0.0003534755378495902,1.0,0.5774351954460144,0.8899999856948853
620,0.0002626551140565425,1.0,0.5798017978668213,0.8899999856948853
621,0.0007692235521972179,1.0,0.5815183520317078,0.8899999856948853
622,0.0009299955563619733,1.0,0.5817855000495911,0.8899999856948853
623,0.00016604505071882159,1.0,0.5844776630401611,0.8899999856948853
624,0.0003469253424555063,1.0,0.5836184024810791,0.8899999856948853
625,0.0008372454904019833,1.0,0.5821381211280823,0.8899999856948853
626,0.00023893025354482234,1.0,0.578688383102417,0.8899999856948853
627,0.00044169925968162715,1.0,0.5743460655212402,0.8899999856948853
628,0.0002581947192084044,1.0,0.5726944804191589,0.8899999856948853
629,0.00033237040042877197,1.0,0.571145236492157,0.8899999856948853
630,0.0009303286205977201,1.0,0.5623529553413391,0.8899999856948853
631,0.002265186747536063,1.0,0.5717138051986694,0.8899999856948853
632,0.0002920778060797602,1.0,0.5611431002616882,0.8899999856948853
633,0.0005612061358988285,1.0,0.5622917413711548,0.8899999856948853
634,0.0006584150833077729,1.0,0.5662623047828674,0.8899999856948853
635,0.0005124175804667175,1.0,0.5697857737541199,0.8899999856948853
636,0.0002184447948820889,1.0,0.5724292993545532,0.8899999856948853
637,0.0020799837075173855,1.0,0.6048321723937988,0.8999999761581421
638,0.0005786771071143448,1.0,0.6131361126899719,0.8899999856948853
639,0.00016598001820966601,1.0,0.6061201095581055,0.8999999761581421
640,0.0009914274560287595,1.0,0.5933398604393005,0.8999999761581421
641,0.00047354242997244,1.0,0.5775420665740967,0.8899999856948853
642,0.00038624409353360534,1.0,0.5727430582046509,0.8899999856948853
643,0.0005121538415551186,1.0,0.5695768594741821,0.8899999856948853
644,0.0022628214210271835,1.0,0.5696531534194946,0.8899999856948853
645,0.00035627500619739294,1.0,0.5728743672370911,0.8999999761581421
646,0.0034189512953162193,1.0,0.622759222984314,0.8999999761581421
647,0.0019125918624922633,1.0,0.6493492722511292,0.8899999856948853
648,0.002306894864886999,1.0,0.6367138624191284,0.8899999856948853
649,0.0003377161920070648,1.0,0.6188870072364807,0.8999999761581421
650,0.0001624450960662216,1.0,0.6065492033958435,0.8999999761581421
651,0.0012879547430202365,1.0,0.6023098230361938,0.8999999761581421
652,0.00035813674912787974,1.0,0.5915153622627258,0.8999999761581421
653,0.0003056525019928813,1.0,0.5844912528991699,0.8999999761581421
654,0.00030365088605321944,1.0,0.5791206955909729,0.8999999761581421
655,0.0006271974998526275,1.0,0.5781528949737549,0.8899999856948853
656,0.00041562505066394806,1.0,0.5753809809684753,0.8899999856948853
657,0.00035151548217982054,1.0,0.5723820328712463,0.8899999856948853
658,0.00017355132149532437,1.0,0.570574164390564,0.8899999856948853
659,0.0007403178606182337,1.0,0.5645002722740173,0.8799999952316284
660,0.00027863640571013093,1.0,0.5615743398666382,0.8799999952316284
661,0.0005078124231658876,1.0,0.561011552810669,0.8799999952316284
662,0.00037253834307193756,1.0,0.5612338185310364,0.8799999952316284
663,0.00030889015761204064,1.0,0.5625371336936951,0.8799999952316284
664,0.00040877930587157607,1.0,0.5646817684173584,0.8899999856948853
665,0.00046744756400585175,1.0,0.5676736235618591,0.8899999856948853
666,0.00032251031370833516,1.0,0.5708181262016296,0.8899999856948853
667,0.00027412266354076564,1.0,0.5718725919723511,0.8899999856948853
668,0.0007102193194441497,1.0,0.561999499797821,0.8899999856948853
669,0.00016581593081355095,1.0,0.5595225691795349,0.8899999856948853
670,0.00027780327945947647,1.0,0.5597884058952332,0.8899999856948853
671,0.0001398254098603502,1.0,0.5608824491500854,0.8899999856948853
672,0.010960320010781288,1.0,0.5364801287651062,0.8799999952316284
673,0.0034796649124473333,1.0,0.48902297019958496,0.8999999761581421
674,0.003024666802957654,1.0,0.44545531272888184,0.8999999761581421
675,0.010078503750264645,1.0,0.5278351902961731,0.8600000143051147
676,0.0015712605090811849,1.0,0.5427692532539368,0.8700000047683716
677,0.0013041733764111996,1.0,0.5391203165054321,0.8700000047683716
678,0.0023670324590057135,1.0,0.5265917181968689,0.8799999952316284
679,0.001012355205602944,1.0,0.5441142320632935,0.8899999856948853
680,0.000992164365015924,1.0,0.5517625212669373,0.8899999856948853
681,0.00042540664435364306,1.0,0.5470656752586365,0.8899999856948853
682,0.00041543415863998234,1.0,0.5471996068954468,0.8899999856948853
683,0.0008159599965438247,1.0,0.5466460585594177,0.8899999856948853
684,0.0012769160093739629,1.0,0.550477921962738,0.8999999761581421
685,0.0005718955071642995,1.0,0.5514650344848633,0.8999999761581421
686,0.00030690073617734015,1.0,0.5521811842918396,0.8999999761581421
687,0.00037343177245929837,1.0,0.5505424737930298,0.8999999761581421
688,0.0004845332296099514,1.0,0.5489405989646912,0.8899999856948853
689,0.0003486071072984487,1.0,0.5482825636863708,0.8899999856948853
690,0.00019335153046995401,1.0,0.5472626686096191,0.8799999952316284
691,0.00044252804946154356,1.0,0.5481916069984436,0.8799999952316284
692,0.0003413550148252398,1.0,0.5496125221252441,0.8799999952316284
693,0.00025424224440939724,1.0,0.5494354963302612,0.8799999952316284
694,0.0012727644061669707,1.0,0.5510744452476501,0.8799999952316284
695,0.0007626278675161302,1.0,0.5552213788032532,0.8899999856948853
696,0.00022622318647336215,1.0,0.5561726093292236,0.8899999856948853
697,0.0005440282984636724,1.0,0.5558750033378601,0.8899999856948853
698,0.0005986555479466915,1.0,0.5569567680358887,0.8899999856948853
699,0.0003424359892960638,1.0,0.5573920011520386,0.8899999856948853
700,0.00017479289090260863,1.0,0.5595151782035828,0.8899999856948853
701,0.0002394741022726521,1.0,0.5594027042388916,0.8899999856948853
702,0.00032124752760864794,1.0,0.5606117844581604,0.8899999856948853
703,0.00020392480655573308,1.0,0.5614103674888611,0.8899999856948853
704,0.0005272795096971095,1.0,0.5616792440414429,0.8899999856948853
705,0.00019554463506210595,1.0,0.5615995526313782,0.8899999856948853
706,0.00016655970830470324,1.0,0.5612345933914185,0.8899999856948853
707,0.00036705200909636915,1.0,0.5609120726585388,0.8899999856948853
708,0.0008640711894258857,1.0,0.5626115202903748,0.8899999856948853
709,0.0008387889247387648,1.0,0.5713607668876648,0.8899999856948853
710,0.0003160685009788722,1.0,0.582140326499939,0.8999999761581421
711,0.00033332937164232135,1.0,0.5817937254905701,0.8999999761581421
712,0.0006725971470586956,1.0,0.5768250226974487,0.8999999761581421
713,0.0002546745236031711,1.0,0.5757178664207458,0.8999999761581421
714,0.00023285079805646092,1.0,0.5736290216445923,0.8999999761581421
715,0.00017082426347769797,1.0,0.5697699189186096,0.8899999856948853
716,0.00035686921910382807,1.0,0.5673949718475342,0.8899999856948853
717,0.00045469478936865926,1.0,0.5681105852127075,0.8899999856948853
718,0.0005072264466434717,1.0,0.5699903964996338,0.8899999856948853
719,0.0003733174817170948,1.0,0.5738500952720642,0.8899999856948853
720,0.0003218714555259794,1.0,0.5731756091117859,0.8899999856948853
721,0.0004589336458593607,1.0,0.5716785788536072,0.8899999856948853
722,0.00887468084692955,1.0,0.5197190642356873,0.8999999761581421
723,0.001962031703442335,1.0,0.5319732427597046,0.8899999856948853
724,0.00206326344050467,1.0,0.5107842087745667,0.9100000262260437
725,0.002897487487643957,1.0,0.5412097573280334,0.8999999761581421
726,0.0004129361768718809,1.0,0.5720423460006714,0.8999999761581421
727,0.0006755921058356762,1.0,0.5910175442695618,0.8999999761581421
728,0.0004997167852707207,1.0,0.5974164009094238,0.8999999761581421
729,0.00031614932231605053,1.0,0.5920585989952087,0.8999999761581421
730,0.0003587466198951006,1.0,0.5846969485282898,0.8999999761581421
731,0.0009321699035353959,1.0,0.5824414491653442,0.8999999761581421
732,0.0002483606804162264,1.0,0.5820214152336121,0.8999999761581421
733,0.0003885445767082274,1.0,0.5825569033622742,0.8999999761581421
734,0.0004898347542621195,1.0,0.5845163464546204,0.8999999761581421
735,0.0005637868889607489,1.0,0.5900833010673523,0.8999999761581421
736,0.0006130248657427728,1.0,0.6019169092178345,0.8999999761581421
737,0.0003863110323436558,1.0,0.6065102219581604,0.8999999761581421
738,0.00018154863209929317,1.0,0.6047656536102295,0.8999999761581421
739,0.0005117390537634492,1.0,0.6064919829368591,0.8999999761581421
740,0.0005550470668822527,1.0,0.6053501963615417,0.8999999761581421
741,0.00028161535738036036,1.0,0.5993466973304749,0.8999999761581421
742,0.0003509825037326664,1.0,0.5900928378105164,0.8899999856948853
743,0.00018393545178696513,1.0,0.5834431648254395,0.8899999856948853
744,0.0007221429841592908,1.0,0.5849748849868774,0.8899999856948853
745,0.0007744964677840471,1.0,0.5872782468795776,0.8999999761581421
746,0.0042933388613164425,1.0,0.6995846033096313,0.8799999952316284
747,0.0007263615843839943,1.0,0.6982857584953308,0.8799999952316284
748,0.0004476846079342067,1.0,0.6239373683929443,0.8999999761581421
749,0.0006969707319512963,1.0,0.6096305251121521,0.8899999856948853
750,0.0003342239069752395,1.0,0.6051134467124939,0.8999999761581421
751,0.00047663869918324053,1.0,0.6030123829841614,0.8999999761581421
752,0.0003785824519582093,1.0,0.597909152507782,0.8999999761581421
753,0.0003837406693492085,1.0,0.5922512412071228,0.8999999761581421
754,0.0002602793974801898,1.0,0.5857717990875244,0.8999999761581421
755,0.0005401785019785166,1.0,0.5825977921485901,0.8899999856948853
756,0.0005435207858681679,1.0,0.5772587060928345,0.8899999856948853
757,0.0006181271164678037,1.0,0.5778228640556335,0.8999999761581421
758,0.00044566416181623936,1.0,0.578472912311554,0.8899999856948853
759,0.000179959912202321,1.0,0.5772342681884766,0.8899999856948853
760,0.0006651213625445962,1.0,0.5742936134338379,0.8899999856948853
761,0.00015966755745466799,1.0,0.5694279670715332,0.8799999952316284
762,0.0004105866246391088,1.0,0.5704282522201538,0.8799999952316284
763,0.0003368570760358125,1.0,0.5756491422653198,0.8899999856948853
764,0.0002091829082928598,1.0,0.577899694442749,0.8899999856948853
765,9.83109202934429e-05,1.0,0.5793217420578003,0.8899999856948853
766,0.0006876846891827881,1.0,0.5786760449409485,0.8899999856948853
767,0.00020931230392307043,1.0,0.5814154744148254,0.8899999856948853
768,0.00011484553397167474,1.0,0.581249475479126,0.8899999856948853
769,0.00048462089034728706,1.0,0.5788476467132568,0.8899999856948853
770,0.0005208322545513511,1.0,0.5779762268066406,0.8899999856948853
771,0.00021643037325702608,1.0,0.5787708759307861,0.8899999856948853
772,0.0007688238983973861,1.0,0.5885719060897827,0.8899999856948853
773,0.00015782930131535977,1.0,0.6016068458557129,0.8999999761581421
774,0.00041703262832015753,1.0,0.604533851146698,0.8999999761581421
775,0.0003950047539547086,1.0,0.6054997444152832,0.8999999761581421
776,9.735929052112624e-05,1.0,0.6062570810317993,0.8999999761581421
777,0.00013625150313600898,1.0,0.6028743982315063,0.8999999761581421
778,0.0002416903298581019,1.0,0.5993707776069641,0.8999999761581421
779,0.0002564068417996168,1.0,0.597025990486145,0.8999999761581421
780,0.00012162558414274827,1.0,0.5940946340560913,0.8899999856948853
781,0.00017558771651238203,1.0,0.5916863083839417,0.8899999856948853
782,0.0004896819009445608,1.0,0.5882828831672668,0.8899999856948853
783,0.00039697668398730457,1.0,0.584115743637085,0.8899999856948853
784,0.00039217006997205317,1.0,0.5855281352996826,0.8899999856948853
785,0.0002603369066491723,1.0,0.5906848311424255,0.8899999856948853
786,0.000483530864585191,1.0,0.5909036993980408,0.8899999856948853
787,0.00013363370089791715,1.0,0.5889686942100525,0.8899999856948853
788,0.00018320998060517013,1.0,0.5888767242431641,0.8899999856948853
789,0.00030814899946562946,1.0,0.5895370244979858,0.8899999856948853
790,0.00022738968254998326,1.0,0.5885487198829651,0.8899999856948853
791,0.0002569911885075271,1.0,0.585796058177948,0.8899999856948853
792,0.00035866774851456285,1.0,0.5848364233970642,0.8899999856948853
793,9.575614967616275e-05,1.0,0.5825350284576416,0.8899999856948853
794,0.0002873787598218769,1.0,0.5818948149681091,0.8899999856948853
795,0.0001538741635158658,1.0,0.5809088945388794,0.8899999856948853
796,0.0003541870682965964,1.0,0.5823383927345276,0.8899999856948853
797,0.00021373578056227416,1.0,0.5848623514175415,0.8899999856948853
798,0.00019582512322813272,1.0,0.5902780294418335,0.8899999856948853
799,0.00012055956176482141,1.0,0.5920093059539795,0.8899999856948853
800,0.00014403108798433095,1.0,0.5936301350593567,0.8899999856948853
801,0.0004959654179401696,1.0,0.5976908206939697,0.8899999856948853
802,0.0001704161986708641,1.0,0.6085977554321289,0.8899999856948853
803,7.618075323989615e-05,1.0,0.6111185550689697,0.8999999761581421
804,0.00014007592108100653,1.0,0.6098949313163757,0.8899999856948853
805,8.54374811751768e-05,1.0,0.6065679788589478,0.8899999856948853
806,0.0003742086119018495,1.0,0.6049528121948242,0.8899999856948853
807,0.0005291621200740337,1.0,0.6165760159492493,0.8999999761581421
808,0.0005599387222900987,1.0,0.6125268340110779,0.8999999761581421
809,0.00024873169604688883,1.0,0.6053931713104248,0.8899999856948853
810,0.00010805815691128373,1.0,0.6008623838424683,0.8899999856948853
811,0.0006799607072025537,1.0,0.6071996092796326,0.8899999856948853
812,0.00023562835121992975,1.0,0.6087496280670166,0.8899999856948853
813,0.000484295713249594,1.0,0.6034035682678223,0.8899999856948853
814,0.0006424012826755643,1.0,0.6104095578193665,0.8999999761581421
815,5.160334694664925e-05,1.0,0.6196253299713135,0.8899999856948853
816,0.0007847914821468294,1.0,0.6065588593482971,0.8999999761581421
817,0.00012265350960660726,1.0,0.5651647448539734,0.8799999952316284
818,0.00011349123087711632,1.0,0.5609772801399231,0.8799999952316284
819,8.57040286064148e-05,1.0,0.5609763860702515,0.8799999952316284
820,0.00029584908043034375,1.0,0.561794638633728,0.8799999952316284
821,0.0007317036506719887,1.0,0.5741406083106995,0.8899999856948853
822,6.567608215846121e-05,1.0,0.6154476404190063,0.8999999761581421
823,0.00014781285426579416,1.0,0.6307905316352844,0.8899999856948853
824,0.00022050805273465812,1.0,0.632475733757019,0.8899999856948853
825,0.0001828421954996884,1.0,0.6252917051315308,0.8899999856948853
826,0.00015083370089996606,1.0,0.6175833344459534,0.8999999761581421
827,0.00035137348459102213,1.0,0.6024333834648132,0.8899999856948853
828,0.0002847052819561213,1.0,0.5969843864440918,0.8899999856948853
829,0.00029516880749724805,1.0,0.5972658395767212,0.8899999856948853
830,0.00019166087440680712,1.0,0.5973080992698669,0.8899999856948853
831,0.00031750486232340336,1.0,0.5963506102561951,0.8899999856948853
832,0.00016281228454317898,1.0,0.5936879515647888,0.8899999856948853
833,0.0002659681485965848,1.0,0.5935459733009338,0.8899999856948853
834,0.00014657372958026826,1.0,0.5922577977180481,0.8899999856948853
835,0.0006975347059778869,1.0,0.5983306169509888,0.8899999856948853
836,0.00013331144873518497,1.0,0.6015288233757019,0.8899999856948853
837,0.000735277368221432,1.0,0.6047253012657166,0.8899999856948853
838,0.0020351733546704054,1.0,0.6273815035820007,0.8899999856948853
839,0.00024193884746637195,1.0,0.6295028924942017,0.8899999856948853
840,0.00021960427693556994,1.0,0.6192935705184937,0.8899999856948853
841,0.00012664304813370109,1.0,0.6058764457702637,0.8899999856948853
842,0.0004029245174024254,1.0,0.5970392823219299,0.8899999856948853
843,8.76130725373514e-05,1.0,0.5908085703849792,0.8899999856948853
844,0.0002957764081656933,1.0,0.5859601497650146,0.8899999856948853
845,0.0001293896057177335,1.0,0.5816075801849365,0.8899999856948853
846,0.00013191364996600896,1.0,0.5802866816520691,0.8799999952316284
847,0.000506258977111429,1.0,0.5803618431091309,0.8899999856948853
848,0.0001115217455662787,1.0,0.5832927823066711,0.8899999856948853
849,0.00043887566425837576,1.0,0.5940040349960327,0.8899999856948853
850,0.0001348291407339275,1.0,0.6004177331924438,0.8899999856948853
851,0.0003508358495309949,1.0,0.5980588793754578,0.8899999856948853
852,0.0006612392608076334,1.0,0.5943804383277893,0.8899999856948853
853,0.00047570010065101087,1.0,0.5936478972434998,0.8899999856948853
854,0.0002441543620079756,1.0,0.5874711275100708,0.8899999856948853
855,0.00011973145592492074,1.0,0.5867123007774353,0.8899999856948853
856,0.00039296530303545296,1.0,0.5864660143852234,0.8899999856948853
857,0.0002167724014725536,1.0,0.5870587229728699,0.8899999856948853
858,0.0005121412687003613,1.0,0.5908010601997375,0.8899999856948853
859,0.00012599036563187838,1.0,0.5959393978118896,0.8899999856948853
860,0.0001479401544202119,1.0,0.5957818627357483,0.8899999856948853
861,0.00044538575457409024,1.0,0.5956518054008484,0.8899999856948853
862,0.00019133715250063688,1.0,0.5957997441291809,0.8899999856948853
863,0.0002064231812255457,1.0,0.5943015217781067,0.8899999856948853
864,0.0003657536581158638,1.0,0.5953973531723022,0.8899999856948853
865,0.0005610176012851298,1.0,0.5924867987632751,0.8899999856948853
866,0.00024381440016441047,1.0,0.5895946621894836,0.8899999856948853
867,0.00015457627887371927,1.0,0.5919150710105896,0.8899999856948853
868,0.0003398571570869535,1.0,0.596818208694458,0.8899999856948853
869,0.0002897929516620934,1.0,0.6031379103660583,0.8899999856948853
870,0.00015552928380202502,1.0,0.6099258661270142,0.8899999856948853
871,0.00021880160784348845,1.0,0.6052225232124329,0.8899999856948853
872,0.0001333480468019843,1.0,0.604069709777832,0.8899999856948853
873,0.00018392437777947634,1.0,0.6005351543426514,0.8899999856948853
874,9.234419121639803e-05,1.0,0.5992099642753601,0.8899999856948853
875,0.00021139079763088375,1.0,0.598296582698822,0.8899999856948853
876,0.00026466327835805714,1.0,0.5988423824310303,0.8899999856948853
877,9.924077312462032e-05,1.0,0.6021177768707275,0.8899999856948853
878,7.89887344581075e-05,1.0,0.602596640586853,0.8899999856948853
879,0.00015237962361425161,1.0,0.6042672395706177,0.8899999856948853
880,0.00015199024346657097,1.0,0.6120350360870361,0.8899999856948853
881,0.00038135581417009234,1.0,0.6224600076675415,0.8999999761581421
882,0.0003205352695658803,1.0,0.6299482583999634,0.8999999761581421
883,9.159361070487648e-05,1.0,0.622728705406189,0.8999999761581421
884,0.00023195402172859758,1.0,0.6181290149688721,0.8899999856948853
885,0.0001401756308041513,1.0,0.6049520969390869,0.8899999856948853
886,0.00012075975246261805,1.0,0.6010914444923401,0.8899999856948853
887,0.010528603568673134,1.0,0.5294541716575623,0.8299999833106995
888,0.04858784377574921,0.9800000190734863,0.590639591217041,0.8799999952316284
889,0.060336437076330185,0.9800000190734863,0.9039630889892578,0.8500000238418579
890,0.024539342150092125,0.9900000095367432,0.8312745690345764,0.8999999761581421
891,0.006610407959669828,1.0,0.800778865814209,0.8299999833106995
892,0.0025324744638055563,1.0,0.9508758783340454,0.8199999928474426
893,0.006193505600094795,1.0,0.7535459995269775,0.8600000143051147
894,0.002086906461045146,1.0,0.6554962992668152,0.8899999856948853
895,0.0006861293222755194,1.0,0.6125286221504211,0.8999999761581421
896,0.0009192585712298751,1.0,0.5907509326934814,0.8999999761581421
897,0.0019425639184191823,1.0,0.5790881514549255,0.8999999761581421
898,0.0005919445538893342,1.0,0.5696958303451538,0.8999999761581421
899,0.002312507713213563,1.0,0.5526315569877625,0.8999999761581421
900,0.0016573122702538967,1.0,0.5397860407829285,0.8999999761581421
901,0.00344537734054029,1.0,0.5393273830413818,0.8899999856948853
902,0.00127722742035985,1.0,0.5531055331230164,0.8999999761581421
903,0.0004102393286302686,1.0,0.5542386770248413,0.8999999761581421
904,0.0007754498510621488,1.0,0.5490695238113403,0.8999999761581421
905,0.0013943229569122195,1.0,0.5374338626861572,0.8899999856948853
906,0.0005024364800192416,1.0,0.5344892144203186,0.8899999856948853
907,0.0006168200634419918,1.0,0.5316650867462158,0.8799999952316284
908,0.0002922623243648559,1.0,0.5310471653938293,0.8799999952316284
909,0.0007576823118142784,1.0,0.5316102504730225,0.8799999952316284
910,0.0007554820040240884,1.0,0.5321335792541504,0.8799999952316284
911,0.00033503747545182705,1.0,0.5326505303382874,0.8799999952316284
912,0.00028441526228562,1.0,0.5332834720611572,0.8799999952316284
913,0.0004437896714080125,1.0,0.5340116024017334,0.8799999952316284
914,0.00029204224119894207,1.0,0.5345665812492371,0.8799999952316284
915,0.0009111802792176604,1.0,0.535636842250824,0.8799999952316284
916,0.00021246222604531795,1.0,0.5364441275596619,0.8799999952316284
917,0.0002742539218161255,1.0,0.5371090173721313,0.8799999952316284
918,0.0001868194667622447,1.0,0.5375235080718994,0.8799999952316284
919,0.0003221992519684136,1.0,0.5383321642875671,0.8799999952316284
920,0.0002720913616940379,1.0,0.5391627550125122,0.8799999952316284
921,0.0007114695617929101,1.0,0.5405497550964355,0.8799999952316284
922,0.00017446195124648511,1.0,0.5413317084312439,0.8799999952316284
923,0.0013176554348319769,1.0,0.5465438961982727,0.8999999761581421
924,0.00019014747522305697,1.0,0.549688458442688,0.8999999761581421
925,0.0012009493075311184,1.0,0.5480634570121765,0.8999999761581421
926,0.000523790018633008,1.0,0.5497689247131348,0.8999999761581421
927,0.000202663111849688,1.0,0.5490669012069702,0.8999999761581421
928,0.0006517305155284703,1.0,0.5506312847137451,0.8999999761581421
929,0.00025151667068712413,1.0,0.5497498512268066,0.8999999761581421
930,0.0008547162287868559,1.0,0.5465837717056274,0.8999999761581421
931,0.0002833317848853767,1.0,0.5444265604019165,0.8899999856948853
932,0.0009625308448448777,1.0,0.5438379645347595,0.8899999856948853
933,0.0004333038523327559,1.0,0.5432544350624084,0.8899999856948853
934,0.00029787892708554864,1.0,0.5427818894386292,0.8899999856948853
935,0.0013307948829606175,1.0,0.5404151678085327,0.8899999856948853
936,0.0007567012216895819,1.0,0.541361391544342,0.8899999856948853
937,0.0016071228310465813,1.0,0.5442954301834106,0.8899999856948853
938,0.00015600405458826572,1.0,0.5489833354949951,0.8899999856948853
939,0.00024005843442864716,1.0,0.5500836372375488,0.8899999856948853
940,0.00016082845104392618,1.0,0.5507508516311646,0.8899999856948853
941,0.0012155169388279319,1.0,0.5566490888595581,0.8999999761581421
942,0.00034594471799209714,1.0,0.5628758072853088,0.8999999761581421
943,0.0004140639794059098,1.0,0.5642181038856506,0.8999999761581421
944,0.0002250054239993915,1.0,0.56280916929245,0.8999999761581421
945,0.0004092413582839072,1.0,0.5658788084983826,0.8999999761581421
946,0.0022098275367170572,1.0,0.5577003359794617,0.8999999761581421
947,0.0001777455909177661,1.0,0.5509969592094421,0.8899999856948853
948,0.0012719102669507265,1.0,0.5506651401519775,0.8899999856948853
949,0.0006540556205436587,1.0,0.5504009127616882,0.8899999856948853
950,0.005012517794966698,1.0,0.5551170110702515,0.8999999761581421
951,0.0005355156608857214,1.0,0.5739665031433105,0.8999999761581421
952,0.000634174735751003,1.0,0.5782068371772766,0.8999999761581421
953,0.0005954897496849298,1.0,0.5777940154075623,0.8999999761581421
954,0.0003466288326308131,1.0,0.5730386972427368,0.8999999761581421
955,0.0009432235965505242,1.0,0.5731308460235596,0.8999999761581421
956,0.00045549473725259304,1.0,0.5719022154808044,0.8999999761581421
957,0.0003013446112163365,1.0,0.5681419968605042,0.8999999761581421
958,0.0002021231921389699,1.0,0.5627800226211548,0.8999999761581421
959,0.0004478291084524244,1.0,0.558950662612915,0.8999999761581421
960,0.0005114274099469185,1.0,0.5545892715454102,0.8999999761581421
961,0.0014053919585421681,1.0,0.5515726804733276,0.8899999856948853
962,0.00015410123160108924,1.0,0.5498735904693604,0.8899999856948853
963,9.026611223816872e-05,1.0,0.5494208335876465,0.8799999952316284
964,0.0002827996213454753,1.0,0.5493782162666321,0.8799999952316284
965,0.00012090306699974462,1.0,0.5497043132781982,0.8799999952316284
966,0.00043373877997510135,1.0,0.5485825538635254,0.8799999952316284
967,0.00021281733643263578,1.0,0.5485905408859253,0.8799999952316284
968,0.0002409919397905469,1.0,0.5485994219779968,0.8799999952316284
969,0.00010756062692962587,1.0,0.5489110350608826,0.8799999952316284
970,0.0002216007560491562,1.0,0.5495244264602661,0.8799999952316284
971,0.00026653066743165255,1.0,0.5503613948822021,0.8799999952316284
972,0.0003218094352632761,1.0,0.5517523288726807,0.8899999856948853
973,0.0008969907648861408,1.0,0.554282009601593,0.8899999856948853
974,0.00015139617607928813,1.0,0.5595535039901733,0.8999999761581421
975,0.0002613053366076201,1.0,0.5610217452049255,0.8999999761581421
976,0.00023132452042773366,1.0,0.5600794553756714,0.8999999761581421
977,0.00022519346384797245,1.0,0.5596259832382202,0.8999999761581421
978,0.0003048972866963595,1.0,0.5601906776428223,0.8999999761581421
979,0.0002427070285193622,1.0,0.5594935417175293,0.8899999856948853
980,0.0002702564524952322,1.0,0.5587751865386963,0.8899999856948853
981,0.0002786130062304437,1.0,0.5592701435089111,0.8899999856948853
982,0.0003788983158301562,1.0,0.5603788495063782,0.8899999856948853
983,0.0004876375605817884,1.0,0.5624072551727295,0.8899999856948853
984,0.00023424570099450648,1.0,0.5630098581314087,0.8899999856948853
985,0.0010923166992142797,1.0,0.5593270063400269,0.8899999856948853
986,0.00018171074043493718,1.0,0.5548154711723328,0.8899999856948853
987,0.0003450302465353161,1.0,0.554237425327301,0.8899999856948853
988,0.00017884242697618902,1.0,0.5542539954185486,0.8799999952316284
989,0.0002248010569019243,1.0,0.5558723211288452,0.8899999856948853
990,0.00038968410808593035,1.0,0.5582178831100464,0.8899999856948853
991,0.00021539849694818258,1.0,0.559384286403656,0.8899999856948853
992,0.0003002792363986373,1.0,0.5594236254692078,0.8899999856948853
993,0.00043878957512788475,1.0,0.5601081848144531,0.8899999856948853
994,0.0003987896197941154,1.0,0.5602705478668213,0.8899999856948853
995,0.0014208295615389943,1.0,0.5553373694419861,0.8899999856948853
996,0.0001906135439639911,1.0,0.5534692406654358,0.8899999856948853
997,0.00037411056109704077,1.0,0.5548445582389832,0.8899999856948853
998,0.0001754123659338802,1.0,0.5572496056556702,0.8899999856948853
999,0.00011413697939133272,1.0,0.5583052635192871,0.8899999856948853
1000,0.000206948330742307,1.0,0.5605602860450745,0.8899999856948853
1001,9.389014303451404e-05,1.0,0.5620490908622742,0.8899999856948853
1002,0.00019615782366599888,1.0,0.5629099011421204,0.8899999856948853
1003,0.0005638644215650856,1.0,0.5637241005897522,0.8899999856948853
1004,0.00014077984087634832,1.0,0.5677703619003296,0.8999999761581421
1005,0.0007258467958308756,1.0,0.5725629925727844,0.8999999761581421
1006,0.0002878001250792295,1.0,0.574605405330658,0.8999999761581421
1007,0.0001375026477035135,1.0,0.572904646396637,0.8899999856948853
1008,0.00014827607083134353,1.0,0.5723404884338379,0.8899999856948853
1009,0.00026339798932895064,1.0,0.5743339657783508,0.8999999761581421
1010,0.0005357342306524515,1.0,0.5806136131286621,0.8999999761581421
1011,0.00011104391887784004,1.0,0.581322193145752,0.8999999761581421
1012,0.00026088859885931015,1.0,0.5803161263465881,0.8999999761581421
1013,0.00023173655790742487,1.0,0.5793916583061218,0.8999999761581421
1014,0.003759982530027628,1.0,0.6715325713157654,0.8899999856948853
1015,0.00037205382250249386,1.0,0.7683771252632141,0.8600000143051147
1016,0.00039858592208474874,1.0,0.7658511400222778,0.8600000143051147
1017,0.014426139183342457,0.9900000095367432,0.551189124584198,0.8700000047683716
1018,0.001749076065607369,1.0,1.0343081951141357,0.7599999904632568
1019,0.013235360383987427,1.0,0.5592820048332214,0.8899999856948853
1020,0.0007142378599382937,1.0,0.5926517248153687,0.8999999761581421
1021,0.0039694784209132195,1.0,0.6119033694267273,0.8899999856948853
1022,0.0010348729556426406,1.0,0.6305562853813171,0.8899999856948853
1023,0.00039533566450700164,1.0,0.6229754090309143,0.8899999856948853
1024,0.0005055274232290685,1.0,0.6117181181907654,0.8999999761581421
1025,0.000608219183050096,1.0,0.6016635894775391,0.8999999761581421
1026,0.00030626918305642903,1.0,0.5907778739929199,0.8999999761581421
1027,0.0003149129915982485,1.0,0.5803846120834351,0.8999999761581421
1028,0.0011494727805256844,1.0,0.5678093433380127,0.8899999856948853
1029,0.000262220564763993,1.0,0.5621769428253174,0.8999999761581421
1030,0.00044808254460804164,1.0,0.5594574809074402,0.8999999761581421
1031,0.00042143234168179333,1.0,0.5581912398338318,0.8999999761581421
1032,0.0006136961164884269,1.0,0.5578882098197937,0.8999999761581421
1033,0.00044742017053067684,1.0,0.5572918653488159,0.8999999761581421
1034,0.00040607841219753027,1.0,0.556657075881958,0.8999999761581421
1035,0.00042724073864519596,1.0,0.5542108416557312,0.8899999856948853
1036,0.00034342636354267597,1.0,0.5524926781654358,0.8899999856948853
1037,0.00042440235847607255,1.0,0.551779568195343,0.8899999856948853
1038,0.0007768715731799603,1.0,0.5502178072929382,0.8899999856948853
1039,9.97721217572689e-05,1.0,0.5500185489654541,0.8999999761581421
1040,0.0003179475315846503,1.0,0.5502669215202332,0.8999999761581421
1041,0.0004077650373801589,1.0,0.5508705973625183,0.8999999761581421
1042,0.0001341407187283039,1.0,0.5508930683135986,0.8999999761581421
1043,0.0002724177611526102,1.0,0.5516082644462585,0.8999999761581421
1044,0.0008967258036136627,1.0,0.5510002970695496,0.8999999761581421
1045,0.0004908309201709926,1.0,0.550901472568512,0.8999999761581421
1046,8.836308552417904e-05,1.0,0.5508659482002258,0.8999999761581421
1047,0.00019457831513136625,1.0,0.5514864921569824,0.8999999761581421
1048,0.000341148697771132,1.0,0.5528057217597961,0.8999999761581421
1049,0.00043606184772215784,1.0,0.5529913306236267,0.8999999761581421
1050,0.0006168783875182271,1.0,0.5545928478240967,0.8999999761581421
1051,0.0003138702013529837,1.0,0.5561019778251648,0.8899999856948853
1052,0.0010671296622604132,1.0,0.5612253546714783,0.8999999761581421
1053,0.00045857872464694083,1.0,0.5673027634620667,0.8999999761581421
1054,0.000510337995365262,1.0,0.5673414468765259,0.8999999761581421
1055,0.0005302830832079053,1.0,0.5664530396461487,0.8999999761581421
1056,0.00036353408358991146,1.0,0.565666675567627,0.8999999761581421
1057,0.0001742478780215606,1.0,0.5646109580993652,0.8999999761581421
1058,0.00030567756039090455,1.0,0.5632355213165283,0.8899999856948853
1059,0.0026704571209847927,1.0,0.5594617128372192,0.8899999856948853
1060,0.00038375877193175256,1.0,0.5552729964256287,0.8899999856948853
1061,0.0002689085085876286,1.0,0.5560943484306335,0.8899999856948853
1062,0.00019358968711458147,1.0,0.5551934242248535,0.8899999856948853
1063,0.0002288618852617219,1.0,0.5533161759376526,0.8899999856948853
1064,0.0003402087895665318,1.0,0.5519906878471375,0.8899999856948853
1065,0.003172356402501464,1.0,0.5506426692008972,0.8899999856948853
1066,0.000451459432952106,1.0,0.6129821538925171,0.8799999952316284
1067,0.0004557864449452609,1.0,0.6402039527893066,0.8799999952316284
1068,0.0016790356021374464,1.0,0.6134513020515442,0.8899999856948853
1069,0.0006551772239618003,1.0,0.6005544066429138,0.8899999856948853
1070,0.00043648923747241497,1.0,0.5897985696792603,0.8999999761581421
1071,0.0001481591461924836,1.0,0.5801740288734436,0.8999999761581421
1072,0.0010844817152246833,1.0,0.5671809315681458,0.8999999761581421
1073,0.00038870773278176785,1.0,0.5627541542053223,0.8999999761581421
1074,0.0026323997881263494,1.0,0.5619556903839111,0.8999999761581421
1075,0.00020222351304255426,1.0,0.563071608543396,0.8999999761581421
1076,0.0002750956919044256,1.0,0.5625888109207153,0.8899999856948853
1077,0.0007825432694517076,1.0,0.558849036693573,0.8899999856948853
1078,0.0013736019609495997,1.0,0.561046302318573,0.8999999761581421
1079,0.0001924304524436593,1.0,0.5585829019546509,0.8999999761581421
1080,0.0004255780659150332,1.0,0.5540830492973328,0.8999999761581421
1081,0.0003704274131450802,1.0,0.5475050210952759,0.8999999761581421
1082,0.00013417450827546418,1.0,0.5424396991729736,0.8999999761581421
1083,0.00016250037879217416,1.0,0.5399377346038818,0.8999999761581421
1084,0.0004802822950296104,1.0,0.5379482507705688,0.8999999761581421
1085,0.0001626383891562,1.0,0.5372422337532043,0.8999999761581421
1086,0.00015164760407060385,1.0,0.5362185835838318,0.8999999761581421
1087,0.00013083381054457277,1.0,0.5359833240509033,0.8999999761581421
1088,0.00010301425209036097,1.0,0.5362090468406677,0.8999999761581421
1089,0.00021078537974972278,1.0,0.5358148217201233,0.8999999761581421
1090,0.00046069349627941847,1.0,0.5363138318061829,0.8899999856948853
1091,0.0002922604908235371,1.0,0.5373958945274353,0.8899999856948853
1092,0.0002498962276149541,1.0,0.5390060544013977,0.8899999856948853
1093,0.00021446125174406916,1.0,0.5410947203636169,0.8899999856948853
1094,0.00033737369813025,1.0,0.5422660112380981,0.8999999761581421
1095,0.00025384037871845067,1.0,0.543136715888977,0.8999999761581421
1096,0.00024656992172822356,1.0,0.5433775186538696,0.8999999761581421
1097,0.00013433369167614728,1.0,0.542948305606842,0.8999999761581421
1098,0.00038824763032607734,1.0,0.5429505705833435,0.8999999761581421
1099,0.00015125876234378666,1.0,0.5409836173057556,0.8999999761581421
1100,8.927908493205905e-05,1.0,0.5408886075019836,0.8999999761581421
1101,0.00011227019422221929,1.0,0.5414563417434692,0.8999999761581421
1102,0.00023130152840167284,1.0,0.542611300945282,0.8999999761581421
1103,0.0005113825318403542,1.0,0.5462584495544434,0.8899999856948853
1104,0.00018777657533064485,1.0,0.5499867796897888,0.8899999856948853
1105,0.0016330755315721035,1.0,0.5674263834953308,0.8999999761581421
1106,0.00016754260286688805,1.0,0.5761706829071045,0.8999999761581421
1107,0.00026403876836411655,1.0,0.5777604579925537,0.8899999856948853
1108,0.00018018369155470282,1.0,0.5739827752113342,0.8899999856948853
1109,0.00030791363678872585,1.0,0.5721179842948914,0.8899999856948853
1110,0.0002252309932373464,1.0,0.5708218216896057,0.8899999856948853
1111,0.00014165091852191836,1.0,0.5702294707298279,0.8899999856948853
1112,0.00014473774353973567,1.0,0.5697238445281982,0.8899999856948853
1113,0.00012163322389824316,1.0,0.569350004196167,0.8899999856948853
1114,0.00024774527992121875,1.0,0.569694995880127,0.8899999856948853
1115,0.00022122082009445876,1.0,0.5692949891090393,0.8899999856948853
1116,0.00038224420859478414,1.0,0.569206178188324,0.8899999856948853
1117,0.00013761217996943742,1.0,0.5689230561256409,0.8899999856948853
1118,0.00036111153895035386,1.0,0.569055438041687,0.8899999856948853
1119,6.439877324737608e-05,1.0,0.5693625807762146,0.8899999856948853
1120,0.00014076236402615905,1.0,0.5691769123077393,0.8899999856948853
1121,4.6307406591949984e-05,1.0,0.5688956379890442,0.8899999856948853
1122,6.982212653383613e-05,1.0,0.5684934258460999,0.8899999856948853
1123,0.00012937602878082544,1.0,0.5685939788818359,0.8899999856948853
1124,0.0004442160134203732,1.0,0.5671091675758362,0.8899999856948853
1125,0.0003709133015945554,1.0,0.5653631687164307,0.8899999856948853
1126,0.00018705455295275897,1.0,0.5634447336196899,0.8899999856948853
1127,0.00015961511235218495,1.0,0.5635972619056702,0.8899999856948853
1128,6.426285108318552e-05,1.0,0.5639235377311707,0.8899999856948853
1129,0.0006030949298292398,1.0,0.5644487142562866,0.8899999856948853
1130,0.0002357903722440824,1.0,0.5643892884254456,0.8899999856948853
1131,0.00029343704227358103,1.0,0.5649597644805908,0.8899999856948853
1132,0.0006351258489303291,1.0,0.5673034191131592,0.8899999856948853
1133,0.00022637199435848743,1.0,0.5684402585029602,0.8899999856948853
1134,8.890502067515627e-05,1.0,0.5691686868667603,0.8899999856948853
1135,0.00024309729633387178,1.0,0.5698571801185608,0.8899999856948853
1136,5.732159115723334e-05,1.0,0.5699023604393005,0.8899999856948853
1137,0.00015768031880725175,1.0,0.5697047114372253,0.8899999856948853
1138,8.053288183873519e-05,1.0,0.5685527324676514,0.8899999856948853
1139,0.00030024535953998566,1.0,0.5687822699546814,0.8899999856948853
1140,0.00026748585514724255,1.0,0.5706662535667419,0.8899999856948853
1141,0.00018596068548504263,1.0,0.5738368034362793,0.8899999856948853
1142,0.0001605618599569425,1.0,0.5748848915100098,0.8899999856948853
1143,0.0001294729154324159,1.0,0.5742837190628052,0.8899999856948853
1144,0.0007132890750654042,1.0,0.5792025923728943,0.8999999761581421
1145,0.00017156718240585178,1.0,0.5824106335639954,0.8999999761581421
1146,4.839575558435172e-05,1.0,0.5834969878196716,0.8999999761581421
1147,7.449815166182816e-05,1.0,0.5836133360862732,0.8999999761581421
1148,0.00010120019578607753,1.0,0.583206832408905,0.8999999761581421
1149,0.00016466010129079223,1.0,0.5824942588806152,0.8899999856948853
1150,0.00020049427985213697,1.0,0.5832165479660034,0.8999999761581421
1151,5.666586002917029e-05,1.0,0.5820014476776123,0.8899999856948853
1152,9.213387966156006e-05,1.0,0.5807859897613525,0.8899999856948853
1153,8.897975931176916e-05,1.0,0.5794070363044739,0.8899999856948853
1154,8.495494694216177e-05,1.0,0.5793271064758301,0.8899999856948853
1155,0.000122391342301853,1.0,0.5791146755218506,0.8899999856948853
1156,0.00044845842057839036,1.0,0.5891181826591492,0.8999999761581421
1157,0.00011919215467059985,1.0,0.5922207832336426,0.8999999761581421
1158,7.696851389482617e-05,1.0,0.591574490070343,0.8999999761581421
1159,0.0003012182132806629,1.0,0.5904408097267151,0.8999999761581421
1160,0.0004552325699478388,1.0,0.5921916365623474,0.8999999761581421
1161,0.00018753419863060117,1.0,0.5914380550384521,0.8999999761581421
1162,5.655909262713976e-05,1.0,0.5898871421813965,0.8999999761581421
1163,0.00035678737913258374,1.0,0.5892019867897034,0.8999999761581421
1164,9.414678788743913e-05,1.0,0.5869869589805603,0.8999999761581421
1165,0.0002488378086127341,1.0,0.5852049589157104,0.8999999761581421
1166,0.0002118272677762434,1.0,0.5853263735771179,0.8999999761581421
1167,0.0006589099066331983,1.0,0.5788666009902954,0.8899999856948853
1168,0.00015680618525948375,1.0,0.5754534006118774,0.8899999856948853
1169,0.0005491019692271948,1.0,0.5717881917953491,0.8899999856948853
1170,0.00019659333338495344,1.0,0.5718977451324463,0.8899999856948853
1171,0.0001961368543561548,1.0,0.5719770193099976,0.8899999856948853
1172,0.0004649094771593809,1.0,0.5782092213630676,0.8899999856948853
1173,0.000896985235158354,1.0,0.58164381980896,0.8899999856948853
1174,0.00017756503075361252,1.0,0.5839254260063171,0.8899999856948853
1175,5.491178308147937e-05,1.0,0.5866040587425232,0.8899999856948853
1176,0.00027849702746607363,1.0,0.5906224250793457,0.8899999856948853
1177,0.0006573428399860859,1.0,0.6001661419868469,0.8899999856948853
1178,8.923497807700187e-05,1.0,0.6035083532333374,0.8899999856948853
1179,0.00042443088022992015,1.0,0.6055160760879517,0.8999999761581421
1180,0.00019607014837674797,1.0,0.6051096320152283,0.8999999761581421
1181,0.0003053974360227585,1.0,0.6146819591522217,0.8999999761581421
1182,0.00015136880392674357,1.0,0.6158860921859741,0.8999999761581421
1183,0.00022304656158667058,1.0,0.6134035587310791,0.8999999761581421
1184,0.00012316182255744934,1.0,0.6078213453292847,0.8999999761581421
1185,0.00011118661495856941,1.0,0.6038305759429932,0.8999999761581421
1186,5.427282303571701e-05,1.0,0.6009758114814758,0.8999999761581421
1187,0.0001624111318960786,1.0,0.5989034175872803,0.8899999856948853
1188,0.0001557485811645165,1.0,0.5970319509506226,0.8899999856948853
1189,0.0004306113987695426,1.0,0.5955982804298401,0.8899999856948853
1190,0.00021092181850690395,1.0,0.5980369448661804,0.8899999856948853
1191,0.00020434432371985167,1.0,0.5993791818618774,0.8899999856948853
1192,0.0003129487740807235,1.0,0.5973008871078491,0.8899999856948853
1193,0.0002473152126185596,1.0,0.5935092568397522,0.8899999856948853
1194,4.486462057684548e-05,1.0,0.5900174975395203,0.8899999856948853
1195,6.174737791297957e-05,1.0,0.5886515974998474,0.8899999856948853
1196,0.00016380731540266424,1.0,0.5885724425315857,0.8899999856948853
1197,0.0003197721380274743,1.0,0.5906130075454712,0.8899999856948853
1198,0.00010416712757432833,1.0,0.5922939777374268,0.8899999856948853
1199,5.221735773375258e-05,1.0,0.5927963256835938,0.8899999856948853
1200,0.0002804423274938017,1.0,0.5947256088256836,0.8899999856948853
1201,0.00015692104352638125,1.0,0.594517707824707,0.8899999856948853
1202,0.00010756362462416291,1.0,0.5957984328269958,0.8899999856948853
1203,9.019723074743524e-05,1.0,0.5967440009117126,0.8899999856948853
1204,0.00019358446297701448,1.0,0.5979360342025757,0.8899999856948853
1205,0.0006640946376137435,1.0,0.5928727984428406,0.8899999856948853
1206,7.359834125963971e-05,1.0,0.5917157530784607,0.8899999856948853
1207,7.608808664372191e-05,1.0,0.5911834239959717,0.8899999856948853
1208,0.0002764963428489864,1.0,0.5936129093170166,0.8899999856948853
1209,0.00032160160480998456,1.0,0.6084612011909485,0.8999999761581421
1210,0.00011210385855520144,1.0,0.6128059029579163,0.8999999761581421
1211,0.00011743085633497685,1.0,0.6125389337539673,0.8999999761581421
1212,0.00020905217388644814,1.0,0.6090977191925049,0.8999999761581421
1213,0.00013939212658442557,1.0,0.6017071604728699,0.8899999856948853
1214,5.847413922310807e-05,1.0,0.5991630554199219,0.8899999856948853
1215,0.00020701283938251436,1.0,0.5999122262001038,0.8899999856948853
1216,0.00012903104652650654,1.0,0.6002264618873596,0.8899999856948853
1217,8.638425060780719e-05,1.0,0.6002262830734253,0.8899999856948853
1218,0.00018615998851601034,1.0,0.601274847984314,0.8899999856948853
1219,0.0005836403579451144,1.0,0.6046589016914368,0.8899999856948853
1220,0.0005030356114730239,1.0,0.6131453514099121,0.8899999856948853
1221,6.256836059037596e-05,1.0,0.6243056654930115,0.8999999761581421
1222,0.0003860867000184953,1.0,0.6205890774726868,0.8999999761581421
1223,4.2174706322839484e-05,1.0,0.6032215356826782,0.8899999856948853
1224,0.0002100172423524782,1.0,0.5976045727729797,0.8899999856948853
1225,0.00012907340715173632,1.0,0.593625009059906,0.8899999856948853
1226,9.761078399606049e-05,1.0,0.5906157493591309,0.8899999856948853
1227,5.964298907201737e-05,1.0,0.5898193717002869,0.8899999856948853
1228,9.501661406829953e-05,1.0,0.5883005261421204,0.8899999856948853
1229,0.00011475812789285555,1.0,0.5875229835510254,0.8899999856948853
1230,0.00026863033417612314,1.0,0.5873873233795166,0.8899999856948853
1231,0.00011205243936274201,1.0,0.5924142599105835,0.8899999856948853
1232,0.00015838466060813516,1.0,0.5952506065368652,0.8899999856948853
1233,0.0001414869329892099,1.0,0.5981096625328064,0.8899999856948853
1234,8.8169050286524e-05,1.0,0.6021654009819031,0.8899999856948853
1235,0.0010271930368617177,1.0,0.5967711806297302,0.8899999856948853
1236,0.00016986233822535723,1.0,0.587612509727478,0.8899999856948853
1237,0.0001754799159243703,1.0,0.5863744616508484,0.8899999856948853
1238,7.636255759280175e-05,1.0,0.5882831811904907,0.8899999856948853
1239,0.000530977442394942,1.0,0.595967710018158,0.8899999856948853
1240,0.00010380523599451408,1.0,0.6073543429374695,0.8899999856948853
1241,0.00010032619320554659,1.0,0.6119869351387024,0.8899999856948853
1242,7.776752318022773e-05,1.0,0.6135645508766174,0.8999999761581421
1243,0.0001109935183194466,1.0,0.6142023205757141,0.8899999856948853
1244,5.6879627663875e-05,1.0,0.6132376194000244,0.8899999856948853
1245,0.00040007903589867055,1.0,0.6232014894485474,0.8999999761581421
1246,0.00018281099619343877,1.0,0.6340067386627197,0.8899999856948853
1247,8.560590504202992e-05,1.0,0.6318681836128235,0.8999999761581421
1248,8.531476487405598e-05,1.0,0.6226796507835388,0.8999999761581421
1249,0.00014287998783402145,1.0,0.6150326728820801,0.8999999761581421
1250,0.00014307086530607194,1.0,0.6105259656906128,0.8999999761581421
1251,0.0003625193203333765,1.0,0.608970582485199,0.8999999761581421
1252,7.678433030378073e-05,1.0,0.6092178821563721,0.8899999856948853
1253,0.00010008794197347015,1.0,0.6084387898445129,0.8899999856948853
1254,4.55133049399592e-05,1.0,0.6071428060531616,0.8899999856948853
1255,0.0001306783378822729,1.0,0.6070845127105713,0.8899999856948853
1256,0.00018408356118015945,1.0,0.6100713014602661,0.8899999856948853
1257,0.00021871505305171013,1.0,0.6132766008377075,0.8899999856948853
1258,0.0002510019112378359,1.0,0.6145862340927124,0.8899999856948853
1259,4.280508073861711e-05,1.0,0.6142455339431763,0.8899999856948853
1260,0.0008277805172838271,1.0,0.6342095136642456,0.8999999761581421
1261,5.808684363728389e-05,1.0,0.6366825699806213,0.8999999761581421
1262,0.000352884380845353,1.0,0.6277204751968384,0.8999999761581421
1263,0.0001994398917304352,1.0,0.624365508556366,0.8999999761581421
1264,6.858741835458204e-05,1.0,0.6222356557846069,0.8999999761581421
1265,3.432412995607592e-05,1.0,0.6195171475410461,0.8999999761581421
1266,0.00018479108985047787,1.0,0.61655592918396,0.8999999761581421
1267,0.0001784367923391983,1.0,0.612244725227356,0.8899999856948853
1268,0.00023008056450635195,1.0,0.6165518164634705,0.8999999761581421
1269,3.96636278310325e-05,1.0,0.6175838708877563,0.8999999761581421
1270,4.113196337129921e-05,1.0,0.6174043416976929,0.8899999856948853
1271,0.0003412510559428483,1.0,0.6165815591812134,0.8899999856948853
1272,0.00011215489939786494,1.0,0.6161050796508789,0.8899999856948853
1273,7.987809658516198e-05,1.0,0.616941511631012,0.8899999856948853
1274,6.469742220360786e-05,1.0,0.6171286702156067,0.8899999856948853
1275,0.00015653665468562394,1.0,0.6179769039154053,0.8899999856948853
1276,0.00027732146554626524,1.0,0.6151808500289917,0.8899999856948853
1277,4.147291474509984e-05,1.0,0.6050086617469788,0.8899999856948853
1278,6.687101267743856e-05,1.0,0.603114902973175,0.8899999856948853
1279,4.98076478834264e-05,1.0,0.6038190722465515,0.8899999856948853
1280,5.887891529710032e-05,1.0,0.6048939228057861,0.8899999856948853
1281,7.67263991292566e-05,1.0,0.6062619090080261,0.8899999856948853
1282,7.122407987480983e-05,1.0,0.6087509989738464,0.8899999856948853
1283,8.907049050321802e-05,1.0,0.6097562909126282,0.8899999856948853
1284,0.0009437815751880407,1.0,0.6170369982719421,0.8999999761581421
1285,0.00024700092035345733,1.0,0.6183124780654907,0.8999999761581421
1286,8.902929403120652e-05,1.0,0.6102187037467957,0.8999999761581421
1287,0.00024370322353206575,1.0,0.6082845330238342,0.8999999761581421
1288,5.0443759391782805e-05,1.0,0.6088278293609619,0.8899999856948853
1289,0.0001832777779782191,1.0,0.6094033122062683,0.8899999856948853
1290,0.00017416884656995535,1.0,0.6093401908874512,0.8899999856948853
1291,0.00010337147978134453,1.0,0.6088364124298096,0.8899999856948853
1292,0.0002545038005337119,1.0,0.6188385486602783,0.8999999761581421
1293,0.00011676509893732145,1.0,0.6258093118667603,0.8999999761581421
1294,7.048708357615396e-05,1.0,0.6260157227516174,0.8999999761581421
1295,0.00014800918870605528,1.0,0.6223964095115662,0.8999999761581421
1296,0.00011055726645281538,1.0,0.6206803917884827,0.8999999761581421
1297,0.00015267982962541282,1.0,0.6244863271713257,0.8999999761581421
1298,4.989129593013786e-05,1.0,0.6241570115089417,0.8999999761581421
1299,0.0003822673170361668,1.0,0.6332908868789673,0.8999999761581421
1300,0.00014802363875787705,1.0,0.6389387249946594,0.8999999761581421
1301,0.00011935666407225654,1.0,0.6319105625152588,0.8999999761581421
1302,6.98581279721111e-05,1.0,0.6249654293060303,0.8999999761581421
1303,9.422041330253705e-05,1.0,0.6224466562271118,0.8999999761581421
1304,0.00029990592156536877,1.0,0.6239746809005737,0.8999999761581421
1305,0.00012198893091408536,1.0,0.629228413105011,0.8999999761581421
1306,5.877349030924961e-05,1.0,0.6260668635368347,0.8999999761581421
1307,0.00017447357822675258,1.0,0.6230863332748413,0.8899999856948853
1308,9.037835843628272e-05,1.0,0.6232996582984924,0.8899999856948853
1309,0.00048734218580648303,1.0,0.6288298964500427,0.8899999856948853
1310,0.00011212191748199984,1.0,0.6314199566841125,0.8899999856948853
1311,0.0017301109619438648,1.0,0.5933235287666321,0.8999999761581421
1312,0.00017126312013715506,1.0,0.5690531730651855,0.8999999761581421
1313,0.0002760459028650075,1.0,0.5505542755126953,0.8999999761581421
1314,0.0004834056890103966,1.0,0.5515695214271545,0.8999999761581421
1315,7.440529589075595e-05,1.0,0.5570656657218933,0.8899999856948853
1316,0.00015837166574783623,1.0,0.5661816596984863,0.8899999856948853
1317,0.00010340109292883426,1.0,0.5719584822654724,0.8899999856948853
1318,0.00010019414185080677,1.0,0.57696533203125,0.8899999856948853
1319,0.00023827533004805446,1.0,0.5826650261878967,0.8899999856948853
1320,0.0002920549304690212,1.0,0.5909043550491333,0.8899999856948853
1321,5.0384431233396754e-05,1.0,0.5963523983955383,0.8899999856948853
1322,3.866303086397238e-05,1.0,0.5999812483787537,0.8899999856948853
1323,6.631897122133523e-05,1.0,0.603586733341217,0.8899999856948853
1324,4.6346620365511626e-05,1.0,0.6070363521575928,0.8899999856948853
1325,2.970721288875211e-05,1.0,0.6083990335464478,0.8899999856948853
1326,5.293200592859648e-05,1.0,0.6099803447723389,0.8899999856948853
1327,0.0001400023902533576,1.0,0.6122878789901733,0.8899999856948853
1328,0.00027632442652247846,1.0,0.6259423494338989,0.8999999761581421
1329,5.2534676797222346e-05,1.0,0.6365616321563721,0.8999999761581421
1330,0.00013498475891537964,1.0,0.6406310796737671,0.8999999761581421
1331,0.00011340284981997684,1.0,0.641776978969574,0.8999999761581421
1332,0.00037467959919013083,1.0,0.6463506817817688,0.8999999761581421
1333,7.089330756571144e-05,1.0,0.6463746428489685,0.8999999761581421
1334,3.7912108382442966e-05,1.0,0.6430768370628357,0.8999999761581421
1335,7.263121369760484e-05,1.0,0.6379866003990173,0.8999999761581421
1336,8.208287181332707e-05,1.0,0.6353016495704651,0.8999999761581421
1337,9.767098526936024e-05,1.0,0.6359646320343018,0.8999999761581421
1338,5.1815459300996736e-05,1.0,0.6353349089622498,0.8999999761581421
1339,0.0004355116980150342,1.0,0.6293069124221802,0.8999999761581421
1340,3.3723517844919115e-05,1.0,0.6142501831054688,0.8899999856948853
1341,6.308771844487637e-05,1.0,0.611870288848877,0.8899999856948853
1342,0.00019281895947642624,1.0,0.6201222538948059,0.8899999856948853
1343,0.00024379388196393847,1.0,0.6303423047065735,0.8999999761581421
1344,9.541829786030576e-05,1.0,0.6356320381164551,0.8999999761581421
1345,6.854619277874008e-05,1.0,0.6356527209281921,0.8999999761581421
1346,0.000255134713370353,1.0,0.6403977870941162,0.8999999761581421
1347,0.0016123083187267184,1.0,0.7430359125137329,0.8799999952316284
1348,0.0009079817100428045,1.0,0.7756239175796509,0.8700000047683716
1349,0.000264717178652063,1.0,0.726112425327301,0.8899999856948853
1350,0.0010788453510031104,1.0,0.6777981519699097,0.8899999856948853
1351,9.823541040532291e-05,1.0,0.6222466826438904,0.8999999761581421
1352,9.193013102049008e-05,1.0,0.609682559967041,0.8999999761581421
1353,0.0001860887132352218,1.0,0.6058773994445801,0.8999999761581421
1354,9.682183736003935e-05,1.0,0.6058335304260254,0.8999999761581421
1355,9.948036313289776e-05,1.0,0.6069251894950867,0.8999999761581421
1356,4.130034358240664e-05,1.0,0.6073924899101257,0.8999999761581421
1357,9.90943080978468e-05,1.0,0.6076476573944092,0.8999999761581421
1358,6.419295095838606e-05,1.0,0.6079214215278625,0.8999999761581421
1359,8.920738764572889e-05,1.0,0.6067676544189453,0.8999999761581421
1360,0.0001319779985351488,1.0,0.6062372326850891,0.8999999761581421
1361,6.976618169574067e-05,1.0,0.607227087020874,0.8999999761581421
1362,5.9006841183872893e-05,1.0,0.6073825359344482,0.8999999761581421
1363,2.3411588699673302e-05,1.0,0.6080586910247803,0.8999999761581421
1364,0.00010351181117584929,1.0,0.60996413230896,0.8999999761581421
1365,5.5957203585421667e-05,1.0,0.6130193471908569,0.8899999856948853
1366,9.380340634379536e-05,1.0,0.6146398186683655,0.8899999856948853
1367,2.7882200811291113e-05,1.0,0.6153783798217773,0.8899999856948853
1368,5.837613207404502e-05,1.0,0.6174054145812988,0.8899999856948853
1369,5.997697007842362e-05,1.0,0.6182497143745422,0.8899999856948853
1370,0.00017964962171390653,1.0,0.6236356496810913,0.8899999856948853
1371,7.627608283655718e-05,1.0,0.6275126934051514,0.8899999856948853
1372,0.0001853824796853587,1.0,0.6450484991073608,0.8999999761581421
1373,0.00018143263878300786,1.0,0.6562114953994751,0.8899999856948853
1374,0.00020824972307309508,1.0,0.6628723740577698,0.8899999856948853
1375,0.0001506818225607276,1.0,0.6696439981460571,0.8899999856948853
1376,3.60830599674955e-05,1.0,0.665905773639679,0.8899999856948853
1377,0.0028534531593322754,1.0,0.8265613317489624,0.8500000238418579
1378,0.0005250649410299957,1.0,5.63304328918457,0.3700000047683716
1379,0.003195118624716997,1.0,0.6393223404884338,0.8799999952316284
1380,0.005657424218952656,1.0,1.9601244926452637,0.75
1381,0.005661895498633385,1.0,1.9244118928909302,0.7699999809265137
1382,0.0018871797947213054,1.0,1.2353094816207886,0.8299999833106995
1383,0.0002939081168733537,1.0,0.7285496592521667,0.8899999856948853
1384,0.00036392256151884794,1.0,0.6788794994354248,0.8899999856948853
1385,0.0012404762674123049,1.0,0.6491496562957764,0.8899999856948853
1386,0.0001927741977851838,1.0,0.6361754536628723,0.8899999856948853
1387,0.0003122753114439547,1.0,0.6245973110198975,0.8899999856948853
1388,0.00011273629934294149,1.0,0.6119632720947266,0.8899999856948853
1389,0.00016407822840847075,1.0,0.6075485944747925,0.8899999856948853
1390,0.00012034105020575225,1.0,0.6020591259002686,0.8899999856948853
1391,0.00013976429181639105,1.0,0.5974320769309998,0.8899999856948853
1392,0.00030010228510946035,1.0,0.5952982902526855,0.8899999856948853
1393,0.000255561521044001,1.0,0.5913335680961609,0.8899999856948853
1394,6.455742550315335e-05,1.0,0.5831513404846191,0.8899999856948853
1395,0.0005987746408209205,1.0,0.5826915502548218,0.8899999856948853
1396,5.438509469968267e-05,1.0,0.5965411067008972,0.8899999856948853
1397,0.0001678728440310806,1.0,0.59930819272995,0.8999999761581421
1398,0.00013238214887678623,1.0,0.600033700466156,0.8999999761581421
1399,0.0004364357446320355,1.0,0.5918546915054321,0.8899999856948853
1400,0.0003758116508834064,1.0,0.583787202835083,0.8899999856948853
1401,9.569405665388331e-05,1.0,0.5831435918807983,0.8899999856948853
1402,0.00044372357660904527,1.0,0.5821794271469116,0.8899999856948853
1403,8.835479820845649e-05,1.0,0.5806187987327576,0.8899999856948853
1404,0.00013604701962321997,1.0,0.5779731273651123,0.8899999856948853
1405,0.00032126010046340525,1.0,0.577094554901123,0.8899999856948853
1406,0.0001260940043721348,1.0,0.579950749874115,0.8899999856948853
1407,0.00030818479717709124,1.0,0.5868871808052063,0.8899999856948853
1408,0.00018287384591531008,1.0,0.5874409079551697,0.8899999856948853
1409,7.650732004549354e-05,1.0,0.5888540744781494,0.8899999856948853
1410,8.153131057042629e-05,1.0,0.5905333161354065,0.8899999856948853
1411,0.00039800815284252167,1.0,0.5865796804428101,0.8899999856948853
1412,7.443350477842614e-05,1.0,0.5732879638671875,0.8999999761581421
1413,6.753364141331986e-05,1.0,0.5703199505805969,0.8999999761581421
1414,6.30980939604342e-05,1.0,0.5705046057701111,0.8999999761581421
1415,3.426053444854915e-05,1.0,0.5715356469154358,0.8999999761581421
1416,9.448313358006999e-05,1.0,0.5747758746147156,0.8999999761581421
1417,0.0005882097175344825,1.0,0.5976973176002502,0.8999999761581421
1418,0.00010695035598473623,1.0,0.6185621023178101,0.8899999856948853
1419,9.316995419794694e-05,1.0,0.6221721172332764,0.8899999856948853
1420,0.00021374625794123858,1.0,0.6261855363845825,0.8999999761581421
1421,4.85180426039733e-05,1.0,0.6241578459739685,0.8999999761581421
1422,0.00014350946003105491,1.0,0.6259558200836182,0.8999999761581421
1423,0.0001338390284217894,1.0,0.6282978653907776,0.8999999761581421
1424,0.00013463562936522067,1.0,0.6281908750534058,0.8999999761581421
1425,1.9449371393420734e-05,1.0,0.6262900829315186,0.8999999761581421
1426,0.00015084574988577515,1.0,0.6237708926200867,0.8999999761581421
1427,0.00018344513955526054,1.0,0.6201924085617065,0.8999999761581421
1428,0.00037180486833676696,1.0,0.6164548993110657,0.8899999856948853
1429,3.706105417222716e-05,1.0,0.6116399765014648,0.8899999856948853
1430,0.00019612483447417617,1.0,0.6104484796524048,0.8899999856948853
1431,0.00012219249038025737,1.0,0.6137049198150635,0.8899999856948853
1432,0.00030774367041885853,1.0,0.636372447013855,0.8999999761581421
1433,5.274997965898365e-05,1.0,0.6525246500968933,0.8899999856948853
1434,3.0512641387758777e-05,1.0,0.6542421579360962,0.8899999856948853
1435,5.656776193063706e-05,1.0,0.6474571228027344,0.8899999856948853
1436,4.341199019108899e-05,1.0,0.6419674754142761,0.8899999856948853
1437,9.972308180294931e-05,1.0,0.6363293528556824,0.8999999761581421
1438,4.7617173549951985e-05,1.0,0.6328061819076538,0.8999999761581421
1439,5.06271499034483e-05,1.0,0.6301634907722473,0.8999999761581421
1440,3.779580947593786e-05,1.0,0.627687394618988,0.8899999856948853
1441,8.781090582488105e-05,1.0,0.6252376437187195,0.8899999856948853
1442,8.796309703029692e-05,1.0,0.6216476559638977,0.8899999856948853
1443,9.312293695984408e-05,1.0,0.6221746206283569,0.8899999856948853
1444,3.791891867876984e-05,1.0,0.6249421238899231,0.8899999856948853
1445,8.503254503011703e-05,1.0,0.6252094507217407,0.8899999856948853
1446,0.0005010497407056391,1.0,0.6211137175559998,0.8899999856948853
1447,7.879583426984027e-05,1.0,0.6064724922180176,0.8899999856948853
1448,7.326100603677332e-05,1.0,0.6040470004081726,0.8899999856948853
1449,3.863487290800549e-05,1.0,0.6059985756874084,0.8899999856948853
1450,3.800999911618419e-05,1.0,0.6087141036987305,0.8899999856948853
1451,8.48775016493164e-05,1.0,0.6119862198829651,0.8899999856948853
1452,4.116517084185034e-05,1.0,0.6143950819969177,0.8899999856948853
1453,8.630525553599e-05,1.0,0.6180912256240845,0.8899999856948853
1454,7.118179928511381e-05,1.0,0.6223099827766418,0.8899999856948853
1455,5.521796629182063e-05,1.0,0.6268499493598938,0.8899999856948853
1456,2.370838228671346e-05,1.0,0.628880500793457,0.8899999856948853
1457,4.735988113679923e-05,1.0,0.6296091079711914,0.8899999856948853
1458,2.810895603033714e-05,1.0,0.6294363141059875,0.8899999856948853
1459,3.6675395676866174e-05,1.0,0.629128098487854,0.8899999856948853
1460,0.00029263077885843813,1.0,0.636246919631958,0.8999999761581421
1461,4.092916424269788e-05,1.0,0.6360558271408081,0.8999999761581421
1462,2.8167502023279667e-05,1.0,0.6337890028953552,0.8999999761581421
1463,0.0002511527272872627,1.0,0.6431276798248291,0.8999999761581421
1464,7.941346848383546e-05,1.0,0.6476523876190186,0.8999999761581421
1465,5.605731712421402e-05,1.0,0.6458771228790283,0.8999999761581421
1466,5.342749864212237e-05,1.0,0.640526294708252,0.8999999761581421
1467,0.0003570307744666934,1.0,0.636242151260376,0.8999999761581421
1468,0.00020193160162307322,1.0,0.6414610147476196,0.8999999761581421
1469,4.435828304849565e-05,1.0,0.6507192254066467,0.8999999761581421
1470,8.664331107866019e-05,1.0,0.6523181200027466,0.8999999761581421
1471,0.00029200688004493713,1.0,0.6512694358825684,0.8999999761581421
1472,0.00015218979388009757,1.0,0.6497761607170105,0.8999999761581421
1473,7.854348223190755e-05,1.0,0.6461735367774963,0.8999999761581421
1474,0.0001381100300932303,1.0,0.6467680335044861,0.8999999761581421
1475,8.725011139176786e-05,1.0,0.6467679738998413,0.8999999761581421
1476,0.00022813705436419696,1.0,0.65460604429245,0.8999999761581421
1477,0.00010394291166448966,1.0,0.6574597954750061,0.8999999761581421
1478,0.0001199978869408369,1.0,0.6566078066825867,0.8999999761581421
1479,4.507147241383791e-05,1.0,0.6540277600288391,0.8899999856948853
1480,5.417945794761181e-05,1.0,0.6512560844421387,0.8899999856948853
1481,2.0068024241481908e-05,1.0,0.6484865546226501,0.8899999856948853
1482,4.111028101760894e-05,1.0,0.646603524684906,0.8899999856948853
1483,0.00024332612520083785,1.0,0.6453416347503662,0.8899999856948853
1484,5.308332765707746e-05,1.0,0.6427144408226013,0.8899999856948853
1485,4.337566133472137e-05,1.0,0.6408263444900513,0.8899999856948853
1486,8.963061554823071e-05,1.0,0.6371577978134155,0.8899999856948853
1487,3.488026050035842e-05,1.0,0.6354454159736633,0.8899999856948853
1488,0.00011865411943290383,1.0,0.6372173428535461,0.8899999856948853
1489,4.66844612674322e-05,1.0,0.6388397216796875,0.8899999856948853
1490,5.2575243898900226e-05,1.0,0.6381468772888184,0.8899999856948853
1491,5.406407581176609e-05,1.0,0.6368657350540161,0.8899999856948853
1492,8.392865856876597e-05,1.0,0.6388474106788635,0.8899999856948853
1493,3.0130242521408945e-05,1.0,0.6401031613349915,0.8899999856948853
1494,0.0002137525734724477,1.0,0.6450558304786682,0.8899999856948853
1495,9.480152220930904e-05,1.0,0.6486515998840332,0.8999999761581421
1496,2.325934656255413e-05,1.0,0.6494522094726562,0.8999999761581421
1497,0.00011242361506447196,1.0,0.6506854295730591,0.8999999761581421
1498,0.00020093226339668036,1.0,0.6554784178733826,0.8999999761581421
1499,0.00013687620230484754,1.0,0.6551406979560852,0.8999999761581421
1500,0.00013389623200055212,1.0,0.6557309031486511,0.8899999856948853
1501,0.00034046449582092464,1.0,0.6654856204986572,0.8899999856948853
1502,0.00022146459377836436,1.0,0.6685148477554321,0.8899999856948853
1503,0.0002321352221770212,1.0,0.6815610527992249,0.8799999952316284
1504,4.651675408240408e-05,1.0,0.6811152100563049,0.8799999952316284
1505,9.986374789150432e-05,1.0,0.6664087772369385,0.8799999952316284
1506,4.986939165974036e-05,1.0,0.6576672196388245,0.8899999856948853
1507,0.00013761169975623488,1.0,0.6563402414321899,0.8899999856948853
1508,2.5196581191266887e-05,1.0,0.6536567807197571,0.8899999856948853
1509,4.395565338199958e-05,1.0,0.6510652899742126,0.8899999856948853
1510,7.924315286800265e-05,1.0,0.6487751007080078,0.8899999856948853
1511,1.6331176084349863e-05,1.0,0.647080659866333,0.8899999856948853
1512,0.00010596079664537683,1.0,0.6516390442848206,0.8899999856948853
1513,6.483927427325398e-05,1.0,0.6522375345230103,0.8899999856948853
1514,8.590446668677032e-05,1.0,0.6537448763847351,0.8899999856948853
1515,5.896419315831736e-05,1.0,0.6518769264221191,0.8899999856948853
1516,2.1757996364613064e-05,1.0,0.6500201225280762,0.8899999856948853
1517,9.834001684794202e-05,1.0,0.6516737341880798,0.8899999856948853
1518,4.217670357320458e-05,1.0,0.6515224575996399,0.8899999856948853
1519,4.8445421271026134e-05,1.0,0.6511874198913574,0.8899999856948853
1520,1.8613542124512605e-05,1.0,0.6509047150611877,0.8899999856948853
1521,6.296032370300964e-05,1.0,0.6516083478927612,0.8899999856948853
1522,0.00010225781443296,1.0,0.6567049622535706,0.8899999856948853
1523,2.2433447156799957e-05,1.0,0.6574469804763794,0.8899999856948853
1524,5.31766090716701e-05,1.0,0.6564832925796509,0.8899999856948853
1525,0.0001801558246370405,1.0,0.6586184501647949,0.8899999856948853
1526,0.00010327289055567235,1.0,0.6745193004608154,0.8899999856948853
1527,1.413659265381284e-05,1.0,0.6808989644050598,0.8799999952316284
1528,5.143989983480424e-05,1.0,0.679828405380249,0.8799999952316284
1529,3.305936115793884e-05,1.0,0.6775854229927063,0.8899999856948853
1530,0.00015083829930517823,1.0,0.6637617349624634,0.8899999856948853
1531,5.909718674956821e-05,1.0,0.6552744507789612,0.8899999856948853
1532,0.00022341615112964064,1.0,0.6546157002449036,0.8899999856948853
1533,5.703218630515039e-05,1.0,0.6474913954734802,0.8899999856948853
1534,9.301740647060797e-05,1.0,0.6458479166030884,0.8899999856948853
1535,0.0002433689805911854,1.0,0.6627299785614014,0.8799999952316284
1536,9.046486229635775e-05,1.0,0.6653128266334534,0.8799999952316284
1537,0.0001241631107404828,1.0,0.6649688482284546,0.8799999952316284
1538,6.329115421976894e-05,1.0,0.6606398820877075,0.8899999856948853
1539,7.170798198785633e-05,1.0,0.6575349569320679,0.8899999856948853
1540,3.1582665542373434e-05,1.0,0.6548956036567688,0.8899999856948853
1541,4.6975375880720094e-05,1.0,0.651459813117981,0.8899999856948853
1542,2.8580230718944222e-05,1.0,0.6501054167747498,0.8899999856948853
1543,3.217044650227763e-05,1.0,0.6504999399185181,0.8899999856948853
1544,3.761769403354265e-05,1.0,0.6496673822402954,0.8899999856948853
1545,3.574398215278052e-05,1.0,0.6487315893173218,0.8899999856948853
1546,0.00019994679314550012,1.0,0.6494641304016113,0.8899999856948853
1547,0.00016148260328918695,1.0,0.6522831916809082,0.8899999856948853
1548,0.0002633884141687304,1.0,0.6640071272850037,0.8899999856948853
1549,7.112431921996176e-05,1.0,0.6793096661567688,0.8899999856948853
1550,2.5176856070174836e-05,1.0,0.6789799332618713,0.8899999856948853
1551,1.6861285985214636e-05,1.0,0.675991415977478,0.8899999856948853
1552,0.0002145882317563519,1.0,0.6741920709609985,0.8899999856948853
1553,0.0002751306747086346,1.0,0.6702969074249268,0.8899999856948853
1554,0.00013527332339435816,1.0,0.6672337055206299,0.8899999856948853
1555,4.136616189498454e-05,1.0,0.667798638343811,0.8899999856948853
1556,3.788166577578522e-05,1.0,0.6658491492271423,0.8899999856948853
1557,0.00012211763532832265,1.0,0.663524329662323,0.8899999856948853
1558,0.00012040633009746671,1.0,0.6495271325111389,0.8899999856948853
1559,4.690758578362875e-05,1.0,0.6465259790420532,0.8899999856948853
1560,3.830780406133272e-05,1.0,0.6451579332351685,0.8899999856948853
1561,2.3123899154597893e-05,1.0,0.643860399723053,0.8899999856948853
1562,4.454550435184501e-05,1.0,0.6464138627052307,0.8899999856948853
1563,4.495412213145755e-05,1.0,0.6491628885269165,0.8899999856948853
1564,2.4683016818016768e-05,1.0,0.6504358053207397,0.8899999856948853
1565,9.215299360221252e-05,1.0,0.6526393890380859,0.8899999856948853
1566,0.0001928767014760524,1.0,0.6635692715644836,0.8899999856948853
1567,6.009654316585511e-05,1.0,0.6824951767921448,0.8899999856948853
1568,6.169171683723107e-05,1.0,0.6959397196769714,0.8799999952316284
1569,1.3827914699504618e-05,1.0,0.6966307163238525,0.8799999952316284
1570,5.8881436416413635e-05,1.0,0.6915442943572998,0.8899999856948853
1571,2.3081003746483475e-05,1.0,0.6880986094474792,0.8899999856948853
1572,3.25713335769251e-05,1.0,0.6827117800712585,0.8899999856948853
1573,0.00015141993935685605,1.0,0.6825444102287292,0.8899999856948853
1574,1.3950658285466488e-05,1.0,0.6726653575897217,0.8899999856948853
1575,0.00018724359688349068,1.0,0.6824935674667358,0.8899999856948853
1576,0.00010432709677843377,1.0,0.6714845299720764,0.8899999856948853
1577,7.805351197021082e-05,1.0,0.664130687713623,0.8899999856948853
1578,3.712596299010329e-05,1.0,0.6617174744606018,0.8899999856948853
1579,2.6053730834973976e-05,1.0,0.6592566967010498,0.8899999856948853
1580,4.847658419748768e-05,1.0,0.6603345274925232,0.8899999856948853
1581,2.0352059436845593e-05,1.0,0.6630980968475342,0.8899999856948853
1582,4.887050818069838e-05,1.0,0.6631433963775635,0.8899999856948853
1583,0.00013430310355033726,1.0,0.6618716716766357,0.8899999856948853
1584,3.63635626854375e-05,1.0,0.6629695296287537,0.8899999856948853
1585,2.621188832563348e-05,1.0,0.663595974445343,0.8899999856948853
1586,2.4943532480392605e-05,1.0,0.6655458807945251,0.8899999856948853
1587,0.0003687551652546972,1.0,0.6978347301483154,0.8899999856948853
1588,5.615440750261769e-05,1.0,0.7097799181938171,0.8899999856948853
1589,0.0001235926174558699,1.0,0.7164372205734253,0.8899999856948853
1590,2.2660165996057913e-05,1.0,0.7227534651756287,0.8899999856948853
1591,7.291103975148872e-05,1.0,0.7163352966308594,0.8899999856948853
1592,4.373417323222384e-05,1.0,0.7037686109542847,0.8899999856948853
1593,0.00011906216241186485,1.0,0.6953437328338623,0.8899999856948853
1594,4.1093677282333374e-05,1.0,0.6877523064613342,0.8899999856948853
1595,2.7701053113560192e-05,1.0,0.6826111078262329,0.8999999761581421
1596,3.732616823981516e-05,1.0,0.678077757358551,0.8899999856948853
1597,5.6677825341466814e-05,1.0,0.6766942739486694,0.8899999856948853
1598,4.595798964146525e-05,1.0,0.6690603494644165,0.8899999856948853
1599,2.380190562689677e-05,1.0,0.6635919213294983,0.8899999856948853
1600,1.3079103155178018e-05,1.0,0.6606540083885193,0.8899999856948853
1601,1.5975587302818894e-05,1.0,0.6593510508537292,0.8899999856948853
1602,2.89575236820383e-05,1.0,0.6576101183891296,0.8899999856948853
1603,9.000912541523576e-05,1.0,0.6469032168388367,0.8899999856948853
1604,0.0001654700026847422,1.0,0.6429768204689026,0.8899999856948853
1605,0.00018096869462169707,1.0,0.650556743144989,0.8899999856948853
1606,3.61008096660953e-05,1.0,0.6544090509414673,0.8899999856948853
1607,5.1656272262334824e-05,1.0,0.6557855010032654,0.8899999856948853
1608,0.00019252876518294215,1.0,0.6556978821754456,0.8899999856948853
1609,8.45900722197257e-05,1.0,0.6488269567489624,0.8999999761581421
1610,5.267430606181733e-05,1.0,0.6471602916717529,0.8999999761581421
1611,0.01255178451538086,0.9900000095367432,0.6295661330223083,0.8799999952316284
1612,0.00045451673213392496,1.0,4.227776050567627,0.38999998569488525
1613,0.07131402939558029,0.9599999785423279,1.1626529693603516,0.8100000023841858
1614,0.005731406155973673,1.0,1.5250564813613892,0.800000011920929
1615,0.0027911574579775333,1.0,1.6543272733688354,0.800000011920929
1616,0.0012480162549763918,1.0,1.5226974487304688,0.8199999928474426
1617,0.003253156552091241,1.0,1.256649374961853,0.8199999928474426
1618,0.0009493438992649317,1.0,0.9545382857322693,0.8600000143051147
1619,0.0062944949604570866,1.0,0.6817362308502197,0.8899999856948853
1620,0.0020711934193968773,1.0,0.6315165162086487,0.8999999761581421
1621,0.0018520877929404378,1.0,0.5966593027114868,0.8899999856948853
1622,0.0005916405934840441,1.0,0.5839959979057312,0.8799999952316284
1623,0.0003589935367926955,1.0,0.5778898000717163,0.8799999952316284
1624,0.0030672973953187466,1.0,0.5885445475578308,0.8799999952316284
1625,0.0002962973085232079,1.0,0.5948195457458496,0.8700000047683716
1626,0.00012377134407870471,1.0,0.589599609375,0.8799999952316284
1627,0.0001345444907201454,1.0,0.5833704471588135,0.8799999952316284
1628,0.001680630724877119,1.0,0.5765432715415955,0.8899999856948853
1629,0.00016879891336429864,1.0,0.5761405825614929,0.8899999856948853
1630,0.0005021539982408285,1.0,0.5753141045570374,0.8899999856948853
1631,0.0006371299969032407,1.0,0.5739036202430725,0.8899999856948853
1632,0.0001838969037635252,1.0,0.5695365071296692,0.8899999856948853
1633,0.00020184466848149896,1.0,0.5676576495170593,0.8899999856948853
1634,0.00016517059702891856,1.0,0.5673063397407532,0.8799999952316284
1635,0.0002189135702792555,1.0,0.5676554441452026,0.8899999856948853
1636,0.00013189957826398313,1.0,0.5693256855010986,0.8899999856948853
1637,0.0003853595699183643,1.0,0.5707573890686035,0.8899999856948853
1638,0.0005636615096591413,1.0,0.5726199150085449,0.8899999856948853
1639,0.0005763437366113067,1.0,0.5733811855316162,0.8899999856948853
1640,0.00017896865028887987,1.0,0.5743195414543152,0.8899999856948853
1641,0.0005927388556301594,1.0,0.5771690607070923,0.8899999856948853
1642,0.00023111533664632589,1.0,0.5816199779510498,0.8899999856948853
1643,0.0003431149525567889,1.0,0.583774745464325,0.8899999856948853
1644,0.00023716756550129503,1.0,0.5843490362167358,0.8899999856948853
1645,0.0003212267765775323,1.0,0.5859989523887634,0.8899999856948853
1646,0.0002573460224084556,1.0,0.5891538262367249,0.8899999856948853
1647,0.00028107964317314327,1.0,0.5925188064575195,0.8899999856948853
1648,0.00013817910803481936,1.0,0.5953513383865356,0.8899999856948853
1649,0.0006626028334721923,1.0,0.5972480177879333,0.8899999856948853
1650,8.989771595224738e-05,1.0,0.5970430374145508,0.8899999856948853
1651,0.00024139191373251379,1.0,0.5966320633888245,0.8899999856948853
1652,0.00040538355824537575,1.0,0.5973418951034546,0.8899999856948853
1653,0.0005667971563525498,1.0,0.5976000428199768,0.8899999856948853
1654,0.00028740547713823617,1.0,0.5988333821296692,0.8899999856948853
1655,0.00016314197273459285,1.0,0.6005634069442749,0.8899999856948853
1656,0.0001548806467326358,1.0,0.6033854484558105,0.8899999856948853
1657,0.00013069843407720327,1.0,0.6044755578041077,0.8899999856948853
1658,0.00013840333849657327,1.0,0.6051368713378906,0.8899999856948853
1659,9.367790335090831e-05,1.0,0.605475902557373,0.8899999856948853
1660,0.03008841909468174,0.9800000190734863,0.555866539478302,0.8999999761581421
1661,0.003305749036371708,1.0,0.644496738910675,0.8500000238418579
1662,0.014882253482937813,1.0,0.5670896172523499,0.8799999952316284
1663,0.003499852027744055,1.0,0.6607997417449951,0.8700000047683716
1664,0.008108580484986305,1.0,0.6671046614646912,0.8899999856948853
1665,0.0011937313247472048,1.0,0.6806961894035339,0.8899999856948853
1666,0.0017096850788220763,1.0,0.7022145986557007,0.8899999856948853
1667,0.010717893950641155,1.0,0.721824049949646,0.8899999856948853
1668,0.00016725827299524099,1.0,0.8363393545150757,0.8399999737739563
1669,0.0004779118171427399,1.0,0.8745375871658325,0.8299999833106995
1670,0.000372093403711915,1.0,0.8496489524841309,0.8500000238418579
1671,0.0004959205980412662,1.0,0.8101190328598022,0.8600000143051147
1672,0.0005020892713218927,1.0,0.774028480052948,0.8799999952316284
1673,0.0005055816727690399,1.0,0.7410550117492676,0.8899999856948853
1674,0.0011806924594566226,1.0,0.7232607007026672,0.8999999761581421
1675,0.0005989701021462679,1.0,0.705659806728363,0.8999999761581421
1676,0.0002655905263964087,1.0,0.690426230430603,0.8899999856948853
1677,0.00032872857991605997,1.0,0.6810213327407837,0.8899999856948853
1678,0.00021311752789188176,1.0,0.6737344861030579,0.8899999856948853
1679,0.0006603716174140573,1.0,0.6749026775360107,0.8899999856948853
1680,0.0005051601328887045,1.0,0.6701643466949463,0.8999999761581421
1681,0.0003224799002055079,1.0,0.6634615063667297,0.8999999761581421
1682,0.0005748117691837251,1.0,0.6586251854896545,0.8999999761581421
1683,0.0006656870828010142,1.0,0.653632640838623,0.8999999761581421
1684,0.0003627261030487716,1.0,0.6512522101402283,0.8999999761581421
1685,0.0011662106262519956,1.0,0.6550931334495544,0.8999999761581421
1686,0.00013847145601175725,1.0,0.6568253040313721,0.8999999761581421
1687,0.0006774712819606066,1.0,0.650743305683136,0.8899999856948853
1688,5.4105683375382796e-05,1.0,0.6483247876167297,0.8899999856948853
1689,0.00040139685734175146,1.0,0.6492197513580322,0.8899999856948853
1690,0.0001868432736955583,1.0,0.651542603969574,0.8899999856948853
1691,0.0009786286391317844,1.0,0.6603180766105652,0.8899999856948853
1692,0.00013966097321826965,1.0,0.665600061416626,0.8999999761581421
1693,9.827302710618824e-05,1.0,0.6670486927032471,0.8999999761581421
1694,8.778037590673193e-05,1.0,0.6670135259628296,0.8999999761581421
1695,6.850177305750549e-05,1.0,0.6666090488433838,0.8999999761581421
1696,4.2477411625441164e-05,1.0,0.66605544090271,0.8999999761581421
1697,8.409497240791097e-05,1.0,0.6657233238220215,0.8999999761581421
1698,0.00033092033118009567,1.0,0.6658703684806824,0.8999999761581421
1699,0.0003665862896014005,1.0,0.6663932800292969,0.8999999761581421
1700,0.0006462862365879118,1.0,0.6675832271575928,0.8999999761581421
1701,0.00026926177088171244,1.0,0.6649286150932312,0.8999999761581421
1702,6.315040081972256e-05,1.0,0.6633894443511963,0.8999999761581421
1703,6.219500937731937e-05,1.0,0.6624099016189575,0.8999999761581421
1704,0.0003885389887727797,1.0,0.6627434492111206,0.8999999761581421
1705,6.828273762948811e-05,1.0,0.6634619235992432,0.8999999761581421
1706,0.00041505007538944483,1.0,0.6632682681083679,0.8999999761581421
1707,0.0005012622568756342,1.0,0.6614363193511963,0.8999999761581421
1708,9.883972961688414e-05,1.0,0.6600373983383179,0.8999999761581421
1709,6.1009191995253786e-05,1.0,0.6592333912849426,0.8999999761581421
1710,0.00043937182636000216,1.0,0.6590796709060669,0.8999999761581421
1711,0.0003523003251757473,1.0,0.6585412621498108,0.8999999761581421
1712,0.00034080538898706436,1.0,0.6579721570014954,0.8999999761581421
1713,4.7741377784404904e-05,1.0,0.6574662923812866,0.8999999761581421
1714,6.277288048295304e-05,1.0,0.657158374786377,0.8999999761581421
1715,0.00011188778444193304,1.0,0.6571707129478455,0.8999999761581421
1716,0.00017237261636182666,1.0,0.6574540138244629,0.8999999761581421
1717,0.0001272678782697767,1.0,0.6570922136306763,0.8999999761581421
1718,0.0001729074865579605,1.0,0.657589852809906,0.8999999761581421
1719,6.572980782948434e-05,1.0,0.658251941204071,0.8999999761581421
1720,0.0006705940468236804,1.0,0.6588946580886841,0.8999999761581421
1721,0.0005510499468073249,1.0,0.6601744890213013,0.8999999761581421
1722,5.419241279014386e-05,1.0,0.6639106273651123,0.8999999761581421
1723,0.0001927340927068144,1.0,0.6651203632354736,0.8999999761581421
1724,8.256440196419135e-05,1.0,0.6645225286483765,0.8999999761581421
1725,0.000148275081301108,1.0,0.6641632318496704,0.8999999761581421
1726,0.0002516267413739115,1.0,0.664743959903717,0.8999999761581421
1727,0.00017109581676777452,1.0,0.6642588973045349,0.8999999761581421
1728,7.746067421976477e-05,1.0,0.664109468460083,0.8999999761581421
1729,0.00020816511823795736,1.0,0.6631510257720947,0.8999999761581421
