,loss,recall,val_loss,val_recall
0,1.6078388690948486,0.16977777777777778,1.5689910650253296,0.00535300925925926
1,1.3081271648406982,0.20754472693032014,1.528468370437622,0.00535300925925926
2,1.132726788520813,0.34404761904761905,1.4596400260925293,0.2887533927232785
3,1.0128283500671387,0.49020281814709843,1.3517991304397583,0.2970406906481194
4,0.9277187585830688,0.41134169884169886,1.206641674041748,0.4379135850122642
5,0.8603326082229614,0.444938080495356,1.048337459564209,0.5445217514816318
6,0.8019739389419556,0.4750772867794144,0.9053398966789246,0.5894622947739767
7,0.7486846446990967,0.47972370766488415,0.791660726070404,0.6110145573342053
8,0.6991094350814819,0.47951335349297586,0.7065132856369019,0.6359233079033441
9,0.6523219347000122,0.48568922305764406,0.6429053544998169,0.6422070638792575
10,0.6085902452468872,0.4980140299951621,0.5940558910369873,0.6326477157000138
11,0.567719578742981,0.512358988538818,0.5556416511535645,0.5960930034226137
12,0.5295882821083069,0.5228915052922705,0.5224143266677856,0.5582483364290234
13,0.49323856830596924,0.5373735977334614,0.4929890036582947,0.5091964802441755
14,0.4577766954898834,0.5989391076469729,0.46768391132354736,0.5084083969631261
15,0.42356812953948975,0.6012138787138788,0.4460412561893463,0.47116883775050106
16,0.39130324125289917,0.5952096123118324,0.4286198019981384,0.46237637305676216
17,0.3611806631088257,0.5953536725955204,0.4125956892967224,0.45846520809165625
18,0.3336143493652344,0.5953536725955204,0.39702263474464417,0.4695306862781836
19,0.30829787254333496,0.6774202347640921,0.38584572076797485,0.4481220965097529
20,0.28508681058883667,0.8053048501487075,0.37644484639167786,0.45186045269270647
21,0.26348382234573364,0.8053048501487075,0.36610081791877747,0.45526832270192347
22,0.24338413774967194,0.8087139410577984,0.3572648763656616,0.45621636092243606
23,0.22484943270683289,0.8132593956032528,0.349674254655838,0.4658926781896746
24,0.20830413699150085,0.8137341153470186,0.3429810702800751,0.47218508079756444
25,0.19299018383026123,0.8161955965181772,0.33883965015411377,0.4675325713999958
26,0.17916691303253174,0.8161955965181772,0.3349672853946686,0.46742700165149753
27,0.1663675457239151,0.8174816715542522,0.3314410150051117,0.47750998905391245
28,0.15471702814102173,0.8188257575757576,0.3290705680847168,0.47520827959183914
29,0.14363732933998108,0.8673220973782771,0.3286922574043274,0.4670759227246901
30,0.13359498977661133,0.8673220973782771,0.32655394077301025,0.46721440405835857
31,0.12445837259292603,0.8715277777777778,0.3258911967277527,0.47641842164864756
32,0.1156400814652443,0.8673220973782771,0.3218538165092468,0.48545279664978314
33,0.10751643776893616,0.997191011235955,0.3212756812572479,0.484575803295987
34,0.09984203428030014,0.997191011235955,0.3166736662387848,0.4963633046422664
35,0.09273288398981094,0.997191011235955,0.3168659806251526,0.4880364599710072
36,0.0863676518201828,0.997191011235955,0.3155619502067566,0.48797623978682303
37,0.08054608106613159,0.997191011235955,0.31511518359184265,0.5008632613168652
38,0.07512602210044861,0.997191011235955,0.31433841586112976,0.5008136764570899
39,0.0701015517115593,0.9978693181818181,0.31220367550849915,0.5219441266797038
40,0.06549690663814545,0.9978693181818181,0.3136895000934601,0.5122872956712923
41,0.061388395726680756,0.9978693181818181,0.31025078892707825,0.5121158720290012
42,0.05766886845231056,0.9978693181818181,0.3099321126937866,0.5093932804605498
43,0.0541183203458786,0.9978693181818181,0.30141139030456543,0.5202376845338889
44,0.04893755912780762,0.9985632183908046,0.3058428168296814,0.48148540753724256
45,0.04590492695569992,0.9992732558139534,0.30722132325172424,0.49799879025319616
46,0.04216868430376053,0.9992732558139534,0.30635276436805725,0.49634395990095637
47,0.03960428386926651,0.9992732558139534,0.30437007546424866,0.4893266222111361
48,0.03829660639166832,0.9992732558139534,0.3021768629550934,0.5206993332617552
49,0.034727804362773895,0.9992732558139534,0.3044975996017456,0.48303533076203536
50,0.03210854530334473,0.9992732558139534,0.30178365111351013,0.49232018303084807
51,0.0298854261636734,1.0,0.30295461416244507,0.5076403668510319
52,0.027536816895008087,1.0,0.30274704098701477,0.4831679203801774
53,0.02628237195312977,1.0,0.3025992214679718,0.5077545991941919
54,0.02483164146542549,1.0,0.30179551243782043,0.5073463018863872
55,0.02291286364197731,1.0,0.30334749817848206,0.4933993516790264
56,0.02166733518242836,1.0,0.3026737868785858,0.48451290862010077
57,0.020729854702949524,1.0,0.30244484543800354,0.502192898421119
58,0.019260723143815994,1.0,0.3062266707420349,0.4837754461602033
59,0.018532101064920425,1.0,0.30483683943748474,0.48474041817921587
60,0.017443157732486725,1.0,0.3045715093612671,0.48845554799694085
61,0.01649228110909462,1.0,0.305792897939682,0.5070852165738104
62,0.015471464022994041,1.0,0.30911922454833984,0.4811059892895999
63,0.014685677364468575,1.0,0.3086303174495697,0.49319943795179494
64,0.014089183881878853,1.0,0.3085249960422516,0.5072033361134471
65,0.013402404263615608,1.0,0.3094225525856018,0.4932344392237582
66,0.012854824773967266,1.0,0.30915457010269165,0.49985746391577085
67,0.012295451015233994,1.0,0.3089855909347534,0.48942366918575764
68,0.011769089847803116,1.0,0.30858635902404785,0.4768603056091072
69,0.011286837048828602,1.0,0.310583233833313,0.5103260480553992
70,0.010818418115377426,1.0,0.31146514415740967,0.5240758784305072
71,0.010396814905107021,1.0,0.31309211254119873,0.4961287831936767
72,0.010006209835410118,1.0,0.3137698471546173,0.4961287831936767
73,0.009630966000258923,1.0,0.3142973482608795,0.4961287831936767
74,0.009283872321248055,1.0,0.31467950344085693,0.5285100225839603
75,0.008953018113970757,1.0,0.3146491050720215,0.5290666999659099
76,0.008642004802823067,1.0,0.3157385289669037,0.5290666999659099
77,0.008341062813997269,1.0,0.31624454259872437,0.5290680900131716
78,0.008068272843956947,1.0,0.31708166003227234,0.5290261523341451
79,0.007798791863024235,1.0,0.31778743863105774,0.5238580653792042
80,0.007550524547696114,1.0,0.31868118047714233,0.538209917231056
81,0.007314189802855253,1.0,0.3187677264213562,0.5244658063026052
82,0.00708412379026413,1.0,0.3197416067123413,0.5244772586950099
83,0.0068658627569675446,1.0,0.3206806778907776,0.5244590386383716
84,0.0066591608338057995,1.0,0.3216474652290344,0.5429246647746211
85,0.006462521851062775,1.0,0.322607159614563,0.5429246647746211
86,0.006274912506341934,1.0,0.32320716977119446,0.5428841171428563
87,0.006090676411986351,1.0,0.32360899448394775,0.5428841171428563
88,0.005919513292610645,1.0,0.3235960304737091,0.5433304848284921
89,0.0057527958415448666,1.0,0.32386860251426697,0.5433304848284921
90,0.005591399036347866,1.0,0.3246835768222809,0.5571678713823736
91,0.00543620903044939,1.0,0.3247443735599518,0.5433304848284921
92,0.005287338513880968,1.0,0.325532466173172,0.5433304848284921
93,0.005145399831235409,1.0,0.32649484276771545,0.5433277047339689
94,0.005010484717786312,1.0,0.3270210921764374,0.5431931438458488
95,0.004881835542619228,1.0,0.32766714692115784,0.5570122016378057
96,0.004754577297717333,1.0,0.32859739661216736,0.5433121560665676
97,0.0046354178339242935,1.0,0.3293580114841461,0.5433264745087212
98,0.004520484246313572,1.0,0.3297429084777832,0.5432773595054776
99,0.004410283174365759,1.0,0.33015725016593933,0.5432773595054776
100,0.004303031135350466,1.0,0.3309132158756256,0.5432773595054776
101,0.004201210103929043,1.0,0.331473171710968,0.5432773595054776
102,0.004105451051145792,1.0,0.3323557674884796,0.5433081418830482
103,0.004009703639894724,1.0,0.3326689302921295,0.5432745001819186
104,0.003920002840459347,1.0,0.33342069387435913,0.5432717200873953
105,0.0038340596947818995,1.0,0.333403080701828,0.5432688885096402
106,0.0037482460029423237,1.0,0.33386459946632385,0.5432717200873953
107,0.0036660009063780308,1.0,0.33477577567100525,0.5432717200873953
108,0.0035864170640707016,1.0,0.3350411653518677,0.5432688885096402
109,0.0035086749121546745,1.0,0.33547642827033997,0.5572024439686194
110,0.0034341898281127214,1.0,0.3364502489566803,0.5642429824062165
111,0.0033625205978751183,1.0,0.336848646402359,0.5642429824062165
112,0.0032931151799857616,1.0,0.3370290994644165,0.5605396682396689
113,0.003224999876692891,1.0,0.33739355206489563,0.5605396682396689
114,0.0031591826118528843,1.0,0.3376161456108093,0.5605908783615713
115,0.0030956764239817858,1.0,0.338129460811615,0.5584108557702515
116,0.0030338759534060955,1.0,0.3384610712528229,0.5583596456483492
117,0.0029746193904429674,1.0,0.33907148241996765,0.5606391663722553
118,0.002917159115895629,1.0,0.3395245373249054,0.5606391663722553
119,0.002862119348719716,1.0,0.34052518010139465,0.5582827237952245
120,0.0028066784143447876,1.0,0.3406396508216858,0.5582827237952245
121,0.002754229586571455,1.0,0.3408583700656891,0.5605401545453023
122,0.0027028508484363556,1.0,0.3411276042461395,0.5605401545453023
123,0.002653940115123987,1.0,0.34183862805366516,0.5582228836935487
124,0.002604241017252207,1.0,0.34211432933807373,0.5605353846191043
125,0.0025577759370207787,1.0,0.3425632119178772,0.5581085947909988
126,0.0025119197089225054,1.0,0.34295549988746643,0.5581085947909988
127,0.002466833684593439,1.0,0.34323373436927795,0.5581128708297577
128,0.0024230158887803555,1.0,0.34387683868408203,0.5589948892117761
129,0.0023803715594112873,1.0,0.34429657459259033,0.559106864225067
130,0.0023397766053676605,1.0,0.34489092230796814,0.559106864225067
131,0.002298705279827118,1.0,0.3454781770706177,0.559106864225067
132,0.002259570639580488,1.0,0.3461233377456665,0.559106864225067
133,0.0022217025980353355,1.0,0.3464382588863373,0.559106864225067
134,0.0021841712296009064,1.0,0.34709590673446655,0.559106864225067
135,0.0021478731650859118,1.0,0.34721553325653076,0.559106864225067
136,0.0021128179505467415,1.0,0.34750303626060486,0.559106864225067
137,0.0020784465596079826,1.0,0.3479050397872925,0.5589948892117761
138,0.00204487144947052,1.0,0.3480854630470276,0.559106864225067
139,0.002012753626331687,1.0,0.34857335686683655,0.559106864225067
140,0.001981136854737997,1.0,0.3488709330558777,0.559106864225067
141,0.0019504243973642588,1.0,0.349102646112442,0.5661063486369954
142,0.001920005539432168,1.0,0.349723756313324,0.559106864225067
143,0.0018907824996858835,1.0,0.3504110872745514,0.559106864225067
144,0.0018622392090037465,1.0,0.3503330945968628,0.559106864225067
145,0.0018337673973292112,1.0,0.3505091071128845,0.5661063486369954
146,0.0018063087482005358,1.0,0.3508307933807373,0.5661063486369954
147,0.0017789795529097319,1.0,0.3511154353618622,0.5661063486369954
148,0.001753311837092042,1.0,0.35182151198387146,0.5661063486369954
149,0.00172732537612319,1.0,0.352082759141922,0.5661063486369954
150,0.0017021341482177377,1.0,0.35259535908699036,0.566041975266701
151,0.0016774162650108337,1.0,0.3528784513473511,0.5659472240969218
152,0.001653039362281561,1.0,0.3532399833202362,0.5659472240969218
153,0.0016295919194817543,1.0,0.35397616028785706,0.5659472240969218
154,0.0016061842907220125,1.0,0.3542843461036682,0.5659472240969218
155,0.0015836730599403381,1.0,0.354947954416275,0.5589477396849933
156,0.0015612782444804907,1.0,0.35517600178718567,0.5589477396849933
157,0.0015399146359413862,1.0,0.35574668645858765,0.5659414730042142
158,0.001518704229965806,1.0,0.3561519980430603,0.5659414730042142
159,0.001498230267316103,1.0,0.3570253849029541,0.5590342837251261
160,0.0014774006558582187,1.0,0.3570118546485901,0.5590342837251261
161,0.0014579116832464933,1.0,0.35721641778945923,0.5660337681370545
162,0.0014380915090441704,1.0,0.3574110269546509,0.5653723924756789
163,0.0014192655216902494,1.0,0.3577340543270111,0.5652776413058996
164,0.0014000451192259789,1.0,0.35777559876441956,0.5652776413058996
165,0.0013822355540469289,1.0,0.3584328293800354,0.5652776413058996
166,0.0013639319222420454,1.0,0.3585086762905121,0.5652776413058996
167,0.0013462398201227188,1.0,0.3589154779911041,0.5652804728836548
168,0.0013293996453285217,1.0,0.35950690507888794,0.5652776413058996
169,0.0013124250108376145,1.0,0.35964128375053406,0.5652804728836548
170,0.0012960785534232855,1.0,0.3605179190635681,0.5652776413058996
171,0.0012799282558262348,1.0,0.3607056736946106,0.5652776413058996
172,0.0012636270839720964,1.0,0.36072176694869995,0.5606508432540251
173,0.0012480017030611634,1.0,0.3614360988140106,0.5607430956731797
174,0.0012325000716373324,1.0,0.36160409450531006,0.5607430956731797
175,0.001217360608279705,1.0,0.3622094690799713,0.5607430956731797
176,0.0012029192876070738,1.0,0.36282721161842346,0.5607430956731797
177,0.0011879100929945707,1.0,0.3628392517566681,0.55611346604355
178,0.0011738042812794447,1.0,0.3632955551147461,0.5422245771546612
179,0.0011599474819377065,1.0,0.36350759863853455,0.55611346604355
180,0.0011461509857326746,1.0,0.363726943731308,0.5422245771546612
181,0.0011330507695674896,1.0,0.36425772309303284,0.5422204125702867
182,0.001119264867156744,1.0,0.3641442358493805,0.5560145502893964
183,0.001106403535231948,1.0,0.36481258273124695,0.5387450031522141
184,0.001093918108381331,1.0,0.36536404490470886,0.5387491677365885
185,0.0010806906502693892,1.0,0.3650010824203491,0.5560145502893964
186,0.0010686195455491543,1.0,0.3655647039413452,0.5386502519824349
187,0.0010563894174993038,1.0,0.3661002814769745,0.5387450031522141
188,0.0010443152859807014,1.0,0.3662723898887634,0.5387450031522141
189,0.0010327247437089682,1.0,0.3669051229953766,0.5387450031522141
190,0.0010213596979156137,1.0,0.36738502979278564,0.5386901083129225
191,0.0010097651975229383,1.0,0.36724919080734253,0.539196978819793
192,0.0009987271623685956,1.0,0.367461234331131,0.539196978819793
193,0.0009877990232780576,1.0,0.3677556812763214,0.5386901083129225
194,0.0009767638985067606,1.0,0.36791521310806274,0.539196978819793
195,0.0009663176024332643,1.0,0.36824846267700195,0.539196978819793
196,0.0009557622252032161,1.0,0.3687690794467926,0.539196978819793
197,0.0009455832769162953,1.0,0.36917349696159363,0.539196978819793
198,0.0009354916983284056,1.0,0.3693925440311432,0.539196978819793
199,0.0009257969213649631,1.0,0.37003186345100403,0.539196978819793
200,0.0009157157619483769,1.0,0.3699630796909332,0.5391927411725347
201,0.0009061731398105621,1.0,0.3700827658176422,0.5391927411725347
202,0.0008966525783762336,1.0,0.3703150749206543,0.539196978819793
203,0.0008870905730873346,1.0,0.37061911821365356,0.5391927411725347
204,0.0008780222851783037,1.0,0.37098145484924316,0.539196978819793
205,0.0008688508532941341,1.0,0.37132707238197327,0.539196978819793
206,0.0008601375157013535,1.0,0.37197136878967285,0.539196978819793
207,0.0008511071791872382,1.0,0.3721957504749298,0.539196978819793
208,0.0008425337728112936,1.0,0.3727668821811676,0.539196978819793
209,0.0008341456996276975,1.0,0.37310591340065,0.539196978819793
210,0.0008256771834567189,1.0,0.3733676075935364,0.539196978819793
211,0.0008176821283996105,1.0,0.37358665466308594,0.539196978819793
212,0.0008093055803328753,1.0,0.3734273314476013,0.539196978819793
213,0.0008014509221538901,1.0,0.3738720715045929,0.539196978819793
214,0.0007936500478535891,1.0,0.3743707239627838,0.539196978819793
215,0.0007856014417484403,1.0,0.37448441982269287,0.539196978819793
216,0.0007779604056850076,1.0,0.37470588088035583,0.539196978819793
217,0.0007703999290242791,1.0,0.3750239312648773,0.539196978819793
218,0.000762988580390811,1.0,0.3752504885196686,0.5391987663215805
219,0.0007556431810371578,1.0,0.3755381405353546,0.5391987663215805
220,0.000748535618185997,1.0,0.37605515122413635,0.5391987663215805
221,0.000741335388738662,1.0,0.37623080611228943,0.5391987663215805
222,0.000734556233510375,1.0,0.3765532672405243,0.5391987663215805
223,0.00072741589974612,1.0,0.37648090720176697,0.5391987663215805
224,0.0007205704459920526,1.0,0.3770543336868286,0.5391987663215805
225,0.000713973946403712,1.0,0.3774126470088959,0.5391987663215805
226,0.0007071034051477909,1.0,0.3773483335971832,0.5391987663215805
227,0.0007006444502621889,1.0,0.3777707815170288,0.5391987663215805
228,0.0006941015599295497,1.0,0.3778366148471832,0.5391987663215805
229,0.0006876486004330218,1.0,0.37805497646331787,0.5391987663215805
230,0.0006814737571403384,1.0,0.3784754276275635,0.5391987663215805
231,0.0006751788314431906,1.0,0.3786217272281647,0.5391987663215805
232,0.0006691127782687545,1.0,0.3789352476596832,0.5391987663215805
233,0.0006629953859373927,1.0,0.3791269361972809,0.5391987663215805
234,0.0006569743854925036,1.0,0.3792429268360138,0.5391987663215805
235,0.0006511707324534655,1.0,0.3795510232448578,0.5391987663215805
236,0.0006452169036492705,1.0,0.3798852264881134,0.5391987663215805
237,0.0006395523087121546,1.0,0.3802933692932129,0.5391987663215805
238,0.0006337410304695368,1.0,0.3803241550922394,0.5391987663215805
239,0.0006281895330175757,1.0,0.3805319666862488,0.5391987663215805
240,0.0006227304693311453,1.0,0.38072195649147034,0.5391987663215805
241,0.0006172573193907738,1.0,0.380892276763916,0.5391987663215805
242,0.0006118390010669827,1.0,0.3812169134616852,0.5383654329882471
243,0.000606487737968564,1.0,0.38139966130256653,0.5383654329882471
244,0.0006012264639139175,1.0,0.38162416219711304,0.5399911599548832
245,0.0005960441776551306,1.0,0.3820326030254364,0.5391987663215805
246,0.0005908036837354302,1.0,0.3821715712547302,0.5391987663215805
247,0.0005857525393366814,1.0,0.38248375058174133,0.5399911599548832
248,0.0005809268914163113,1.0,0.38289108872413635,0.5391987663215805
249,0.0005757648032158613,1.0,0.382978618144989,0.5399911599548832
250,0.0005709412507712841,1.0,0.38354241847991943,0.5399911599548832
251,0.000566153263207525,1.0,0.38389724493026733,0.5399911599548832
252,0.0005613198736682534,1.0,0.3840930759906769,0.5399911599548832
253,0.0005567178595811129,1.0,0.38453811407089233,0.5392090367434521
254,0.000552045414224267,1.0,0.38461193442344666,0.5392090367434521
255,0.0005474955542013049,1.0,0.3846706449985504,0.5392090367434521
256,0.0005429327138699591,1.0,0.384822815656662,0.5392090367434521
257,0.0005385061376728117,1.0,0.38522759079933167,0.5392090367434521
258,0.0005339473718777299,1.0,0.3854096233844757,0.5392090367434521
259,0.0005296528106555343,1.0,0.3858255445957184,0.5392090367434521
260,0.0005251941038295627,1.0,0.3860785663127899,0.539161522123569
261,0.0005209003575146198,1.0,0.3862696886062622,0.539161522123569
262,0.0005165806505829096,1.0,0.3863528370857239,0.539161522123569
263,0.0005123948794789612,1.0,0.38655704259872437,0.539161522123569
264,0.0005081596318632364,1.0,0.3866221308708191,0.539161522123569
265,0.0005041340482421219,1.0,0.38703420758247375,0.539161522123569
266,0.0005000553210265934,1.0,0.3871610462665558,0.539161522123569
267,0.0004961000522598624,1.0,0.38734596967697144,0.539161522123569
268,0.0004922432126477361,1.0,0.38784870505332947,0.5368467073087542
269,0.00048816538765095174,1.0,0.38786327838897705,0.5368467073087542
270,0.0004843018832616508,1.0,0.38822829723358154,0.5368449198069667
271,0.0004806063661817461,1.0,0.38855284452438354,0.5368449198069667
272,0.00047672202344983816,1.0,0.38856807351112366,0.5368449198069667
273,0.0004730423097498715,1.0,0.38887766003608704,0.5368449198069667
274,0.000469380320282653,1.0,0.3891827166080475,0.5368449198069667
275,0.0004657355893868953,1.0,0.38951575756073,0.5368449198069667
276,0.00046224385732784867,1.0,0.38989177346229553,0.5368449198069667
277,0.0004586696159094572,1.0,0.3900870978832245,0.5368449198069667
278,0.00045518172555603087,1.0,0.3903263807296753,0.5368449198069667
279,0.00045170000521466136,1.0,0.39045634865760803,0.5368420882292116
280,0.00044826403609476984,1.0,0.3907301127910614,0.5368420882292116
281,0.0004448791150934994,1.0,0.39096561074256897,0.536831123316931
282,0.0004414956201799214,1.0,0.3911057710647583,0.536831123316931
283,0.00043824920430779457,1.0,0.39142951369285583,0.536831123316931
284,0.00043490645475685596,1.0,0.3916139006614685,0.536831123316931
285,0.0004316598642617464,1.0,0.3918227255344391,0.536831123316931
286,0.0004284160677343607,1.0,0.3919265866279602,0.536831123316931
287,0.00042532215593382716,1.0,0.392242431640625,0.536831123316931
288,0.00042212617699988186,1.0,0.39252030849456787,0.536831123316931
289,0.0004190696054138243,1.0,0.3928704857826233,0.536831123316931
290,0.0004159998497925699,1.0,0.39299625158309937,0.536831123316931
291,0.00041298853466287255,1.0,0.3933195173740387,0.536831123316931
292,0.0004099594079889357,1.0,0.39339107275009155,0.536831123316931
293,0.00040699922828935087,1.0,0.3936683237552643,0.536831123316931
294,0.0004040973726660013,1.0,0.3939960300922394,0.536831123316931
295,0.00040107668610289693,1.0,0.3940282464027405,0.536831123316931
296,0.0003982560010626912,1.0,0.39431631565093994,0.536831123316931
297,0.00039538275450468063,1.0,0.39451223611831665,0.536831123316931
298,0.00039249169640243053,1.0,0.3948180079460144,0.536831123316931
299,0.00038976361975073814,1.0,0.3952006995677948,0.536831123316931
300,0.0003869120264425874,1.0,0.39528876543045044,0.536831123316931
301,0.00038422024226747453,1.0,0.3955604135990143,0.5368825891419506
302,0.0003814987139776349,1.0,0.39574819803237915,0.5368825891419506
303,0.00037875695852562785,1.0,0.3957102596759796,0.5368825891419506
304,0.0003761498664971441,1.0,0.3959718346595764,0.5368825891419506
305,0.0003735005157068372,1.0,0.39626970887184143,0.5368825891419506
306,0.0003708433359861374,1.0,0.396418958902359,0.5368825891419506
307,0.00036830425960943103,1.0,0.39673522114753723,0.5368825891419506
308,0.0003657336928881705,1.0,0.39692991971969604,0.5368825891419506
309,0.0003631703439168632,1.0,0.3970622718334198,0.5368825891419506
310,0.00036067343899048865,1.0,0.3971971571445465,0.5368825891419506
311,0.0003581782802939415,1.0,0.39729583263397217,0.5368825891419506
312,0.00035567639861255884,1.0,0.3974181115627289,0.5368825891419506
313,0.000353303796146065,1.0,0.3977780342102051,0.5368825891419506
314,0.00035083710099570453,1.0,0.39802828431129456,0.5368825891419506
315,0.0003484941553324461,1.0,0.3983224034309387,0.5368825891419506
316,0.00034608610440045595,1.0,0.3984123170375824,0.5368825891419506
317,0.00034374604001641273,1.0,0.3986473083496094,0.5368825891419506
318,0.00034141598735004663,1.0,0.3987904191017151,0.5368825891419506
319,0.00033910165075212717,1.0,0.39895525574684143,0.5345677743271358
320,0.00033684770460240543,1.0,0.39923447370529175,0.5345677743271358
321,0.0003345445729792118,1.0,0.39926427602767944,0.5345677743271358
322,0.0003323886776342988,1.0,0.3994669020175934,0.5345677743271358
323,0.00033011604682542384,1.0,0.3995334208011627,0.5368825891419506
324,0.000327939196722582,1.0,0.3997597396373749,0.5368825891419506
325,0.00032573824864812195,1.0,0.3998572826385498,0.5368825891419506
326,0.00032361308694817126,1.0,0.4001108407974243,0.5368825891419506
327,0.0003214757307432592,1.0,0.4003606140613556,0.5368825891419506
328,0.00031936343293637037,1.0,0.4006081819534302,0.5345677743271358
329,0.00031722287531010807,1.0,0.4008179008960724,0.5345677743271358
330,0.0003151940763927996,1.0,0.4011514484882355,0.5345677743271358
331,0.0003130848053842783,1.0,0.4012949764728546,0.5345677743271358
332,0.00031104008667171,1.0,0.40151146054267883,0.5345677743271358
333,0.00030900759156793356,1.0,0.4016185402870178,0.5345677743271358
334,0.0003070333623327315,1.0,0.4018774628639221,0.5345677743271358
335,0.0003050253726541996,1.0,0.4020180404186249,0.5345677743271358
336,0.0003030492807738483,1.0,0.4023230969905853,0.5345677743271358
337,0.0003011359949596226,1.0,0.4025062620639801,0.5345677743271358
338,0.0002992000081576407,1.0,0.4026322662830353,0.5345677743271358
339,0.00029728031950071454,1.0,0.4027649462223053,0.5345677743271358
340,0.00029541811090894043,1.0,0.4028948247432709,0.5345677743271358
341,0.00029354370781220496,1.0,0.4031257927417755,0.5206788854382469
342,0.00029171432834118605,1.0,0.40343931317329407,0.5206788854382469
343,0.0002898620441555977,1.0,0.4034684896469116,0.5206788854382469
344,0.00028805184410884976,1.0,0.40371444821357727,0.5206788854382469
345,0.00028619886143133044,1.0,0.403772234916687,0.5206788854382469
346,0.0002844107220880687,1.0,0.4039446711540222,0.5206788854382469
347,0.00028263303101994097,1.0,0.40416303277015686,0.5206788854382469
348,0.000280839012702927,1.0,0.40424445271492004,0.5206788854382469
349,0.00027911708457395434,1.0,0.4044519364833832,0.5206788854382469
350,0.00027735205367207527,1.0,0.40452757477760315,0.5206788854382469
351,0.0002756610338110477,1.0,0.40478596091270447,0.5206788854382469
352,0.00027394009521231055,1.0,0.4048721492290497,0.5206788854382469
353,0.00027224665973335505,1.0,0.40509289503097534,0.5206776360629345
354,0.00027061914443038404,1.0,0.4054476320743561,0.5206763647687571
355,0.00026891124434769154,1.0,0.4054756760597229,0.5206763647687571
356,0.0002672730479389429,1.0,0.4057210385799408,0.5206776360629345
357,0.00026570074260234833,1.0,0.4061925411224365,0.5188257842110828
358,0.00026405445532873273,1.0,0.406351774930954,0.5188270335863951
359,0.0002624644839670509,1.0,0.40655606985092163,0.5188270335863951
360,0.00026091450126841664,1.0,0.4068869948387146,0.5188257842110828
361,0.00025927473325282335,1.0,0.4068656265735626,0.5188245129169053
362,0.0002577381092123687,1.0,0.40713202953338623,0.5188245129169053
363,0.00025619028019718826,1.0,0.4072904586791992,0.5188245129169053
364,0.00025464253849349916,1.0,0.4074600636959076,0.5188245129169053
365,0.0002531579521019012,1.0,0.40774500370025635,0.5188245129169053
366,0.0002516076201573014,1.0,0.40792956948280334,0.5188245129169053
367,0.0002501312119420618,1.0,0.40812888741493225,0.5188245129169053
368,0.00024864095030352473,1.0,0.40813934803009033,0.5188245129169053
369,0.0002471781917847693,1.0,0.40835344791412354,0.5188245129169053
370,0.00024571188259869814,1.0,0.4085012972354889,0.5188245129169053
371,0.00024427444441244006,1.0,0.40861979126930237,0.5176638660645351
372,0.0002428584557492286,1.0,0.40892428159713745,0.5176638660645351
373,0.0002414952323306352,1.0,0.4093162715435028,0.5188245129169053
374,0.0002400104858679697,1.0,0.4092893898487091,0.5176638660645351
375,0.00023864256218075752,1.0,0.4095272421836853,0.5176638660645351
376,0.0002372576273046434,1.0,0.4098311960697174,0.5188245129169053
377,0.0002358538331463933,1.0,0.40987226366996765,0.5176638660645351
378,0.0002345054963370785,1.0,0.4101676046848297,0.5176638660645351
379,0.0002331552968826145,1.0,0.41027170419692993,0.5176638660645351
380,0.00023178185801953077,1.0,0.41029882431030273,0.5177050683712392
381,0.00023048925504554063,1.0,0.41055771708488464,0.5177050683712392
382,0.00022911097039468586,1.0,0.4105469286441803,0.5177050683712392
383,0.00022781279403716326,1.0,0.41074031591415405,0.5177050683712392
384,0.00022652430925518274,1.0,0.41093313694000244,0.5177050683712392
385,0.00022518998594023287,1.0,0.4109872579574585,0.5177050683712392
386,0.00022394704865291715,1.0,0.4113054871559143,0.5177050683712392
387,0.00022265381994657218,1.0,0.41142645478248596,0.5177050683712392
388,0.00022140183136798441,1.0,0.41165584325790405,0.5177050683712392
389,0.00022014739806763828,1.0,0.4118151366710663,0.5177050683712392
390,0.00021890795323997736,1.0,0.4119211733341217,0.5177050683712392
391,0.00021767051657661796,1.0,0.4120294749736786,0.5177050683712392
392,0.00021643041691277176,1.0,0.41226857900619507,0.5177050683712392
393,0.000215238454984501,1.0,0.41248026490211487,0.5177050683712392
394,0.00021401370759122074,1.0,0.4125770926475525,0.5177050683712392
395,0.00021283315436448902,1.0,0.41289302706718445,0.5177050683712392
396,0.0002116312098223716,1.0,0.41305065155029297,0.5177050683712392
397,0.00021048638154752553,1.0,0.4132646918296814,0.5177050683712392
398,0.0002092650975100696,1.0,0.41324716806411743,0.5177050683712392
399,0.00020811587455682456,1.0,0.413473904132843,0.5177050683712392
400,0.00020696240244433284,1.0,0.413632333278656,0.5177050683712392
401,0.0002058086101897061,1.0,0.41373321413993835,0.5177050683712392
402,0.0002046785957645625,1.0,0.4138120710849762,0.5177050683712392
403,0.00020354271691758186,1.0,0.4138832092285156,0.5177050683712392
404,0.00020246472558937967,1.0,0.41415277123451233,0.5177050683712392
405,0.0002013221092056483,1.0,0.4141630232334137,0.5177050683712392
406,0.00020023927208967507,1.0,0.41435685753822327,0.5177050683712392
407,0.0001991286117117852,1.0,0.41455212235450745,0.5177050683712392
408,0.0001980660017579794,1.0,0.4148542881011963,0.5177050683712392
409,0.00019694215734489262,1.0,0.41491609811782837,0.5177050683712392
410,0.00019587711722124368,1.0,0.41514483094215393,0.5177050683712392
411,0.00019481450726743788,1.0,0.41535547375679016,0.5177050683712392
412,0.00019375106785446405,1.0,0.41554349660873413,0.5177050683712392
413,0.0001927160774357617,1.0,0.4157649576663971,0.5177050683712392
414,0.00019164569675922394,1.0,0.4157532751560211,0.5177050683712392
415,0.00019062132923863828,1.0,0.4160062372684479,0.5177050683712392
416,0.0001895737659651786,1.0,0.4161567986011505,0.5177050683712392
417,0.00018858886323869228,1.0,0.4163185656070709,0.5164936810385282
418,0.00018752622418105602,1.0,0.4162575304508209,0.5164936810385282
419,0.00018656617612577975,1.0,0.4165278971195221,0.5164936810385282
420,0.00018555943097453564,1.0,0.41669872403144836,0.5164936810385282
421,0.00018456432735547423,1.0,0.416883647441864,0.5164936810385282
422,0.00018359284149482846,1.0,0.41709914803504944,0.5164936810385282
423,0.00018260988872498274,1.0,0.41724440455436707,0.5164936810385282
424,0.00018164823995903134,1.0,0.4173688590526581,0.5164936810385282
425,0.000180669900146313,1.0,0.41739359498023987,0.5164936810385282
426,0.00017975260561797768,1.0,0.4176376760005951,0.5164936810385282
427,0.00017876684432849288,1.0,0.41765013337135315,0.5164936810385282
428,0.00017783467774279416,1.0,0.41784802079200745,0.5164936810385282
429,0.00017688599473331124,1.0,0.41796398162841797,0.5164936810385282
430,0.00017598771955817938,1.0,0.4181274473667145,0.5164936810385282
431,0.00017504076822660863,1.0,0.4182300865650177,0.5164936810385282
432,0.0001741515297908336,1.0,0.4184969663619995,0.5164936810385282
433,0.00017322134226560593,1.0,0.41866639256477356,0.5164936810385282
434,0.00017234525876119733,1.0,0.41891565918922424,0.5164936810385282
435,0.0001714260724838823,1.0,0.419003427028656,0.5164936810385282
436,0.0001705610193312168,1.0,0.41923683881759644,0.5164936810385282
437,0.00016967378905974329,1.0,0.41927191615104675,0.5164936810385282
438,0.0001688174088485539,1.0,0.419472873210907,0.5164936810385282
439,0.00016796166892163455,1.0,0.41969940066337585,0.5164936810385282
440,0.00016708188923075795,1.0,0.41967064142227173,0.5164936810385282
441,0.00016624582349322736,1.0,0.4198898375034332,0.5164936810385282
442,0.0001653815124882385,1.0,0.4199673533439636,0.5164936810385282
443,0.0001645353331696242,1.0,0.42016294598579407,0.5164936810385282
444,0.00016370514640584588,1.0,0.4203353226184845,0.5164936810385282
445,0.0001628616009838879,1.0,0.4204954504966736,0.5164936810385282
446,0.000162057374836877,1.0,0.42071133852005005,0.5164936810385282
447,0.00016121432418003678,1.0,0.42081400752067566,0.5164936810385282
448,0.00016042348579503596,1.0,0.4211410880088806,0.5164936810385282
449,0.00015960204473230988,1.0,0.421267569065094,0.5164936810385282
450,0.00015880295541137457,1.0,0.4213518500328064,0.5164936810385282
451,0.000158008246216923,1.0,0.4214407801628113,0.5164936810385282
452,0.00015723827527835965,1.0,0.4215922951698303,0.5164936810385282
453,0.00015643908409401774,1.0,0.42157140374183655,0.5164936810385282
454,0.00015569085371680558,1.0,0.4218512773513794,0.5164936810385282
455,0.00015489495126530528,1.0,0.4219192862510681,0.5164936810385282
456,0.00015412672655656934,1.0,0.422087699174881,0.5164936810385282
457,0.00015337171498686075,1.0,0.42220214009284973,0.5164936810385282
458,0.00015259684005286545,1.0,0.4222092032432556,0.5164936810385282
459,0.0001518598000984639,1.0,0.42248037457466125,0.5164936810385282
460,0.00015109989908523858,1.0,0.42260298132896423,0.5164936810385282
461,0.000150357824168168,1.0,0.4227931797504425,0.5164936810385282
462,0.0001496129552833736,1.0,0.4229399263858795,0.5164936810385282
463,0.000148901846841909,1.0,0.4232174754142761,0.5118640514088986
464,0.00014814577298238873,1.0,0.4234045743942261,0.5118640514088986
465,0.00014744536019861698,1.0,0.42360004782676697,0.5118640514088986
466,0.00014671773533336818,1.0,0.4236675202846527,0.5118640514088986
467,0.0001460211060475558,1.0,0.4238717555999756,0.5118640514088986
468,0.00014529319014400244,1.0,0.4239826202392578,0.5118640514088986
469,0.00014460415695793927,1.0,0.424226313829422,0.5118640514088986
470,0.00014388427371159196,1.0,0.4243086874485016,0.5118640514088986
471,0.00014317726891022176,1.0,0.4244019687175751,0.5118640514088986
472,0.00014248318620957434,1.0,0.42455148696899414,0.5118640514088986
473,0.00014178003766573966,1.0,0.42465099692344666,0.5118640514088986
474,0.00014108855975791812,1.0,0.42482417821884155,0.5118640514088986
475,0.00014040831592865288,1.0,0.42503198981285095,0.5118640514088986
476,0.00013972737360745668,1.0,0.42512479424476624,0.5118640514088986
477,0.00013904916704632342,1.0,0.4252053499221802,0.5118640514088986
478,0.00013837932783644646,1.0,0.4253430962562561,0.5118640514088986
479,0.00013771522208116949,1.0,0.4255242943763733,0.5118640514088986
480,0.00013705060700885952,1.0,0.4256727695465088,0.5118640514088986
481,0.00013640016550198197,1.0,0.4258140027523041,0.5118640514088986
482,0.000135756068630144,1.0,0.42593854665756226,0.5118640514088986
483,0.00013510423013940454,1.0,0.4261484444141388,0.5118640514088986
484,0.00013445873628370464,1.0,0.426373690366745,0.5118640514088986
485,0.00013382118777371943,1.0,0.4265420436859131,0.5118640514088986
486,0.0001331889070570469,1.0,0.42674750089645386,0.5118640514088986
487,0.00013254955410957336,1.0,0.42688891291618347,0.5118640514088986
488,0.00013191129255574197,1.0,0.4270602762699127,0.5118640514088986
489,0.0001312913082074374,1.0,0.4272012710571289,0.5118640514088986
490,0.00013066206884104759,1.0,0.4272690415382385,0.5118640514088986
491,0.00013004732318222523,1.0,0.427452951669693,0.5118640514088986
492,0.00012941147724632174,1.0,0.42753365635871887,0.5118640514088986
493,0.00012880975555162877,1.0,0.42762961983680725,0.5118640514088986
494,0.00012820627307519317,1.0,0.42782312631607056,0.5118640514088986
495,0.0001275892136618495,1.0,0.42796432971954346,0.5118640514088986
496,0.0001269891217816621,1.0,0.4281735420227051,0.5048645669969701
497,0.00012639605847653002,1.0,0.4283078908920288,0.5048645669969701
498,0.0001257980620721355,1.0,0.4283830225467682,0.5118615088205436
499,0.0001252219663001597,1.0,0.4285440742969513,0.512180226298352
500,0.0001246366009581834,1.0,0.42875078320503235,0.512180226298352
501,0.0001240528654307127,1.0,0.42898744344711304,0.5051807418864236
502,0.00012346716539468616,1.0,0.42916080355644226,0.5051807418864236
503,0.0001229040790349245,1.0,0.42929497361183167,0.5051807418864236
504,0.0001223347062477842,1.0,0.4294666051864624,0.5051807418864236
505,0.00012178063479950652,1.0,0.42958101630210876,0.5051807418864236
506,0.00012120929022785276,1.0,0.4295850992202759,0.5051807418864236
507,0.00012066408089594916,1.0,0.42976611852645874,0.5051807418864236
508,0.00012010265345452353,1.0,0.42991337180137634,0.512180226298352
509,0.00011956469097640365,1.0,0.43007099628448486,0.5051807418864236
510,0.00011901713151019067,1.0,0.4302833676338196,0.512180226298352
511,0.0001184630164061673,1.0,0.43031251430511475,0.5122320437277279
512,0.00011793180601671338,1.0,0.4304623007774353,0.5122320437277279
513,0.0001174001008621417,1.0,0.43067261576652527,0.512180226298352
514,0.00011685919162118807,1.0,0.4307463765144348,0.512180226298352
515,0.00011634820111794397,1.0,0.43093082308769226,0.512180226298352
516,0.00011581544822547585,1.0,0.43111568689346313,0.512180226298352
517,0.00011529845505720004,1.0,0.4312727451324463,0.5122401241355665
518,0.00011478015221655369,1.0,0.43129101395606995,0.5122401241355665
519,0.00011427164281485602,1.0,0.4315078556537628,0.5122291592232857
520,0.0001137558720074594,1.0,0.4316582679748535,0.5122401241355665
521,0.00011325137165840715,1.0,0.4317570626735687,0.5122401241355665
522,0.00011276096483925357,1.0,0.4318861663341522,0.5122401241355665
523,0.00011224378977203742,1.0,0.4320001006126404,0.5122401241355665
524,0.00011174257087986916,1.0,0.43210265040397644,0.5122401241355665
525,0.00011125352466478944,1.0,0.43220892548561096,0.5122401241355665
526,0.00011076117516495287,1.0,0.43237197399139404,0.5122401241355665
527,0.00011027822620235384,1.0,0.4327224791049957,0.5122401241355665
528,0.00010977893543895334,1.0,0.43275970220565796,0.5122401241355665
529,0.00010930803546216339,1.0,0.43276605010032654,0.5122401241355665
530,0.00010883640788961202,1.0,0.43304041028022766,0.5122401241355665
531,0.00010834416025318205,1.0,0.4331585466861725,0.5122401241355665
532,0.00010786839993670583,1.0,0.43325555324554443,0.5122350665569795
533,0.00010740716243162751,1.0,0.4333299994468689,0.5122350665569795
534,0.0001069374120561406,1.0,0.43354368209838867,0.5122350665569795
535,0.00010645317524904385,1.0,0.4336318075656891,0.5122350665569795
536,0.00010600584209896624,1.0,0.4337488114833832,0.5122350665569795
537,0.00010555808694334701,1.0,0.4338788688182831,0.5122350665569795
538,0.00010509103594813496,1.0,0.434014230966568,0.5122350665569795
539,0.00010462923819432035,1.0,0.434131920337677,0.5122350665569795
540,0.00010418609599582851,1.0,0.43439972400665283,0.5122350665569795
541,0.00010372797260060906,1.0,0.43450817465782166,0.5122350665569795
542,0.00010328450298402458,1.0,0.4346539080142975,0.5122350665569795
543,0.00010282737639499828,1.0,0.43472909927368164,0.5122350665569795
544,0.00010238644608762115,1.0,0.4348185062408447,0.5122350665569795
545,0.00010194505011895671,1.0,0.4348738491535187,0.51205033749294
546,0.00010151496826438233,1.0,0.4351535439491272,0.51205033749294
547,0.00010106537956744432,1.0,0.43524327874183655,0.51205033749294
548,0.0001006277889246121,1.0,0.435300350189209,0.51205033749294
549,0.00010020773333963007,1.0,0.4356108605861664,0.51205033749294
550,9.97812021523714e-05,1.0,0.43575504422187805,0.51205033749294
551,9.93436697172001e-05,1.0,0.4357539117336273,0.51205033749294
552,9.893115930026397e-05,1.0,0.43598663806915283,0.51205033749294
553,9.851370850810781e-05,1.0,0.4361395835876465,0.51205033749294
554,9.807566675590351e-05,1.0,0.43608734011650085,0.51205033749294
555,9.766990115167573e-05,1.0,0.4363285005092621,0.51205033749294
556,9.725635754875839e-05,1.0,0.43647173047065735,0.5259392263818289
557,9.683796815807e-05,1.0,0.4365656077861786,0.5259392263818289
558,9.642990335123613e-05,1.0,0.4367780387401581,0.5259392263818289
559,9.602290811017156e-05,1.0,0.4368668794631958,0.5259392263818289
560,9.561385377310216e-05,1.0,0.43696334958076477,0.5259392263818289
561,9.52123518800363e-05,1.0,0.43721818923950195,0.5259392263818289
562,9.480732842348516e-05,1.0,0.43736544251441956,0.5259392263818289
563,9.441553265787661e-05,1.0,0.43741387128829956,0.5259392263818289
564,9.401178976986557e-05,1.0,0.43754851818084717,0.5259392263818289
565,9.361776756122708e-05,1.0,0.43763023614883423,0.5259392263818289
566,9.322189725935459e-05,1.0,0.437671422958374,0.5259392263818289
567,9.284642146667466e-05,1.0,0.4380169212818146,0.5259392263818289
568,9.245522960554808e-05,1.0,0.43808168172836304,0.5259846413376582
569,9.206199320033193e-05,1.0,0.4380747973918915,0.5259846413376582
570,9.16893404792063e-05,1.0,0.43831074237823486,0.5259846413376582
571,9.130084072239697e-05,1.0,0.4384634792804718,0.5259846413376582
572,9.091723768506199e-05,1.0,0.4385935366153717,0.5259846413376582
573,9.053690155269578e-05,1.0,0.43864598870277405,0.5259846413376582
574,9.016631520353258e-05,1.0,0.43869420886039734,0.5259846413376582
575,8.979339327197522e-05,1.0,0.4388713538646698,0.5259846413376582
576,8.942942076828331e-05,1.0,0.4391009509563446,0.5259846413376582
577,8.904135029297322e-05,1.0,0.43912023305892944,0.5259846413376582
578,8.868383156368509e-05,1.0,0.43925371766090393,0.5259846413376582
579,8.831205195747316e-05,1.0,0.43938174843788147,0.5259846413376582
580,8.795304165687412e-05,1.0,0.4395560026168823,0.5259846413376582
581,8.758038165979087e-05,1.0,0.4396553039550781,0.5259846413376582
582,8.723755308892578e-05,1.0,0.4398694336414337,0.5259846413376582
583,8.687234367243946e-05,1.0,0.4399048984050751,0.5259846413376582
584,8.651641837786883e-05,1.0,0.44011250138282776,0.5259846413376582
585,8.616103150416166e-05,1.0,0.44020217657089233,0.5259846413376582
586,8.580405847169459e-05,1.0,0.44025319814682007,0.5259846413376582
587,8.545778837287799e-05,1.0,0.4405708611011505,0.5259846413376582
588,8.511042688041925e-05,1.0,0.4406951367855072,0.5259846413376582
589,8.475297363474965e-05,1.0,0.4406745731830597,0.5259846413376582
590,8.442347461823374e-05,1.0,0.4410277307033539,0.5259846413376582
591,8.408234134549275e-05,1.0,0.4411967694759369,0.5259846413376582
592,8.372349839191884e-05,1.0,0.4411286413669586,0.5259846413376582
593,8.339431951753795e-05,1.0,0.4413148760795593,0.5259846413376582
594,8.306633390020579e-05,1.0,0.44149601459503174,0.5259846413376582
595,8.271844126284122e-05,1.0,0.44157978892326355,0.5259846413376582
596,8.239751332439482e-05,1.0,0.44176188111305237,0.5259846413376582
597,8.206305210478604e-05,1.0,0.44178149104118347,0.5259846413376582
598,8.1734819104895e-05,1.0,0.44176772236824036,0.5260438043512861
599,8.140348654706031e-05,1.0,0.44205594062805176,0.5260438043512861
600,8.108859037747607e-05,1.0,0.4422089457511902,0.5260438043512861
601,8.074169454630464e-05,1.0,0.4420986771583557,0.5260438043512861
602,8.042613626457751e-05,1.0,0.44226065278053284,0.5260438043512861
603,8.011188765522093e-05,1.0,0.4423920512199402,0.5260438043512861
604,7.978735084179789e-05,1.0,0.44256263971328735,0.5260438043512861
605,7.947343692649156e-05,1.0,0.44279202818870544,0.5260438043512861
606,7.914967864053324e-05,1.0,0.4428006112575531,0.5241906587044747
607,7.884633669164032e-05,1.0,0.4429991543292999,0.5241906587044747
608,7.853356510167941e-05,1.0,0.44314703345298767,0.5241906587044747
609,7.82178103690967e-05,1.0,0.4433254301548004,0.5241906587044747
610,7.791280950186774e-05,1.0,0.4433837831020355,0.5241906587044747
611,7.760803418932483e-05,1.0,0.44354161620140076,0.5241906587044747
612,7.73103820392862e-05,1.0,0.4437226355075836,0.5241906587044747
613,7.699186244281009e-05,1.0,0.4437693655490875,0.5241906587044747
614,7.669245678698644e-05,1.0,0.44397348165512085,0.5241906587044747
615,7.638704846613109e-05,1.0,0.4440478980541229,0.5241906587044747
616,7.60857219574973e-05,1.0,0.4440697431564331,0.5241906587044747
617,7.579218072351068e-05,1.0,0.4442921280860901,0.5241906587044747
618,7.548930443590507e-05,1.0,0.4443681240081787,0.5241906587044747
619,7.51972256693989e-05,1.0,0.4445284903049469,0.5380795475933636
620,7.490638381568715e-05,1.0,0.44468969106674194,0.5380795475933636
621,7.461907080141827e-05,1.0,0.44498327374458313,0.5380795475933636
622,7.431593257933855e-05,1.0,0.4449850618839264,0.5241906587044747
623,7.403267954941839e-05,1.0,0.4451032876968384,0.5241906587044747
624,7.374449342023581e-05,1.0,0.4451889991760254,0.5380795475933636
625,7.346174243139103e-05,1.0,0.4454120993614197,0.5241906587044747
626,7.316714618355036e-05,1.0,0.4454384446144104,0.5241906587044747
627,7.28891754988581e-05,1.0,0.44562870264053345,0.5241906587044747
628,7.259649282786995e-05,1.0,0.44572713971138,0.5242380588395326
629,7.23177581676282e-05,1.0,0.44587358832359314,0.5242380588395326
630,7.203951827250421e-05,1.0,0.44613805413246155,0.5242380588395326
631,7.175050268415362e-05,1.0,0.44621148705482483,0.5242380588395326
632,7.147812721086666e-05,1.0,0.44633570313453674,0.5242380588395326
633,7.12011315044947e-05,1.0,0.4464932084083557,0.5242380588395326
634,7.093363092280924e-05,1.0,0.44667187333106995,0.5242380588395326
635,7.064803503453732e-05,1.0,0.4467299282550812,0.5242380588395326
636,7.038829062366858e-05,1.0,0.44687801599502563,0.5242380588395326
637,7.01007666066289e-05,1.0,0.446922242641449,0.5242380588395326
638,6.984049105085433e-05,1.0,0.44715848565101624,0.5242380588395326
639,6.957387086004019e-05,1.0,0.44725343585014343,0.5242380588395326
640,6.929829396540299e-05,1.0,0.4472370743751526,0.5381269477284215
641,6.904061592649668e-05,1.0,0.4473864734172821,0.5381269477284215
642,6.8768480559811e-05,1.0,0.4474732577800751,0.5381269477284215
643,6.85118866385892e-05,1.0,0.4476163685321808,0.5381269477284215
644,6.825097079854459e-05,1.0,0.4476780295372009,0.5381269477284215
645,6.799010589020327e-05,1.0,0.4477195739746094,0.5381269477284215
646,6.772183405701071e-05,1.0,0.44787564873695374,0.5381269477284215
647,6.747309089405462e-05,1.0,0.4480138421058655,0.5381269477284215
648,6.722096441080794e-05,1.0,0.448193222284317,0.5381269477284215
649,6.696063792333007e-05,1.0,0.44829046726226807,0.5381269477284215
650,6.672002200502902e-05,1.0,0.4484310746192932,0.5381269477284215
651,6.645534449489787e-05,1.0,0.44843775033950806,0.5381269477284215
652,6.621262582484633e-05,1.0,0.448695570230484,0.5381269477284215
653,6.595367449335754e-05,1.0,0.4487369954586029,0.5381269477284215
654,6.570590630872175e-05,1.0,0.4488353133201599,0.5381269477284215
655,6.54729810776189e-05,1.0,0.4490504860877991,0.5381269477284215
656,6.521026080008596e-05,1.0,0.4490481913089752,0.5381269477284215
657,6.497760477941483e-05,1.0,0.44920673966407776,0.5381269477284215
658,6.473954999819398e-05,1.0,0.44941091537475586,0.5381269477284215
659,6.448341446230188e-05,1.0,0.4493865370750427,0.5381269477284215
660,6.424884486477822e-05,1.0,0.44949689507484436,0.5381269477284215
661,6.402277358574793e-05,1.0,0.4496762454509735,0.5381269477284215
662,6.377750833053142e-05,1.0,0.44974032044410706,0.5381269477284215
663,6.355158984661102e-05,1.0,0.4498613178730011,0.5381269477284215
664,6.330614269245416e-05,1.0,0.44997426867485046,0.5381269477284215
665,6.307584408205003e-05,1.0,0.4501737952232361,0.5381269477284215
666,6.283268157858402e-05,1.0,0.4502812922000885,0.5381269477284215
667,6.260783993639052e-05,1.0,0.45046892762184143,0.5381269477284215
668,6.237096386030316e-05,1.0,0.4505295753479004,0.5381269477284215
669,6.214724999153987e-05,1.0,0.45068052411079407,0.5381269477284215
670,6.191455759108067e-05,1.0,0.45086899399757385,0.5381269477284215
671,6.168139952933416e-05,1.0,0.45097604393959045,0.5381269477284215
672,6.146475789137185e-05,1.0,0.45111343264579773,0.5381269477284215
673,6.123376806499436e-05,1.0,0.45112964510917664,0.5381269477284215
674,6.102098268456757e-05,1.0,0.4512733817100525,0.5381269477284215
675,6.078573642298579e-05,1.0,0.4512558579444885,0.5381269477284215
676,6.057487189536914e-05,1.0,0.4514303207397461,0.5381269477284215
677,6.0351019783411175e-05,1.0,0.45147764682769775,0.5381269477284215
678,6.012579979142174e-05,1.0,0.45161423087120056,0.5381269477284215
679,5.991810030536726e-05,1.0,0.451835960149765,0.5381269477284215
680,5.968897312413901e-05,1.0,0.4519256055355072,0.5381269477284215
681,5.948042235104367e-05,1.0,0.4520893692970276,0.5381269477284215
682,5.92610813328065e-05,1.0,0.4522097408771515,0.5381269477284215
683,5.9049809351563454e-05,1.0,0.4524342119693756,0.5381269477284215
684,5.884262645849958e-05,1.0,0.4526239037513733,0.5381269477284215
685,5.861015597474761e-05,1.0,0.4525269865989685,0.5381269477284215
686,5.840793892275542e-05,1.0,0.45264244079589844,0.5381269477284215
687,5.8195455494569615e-05,1.0,0.4527803659439087,0.5381269477284215
688,5.79895859118551e-05,1.0,0.4529511630535126,0.5381269477284215
689,5.778615741292015e-05,1.0,0.4530053734779358,0.5381269477284215
690,5.7564786402508616e-05,1.0,0.4529433250427246,0.5381269477284215
691,5.737006722483784e-05,1.0,0.4531668722629547,0.5381269477284215
692,5.716030136682093e-05,1.0,0.4532519578933716,0.5381269477284215
693,5.6951757869683206e-05,1.0,0.45329371094703674,0.5381269477284215
694,5.675597276422195e-05,1.0,0.453407883644104,0.5381269477284215
695,5.6539436627645046e-05,1.0,0.4534629285335541,0.5381269477284215
696,5.634471744997427e-05,1.0,0.45363330841064453,0.5381269477284215
697,5.6136785133276135e-05,1.0,0.45372968912124634,0.5381269477284215
698,5.594050890067592e-05,1.0,0.4538411498069763,0.5381269477284215
699,5.574798706220463e-05,1.0,0.45404255390167236,0.5381269477284215
700,5.5536725994898006e-05,1.0,0.4541113078594208,0.5381269477284215
701,5.53467107238248e-05,1.0,0.4542660713195801,0.5381269477284215
702,5.51525445189327e-05,1.0,0.4544491767883301,0.5381269477284215
703,5.496173253050074e-05,1.0,0.45461955666542053,0.5381269477284215
704,5.4753851145505905e-05,1.0,0.45466676354408264,0.5381269477284215
705,5.4565352911595255e-05,1.0,0.4548608064651489,0.5381269477284215
706,5.436748324427754e-05,1.0,0.4549521505832672,0.5381269477284215
707,5.4176682169782e-05,1.0,0.45514318346977234,0.5381269477284215
708,5.3991388995200396e-05,1.0,0.455297589302063,0.5381269477284215
709,5.379202775657177e-05,1.0,0.45528799295425415,0.5381269477284215
710,5.3613854106515646e-05,1.0,0.45543596148490906,0.5381269477284215
711,5.342077201930806e-05,1.0,0.45549577474594116,0.5381269477284215
712,5.322793731465936e-05,1.0,0.455594927072525,0.5381269477284215
713,5.3047660912852734e-05,1.0,0.45580440759658813,0.5381269477284215
714,5.285240331431851e-05,1.0,0.45578208565711975,0.5381269477284215
715,5.266835796646774e-05,1.0,0.4559948742389679,0.5381269477284215
716,5.249335299595259e-05,1.0,0.4562826156616211,0.531127463316493
717,5.230220267549157e-05,1.0,0.4562569260597229,0.531127463316493
718,5.212367977946997e-05,1.0,0.456298828125,0.5381269477284215
719,5.194664845475927e-05,1.0,0.4565018117427826,0.5381269477284215
720,5.1750314014498144e-05,1.0,0.45654404163360596,0.531127463316493
721,5.157439227332361e-05,1.0,0.4566328823566437,0.531138202148108
722,5.139926361152902e-05,1.0,0.45683351159095764,0.5381376865600366
723,5.1215189159847796e-05,1.0,0.4568714201450348,0.5381376865600366
724,5.10409299749881e-05,1.0,0.45698538422584534,0.5381376865600366
725,5.085641532787122e-05,1.0,0.4570360779762268,0.5381376865600366
726,5.068095924798399e-05,1.0,0.45717108249664307,0.5381376865600366
727,5.0510694563854486e-05,1.0,0.4573545455932617,0.5381376865600366
728,5.032268018112518e-05,1.0,0.4573364853858948,0.5381376865600366
729,5.015539500163868e-05,1.0,0.45754358172416687,0.531138202148108
730,4.998333315597847e-05,1.0,0.4577602446079254,0.531138202148108
731,4.9801357818068936e-05,1.0,0.4576587677001953,0.5381376865600366
732,4.963132232660428e-05,1.0,0.45772606134414673,0.5381376865600366
733,4.9462454626336694e-05,1.0,0.4579966366291046,0.531138202148108
734,4.928389535052702e-05,1.0,0.45803049206733704,0.531138202148108
735,4.911270661978051e-05,1.0,0.45808354020118713,0.5381376865600366
736,4.8949521442409605e-05,1.0,0.4583238661289215,0.531138202148108
737,4.8779136704979464e-05,1.0,0.45848941802978516,0.531138202148108
738,4.8608126235194504e-05,1.0,0.4586315155029297,0.5381376865600366
739,4.8448411689605564e-05,1.0,0.45876625180244446,0.5381376865600366
740,4.827145312447101e-05,1.0,0.4587370455265045,0.5381376865600366
741,4.811278631677851e-05,1.0,0.4588899612426758,0.531138202148108
742,4.794517008122057e-05,1.0,0.4591423571109772,0.531138202148108
743,4.777411959366873e-05,1.0,0.45920875668525696,0.531138202148108
744,4.7611807531211525e-05,1.0,0.45926210284233093,0.531138202148108
745,4.745983824250288e-05,1.0,0.45944833755493164,0.5172493132592193
746,4.728818021249026e-05,1.0,0.4593977928161621,0.5172493132592193
747,4.7122332034632564e-05,1.0,0.4595203995704651,0.5172493132592193
748,4.697037365986034e-05,1.0,0.4597196578979492,0.5172493132592193
749,4.679612902691588e-05,1.0,0.459695965051651,0.531138202148108
750,4.6627876145066693e-05,1.0,0.45978879928588867,0.531138202148108
751,4.645821172744036e-05,1.0,0.4600355923175812,0.531138202148108
752,4.628539318218827e-05,1.0,0.46014130115509033,0.531138202148108
753,4.611152326106094e-05,1.0,0.46028247475624084,0.531138202148108
754,4.5952110667712986e-05,1.0,0.46046045422554016,0.531138202148108
755,4.578690277412534e-05,1.0,0.4604857265949249,0.531138202148108
756,4.561720197671093e-05,1.0,0.4605923891067505,0.531138202148108
757,4.546063064481132e-05,1.0,0.46075043082237244,0.531138202148108
758,4.5291199057828635e-05,1.0,0.46078649163246155,0.531138202148108
759,4.513261228566989e-05,1.0,0.4608754515647888,0.5172493132592193
760,4.497381451074034e-05,1.0,0.46097639203071594,0.5172493132592193
761,4.480695497477427e-05,1.0,0.4610125720500946,0.531138202148108
762,4.4644984882324934e-05,1.0,0.4610612094402313,0.531138202148108
763,4.448631079867482e-05,1.0,0.46124401688575745,0.5292401806256389
764,4.432775313034654e-05,1.0,0.4613867998123169,0.5292401806256389
765,4.415948933456093e-05,1.0,0.4614255130290985,0.5292401806256389
766,4.4003620132571086e-05,1.0,0.46144628524780273,0.5292401806256389
767,4.3847234337590635e-05,1.0,0.4615271985530853,0.5292401806256389
768,4.369405360193923e-05,1.0,0.46163007616996765,0.5292392080143721
769,4.353842086857185e-05,1.0,0.4616391956806183,0.5292392080143721
770,4.338872531661764e-05,1.0,0.46173250675201416,0.5292392080143721
771,4.323595203459263e-05,1.0,0.46189871430397034,0.5292392080143721
772,4.3082294723717496e-05,1.0,0.4619651436805725,0.5292392080143721
773,4.292833909858018e-05,1.0,0.46205446124076843,0.5292392080143721
774,4.277798143448308e-05,1.0,0.4620838165283203,0.5292392080143721
775,4.26280457759276e-05,1.0,0.46218687295913696,0.5292392080143721
776,4.248067853040993e-05,1.0,0.46230629086494446,0.5292392080143721
777,4.232503124512732e-05,1.0,0.4623242914676666,0.5292392080143721
778,4.218308822601102e-05,1.0,0.4624735414981842,0.5292401806256389
779,4.2034480429720134e-05,1.0,0.4625965654850006,0.5292392080143721
780,4.1882682126015425e-05,1.0,0.46267515420913696,0.5292392080143721
781,4.174475543550216e-05,1.0,0.46279874444007874,0.5292392080143721
782,4.1590858018025756e-05,1.0,0.46282848715782166,0.5292392080143721
783,4.144728882238269e-05,1.0,0.46291235089302063,0.5292392080143721
784,4.130733577767387e-05,1.0,0.4630061686038971,0.5292392080143721
785,4.1160084947478026e-05,1.0,0.4630853235721588,0.5292401806256389
786,4.1021725337486714e-05,1.0,0.4632277488708496,0.5292401806256389
787,4.0880397136788815e-05,1.0,0.46333810687065125,0.5292392080143721
788,4.073912714375183e-05,1.0,0.4634554088115692,0.5292401806256389
789,4.059509956277907e-05,1.0,0.4635174572467804,0.5292401806256389
790,4.0461356547893956e-05,1.0,0.46356281638145447,0.5292392080143721
791,4.032065407955088e-05,1.0,0.46369272470474243,0.5292392080143721
792,4.018776598968543e-05,1.0,0.46380820870399475,0.5292392080143721
793,4.004200309282169e-05,1.0,0.4638306796550751,0.5292392080143721
794,3.9907710743136704e-05,1.0,0.4639626741409302,0.5292392080143721
795,3.976903099101037e-05,1.0,0.4640357792377472,0.5292392080143721
796,3.962834307458252e-05,1.0,0.46409857273101807,0.5292392080143721
797,3.9500089769717306e-05,1.0,0.46423831582069397,0.5292401806256389
798,3.936468419851735e-05,1.0,0.4643867313861847,0.5292401806256389
799,3.922838004655205e-05,1.0,0.4644685983657837,0.5292401806256389
800,3.909627776010893e-05,1.0,0.46460166573524475,0.5292401806256389
801,3.896501220879145e-05,1.0,0.4646250903606415,0.5292401806256389
802,3.883449608110823e-05,1.0,0.46478161215782166,0.5292401806256389
803,3.870412183459848e-05,1.0,0.46494176983833313,0.5292401806256389
804,3.8564867281820625e-05,1.0,0.4649594724178314,0.5292401806256389
805,3.8439589843619615e-05,1.0,0.46504729986190796,0.5292401806256389
806,3.83066653739661e-05,1.0,0.4651621878147125,0.5292401806256389
807,3.817817923845723e-05,1.0,0.46526283025741577,0.5292401806256389
808,3.804684820352122e-05,1.0,0.4653286933898926,0.5292401806256389
809,3.7918602174613625e-05,1.0,0.46544599533081055,0.5292401806256389
810,3.7785204767715186e-05,1.0,0.4655379354953766,0.5292401806256389
811,3.7659941881429404e-05,1.0,0.4656623899936676,0.5292401806256389
812,3.75364616047591e-05,1.0,0.4657716155052185,0.5292401806256389
813,3.7408695789054036e-05,1.0,0.4658745229244232,0.5292401806256389
814,3.728402953129262e-05,1.0,0.465947687625885,0.5292401806256389
815,3.7160629290156066e-05,1.0,0.46614870429039,0.5292401806256389
816,3.703450784087181e-05,1.0,0.466243177652359,0.5292401806256389
817,3.690477751661092e-05,1.0,0.4662446081638336,0.5292401806256389
818,3.6788576835533604e-05,1.0,0.4663657248020172,0.5292401806256389
819,3.6666198866441846e-05,1.0,0.46645843982696533,0.5292401806256389
820,3.653878593468107e-05,1.0,0.46655598282814026,0.5292401806256389
821,3.6421173717826605e-05,1.0,0.46666887402534485,0.5292401806256389
822,3.6294746678322554e-05,1.0,0.4667651951313019,0.5292401806256389
823,3.6175046261632815e-05,1.0,0.46690645813941956,0.5292401806256389
824,3.6051944334758446e-05,1.0,0.46698251366615295,0.5292401806256389
825,3.593938163248822e-05,1.0,0.46712398529052734,0.5292401806256389
826,3.581600685720332e-05,1.0,0.4672204256057739,0.5292401806256389
827,3.5695702536031604e-05,1.0,0.4673685133457184,0.51535129173675
828,3.557871241355315e-05,1.0,0.46748772263526917,0.51535129173675
829,3.5458644561003894e-05,1.0,0.4675493836402893,0.51535129173675
830,3.534433199092746e-05,1.0,0.4676457941532135,0.51535129173675
831,3.5226174077251926e-05,1.0,0.4676837921142578,0.51535129173675
832,3.510763053782284e-05,1.0,0.46775421500205994,0.51535129173675
833,3.498788282740861e-05,1.0,0.46781736612319946,0.51535129173675
834,3.48763533111196e-05,1.0,0.46793636679649353,0.51535129173675
835,3.475959965726361e-05,1.0,0.4679965078830719,0.51535129173675
836,3.4643046092242e-05,1.0,0.4681364595890045,0.51535129173675
837,3.45294174621813e-05,1.0,0.4682655930519104,0.51535129173675
838,3.4417367714922875e-05,1.0,0.46831586956977844,0.51535129173675
839,3.430467040743679e-05,1.0,0.46844497323036194,0.51535129173675
840,3.4186065022367984e-05,1.0,0.4685247242450714,0.51535129173675
841,3.407747863093391e-05,1.0,0.4686410129070282,0.51535129173675
842,3.3964504837058485e-05,1.0,0.46874189376831055,0.51535129173675
843,3.3858566894195974e-05,1.0,0.4689376652240753,0.51535129173675
844,3.374361403984949e-05,1.0,0.4690231382846832,0.51535129173675
845,3.3628763048909605e-05,1.0,0.4691147208213806,0.51535129173675
846,3.352054045535624e-05,1.0,0.46925878524780273,0.51535129173675
847,3.3410367905162275e-05,1.0,0.469370037317276,0.5148967462822045
848,3.3309057471342385e-05,1.0,0.4695400297641754,0.51535129173675
849,3.319829556858167e-05,1.0,0.4695996344089508,0.51535129173675
850,3.308594023110345e-05,1.0,0.469716876745224,0.5148967462822045
851,3.298158844700083e-05,1.0,0.46984243392944336,0.5148967462822045
852,3.287697836640291e-05,1.0,0.46994680166244507,0.5148967462822045
853,3.276478673797101e-05,1.0,0.46998199820518494,0.5148967462822045
854,3.265984196332283e-05,1.0,0.47014692425727844,0.5148967462822045
855,3.2557054510107264e-05,1.0,0.4702838361263275,0.5148967462822045
856,3.244214167352766e-05,1.0,0.4702923595905304,0.5148967462822045
857,3.233767347410321e-05,1.0,0.470476895570755,0.5148967462822045
858,3.2233394449576735e-05,1.0,0.4706081748008728,0.5148967462822045
859,3.213215313735418e-05,1.0,0.47067901492118835,0.5148967462822045
860,3.201868094038218e-05,1.0,0.47072356939315796,0.5148967462822045
861,3.1925497751217335e-05,1.0,0.4709238111972809,0.5148967462822045
862,3.182291402481496e-05,1.0,0.47105783224105835,0.5148967462822045
863,3.172308788634837e-05,1.0,0.4711749851703644,0.5148967462822045
864,3.161778295179829e-05,1.0,0.4712183177471161,0.5148967462822045
865,3.151952114421874e-05,1.0,0.47134536504745483,0.5148967462822045
866,3.1418057915288955e-05,1.0,0.47143664956092834,0.5148967462822045
867,3.1317646062234417e-05,1.0,0.47155311703681946,0.5148967462822045
868,3.121299232589081e-05,1.0,0.47167742252349854,0.5148967462822045
869,3.111988917225972e-05,1.0,0.4717799723148346,0.5148967462822045
870,3.101394395343959e-05,1.0,0.4718088209629059,0.5148967462822045
871,3.0918410629965365e-05,1.0,0.47196272015571594,0.5148967462822045
872,3.082305920543149e-05,1.0,0.47202980518341064,0.5148967462822045
873,3.072591425734572e-05,1.0,0.47214147448539734,0.5148967462822045
874,3.062918403884396e-05,1.0,0.47226741909980774,0.5148967462822045
875,3.053528052987531e-05,1.0,0.4724031090736389,0.5148967462822045
876,3.043262222490739e-05,1.0,0.4725351929664612,0.5148967462822045
877,3.034052497241646e-05,1.0,0.47268810868263245,0.5148967462822045
878,3.0239505576901138e-05,1.0,0.4726625680923462,0.5148967462822045
879,3.014888716279529e-05,1.0,0.47281211614608765,0.5148967462822045
880,3.0053950467845425e-05,1.0,0.4729205369949341,0.5148967462822045
881,2.995870090671815e-05,1.0,0.47296980023384094,0.5148967462822045
882,2.9864440875826403e-05,1.0,0.47306108474731445,0.5148351371337029
883,2.976764881168492e-05,1.0,0.4732123911380768,0.5148351371337029
884,2.9676317353732884e-05,1.0,0.4732798635959625,0.5148967462822045
885,2.9585611628135666e-05,1.0,0.47340694069862366,0.5148351371337029
886,2.9497587092919275e-05,1.0,0.4735564589500427,0.5148351371337029
887,2.9396414902294055e-05,1.0,0.473562091588974,0.5148351371337029
888,2.9308581360965036e-05,1.0,0.4737352430820465,0.5148351371337029
889,2.9214181267889217e-05,1.0,0.47381728887557983,0.5148351371337029
890,2.9125571018084884e-05,1.0,0.47399112582206726,0.5148967462822045
891,2.90339085040614e-05,1.0,0.4740644693374634,0.5148967462822045
892,2.8942788048880175e-05,1.0,0.4741506576538086,0.5148351371337029
893,2.8855740310973488e-05,1.0,0.474279522895813,0.5148351371337029
894,2.8765432944055647e-05,1.0,0.47429555654525757,0.5102055075040732
895,2.8671478503383696e-05,1.0,0.4743924140930176,0.5148351371337029
896,2.858549851225689e-05,1.0,0.47458088397979736,0.5148351371337029
897,2.8493885110947303e-05,1.0,0.47460684180259705,0.5148351371337029
898,2.8409041988197714e-05,1.0,0.4746665954589844,0.5148351371337029
899,2.8324277081992477e-05,1.0,0.4748596251010895,0.5148351371337029
900,2.823320755851455e-05,1.0,0.474911630153656,0.5148351371337029
901,2.814266917994246e-05,1.0,0.4748860001564026,0.5148351371337029
902,2.80653312074719e-05,1.0,0.4751182198524475,0.5148338202352621
903,2.7981757739325985e-05,1.0,0.47527503967285156,0.5148338202352621
904,2.788199890346732e-05,1.0,0.4752679467201233,0.5148338202352621
905,2.7800298994407058e-05,1.0,0.4754062294960022,0.5009449313463733
906,2.7723333914764225e-05,1.0,0.4755496084690094,0.5009449313463733
907,2.763261363725178e-05,1.0,0.4755549430847168,0.5009449313463733
908,2.754812885541469e-05,1.0,0.4756999611854553,0.5009449313463733
909,2.7461555873742327e-05,1.0,0.4758184254169464,0.5009449313463733
910,2.7378717277315445e-05,1.0,0.4759046137332916,0.5009449313463733
911,2.7299338398734108e-05,1.0,0.47603639960289,0.5009449313463733
912,2.7211601263843477e-05,1.0,0.47613388299942017,0.5148338202352621
913,2.712976493057795e-05,1.0,0.476283460855484,0.5009449313463733
914,2.7052352379541844e-05,1.0,0.4764421284198761,0.5009449313463733
915,2.6963363779941574e-05,1.0,0.4764285087585449,0.5102041906056325
916,2.6886329578701407e-05,1.0,0.47648176550865173,0.5148338202352621
917,2.6804547815117985e-05,1.0,0.4766979217529297,0.5009449313463733
918,2.6722591428551823e-05,1.0,0.4767738878726959,0.5009449313463733
919,2.663938357727602e-05,1.0,0.47673648595809937,0.5009449313463733
920,2.656354263308458e-05,1.0,0.4768902361392975,0.5009449313463733
921,2.6486442948225886e-05,1.0,0.47702497243881226,0.5009449313463733
922,2.6395055101602338e-05,1.0,0.4770371615886688,0.4963153017167436
923,2.631837378430646e-05,1.0,0.4772097170352936,0.4963153017167436
924,2.6241192244924605e-05,1.0,0.4773224890232086,0.4963153017167436
925,2.6158497348660603e-05,1.0,0.47732189297676086,0.4963153017167436
926,2.6078603696078062e-05,1.0,0.47745057940483093,0.4963153017167436
927,2.6000707293860614e-05,1.0,0.47763264179229736,0.4963153017167436
928,2.5922028726199642e-05,1.0,0.4777301847934723,0.4963153017167436
929,2.5841982278507203e-05,1.0,0.47780629992485046,0.5009449313463733
930,2.5765362806851044e-05,1.0,0.4779680073261261,0.5009449313463733
931,2.569005300756544e-05,1.0,0.47807037830352783,0.4963153017167436
932,2.5609027943573892e-05,1.0,0.4781157076358795,0.4963153017167436
933,2.553305239416659e-05,1.0,0.47828251123428345,0.4963153017167436
934,2.5457324227318168e-05,1.0,0.4783550500869751,0.4963153017167436
935,2.5375584300491028e-05,1.0,0.4783308804035187,0.4963153017167436
936,2.5303743313997984e-05,1.0,0.47844281792640686,0.4963153017167436
937,2.5228899175999686e-05,1.0,0.47857311367988586,0.4963153017167436
938,2.514608422643505e-05,1.0,0.4786045253276825,0.4963153017167436
939,2.507526005501859e-05,1.0,0.47871413826942444,0.4963153017167436
940,2.499948641343508e-05,1.0,0.47878625988960266,0.4963153017167436
941,2.4920642317738384e-05,1.0,0.4788324534893036,0.4963153017167436
942,2.4845421648933552e-05,1.0,0.47888651490211487,0.4963153017167436
943,2.4775770725682378e-05,1.0,0.47903597354888916,0.4963153017167436
944,2.4700748326722533e-05,1.0,0.47910043597221375,0.4963153017167436
945,2.462751217535697e-05,1.0,0.47918954491615295,0.4963153017167436
946,2.455185676808469e-05,1.0,0.47937753796577454,0.4963153017167436
947,2.448365921736695e-05,1.0,0.47941064834594727,0.4963756910443139
948,2.440774733258877e-05,1.0,0.47942304611206055,0.4963756910443139
949,2.4340144591405988e-05,1.0,0.47964802384376526,0.4963153017167436
950,2.426497667329386e-05,1.0,0.47983917593955994,0.4963756910443139
951,2.4188462703023106e-05,1.0,0.47986841201782227,0.4963756910443139
952,2.4118686269503087e-05,1.0,0.48001983761787415,0.4963756910443139
953,2.404522820143029e-05,1.0,0.4801371991634369,0.4963756910443139
954,2.3973148927325383e-05,1.0,0.48014095425605774,0.4963756910443139
955,2.390969530097209e-05,1.0,0.4802438020706177,0.4963756910443139
956,2.384007348155137e-05,1.0,0.48033154010772705,0.4963756910443139
957,2.376475094933994e-05,1.0,0.48037639260292053,0.4963756910443139
958,2.3696087737334892e-05,1.0,0.48055586218833923,0.4963756910443139
959,2.3627984774066135e-05,1.0,0.4806532859802246,0.4963756910443139
960,2.35511724895332e-05,1.0,0.48068058490753174,0.4963756910443139
961,2.3485168640036136e-05,1.0,0.480771541595459,0.4963756910443139
962,2.342083098483272e-05,1.0,0.48093658685684204,0.4963756910443139
963,2.334981400053948e-05,1.0,0.4809868633747101,0.4963756910443139
964,2.3275446437764913e-05,1.0,0.4810313582420349,0.4963756910443139
965,2.3209968276205473e-05,1.0,0.4811340868473053,0.4963756910443139
966,2.3143071302911267e-05,1.0,0.4813486337661743,0.4963756910443139
967,2.3073389456840232e-05,1.0,0.48146894574165344,0.4963756910443139
968,2.3000704459263943e-05,1.0,0.4815138876438141,0.4963756910443139
969,2.293311626999639e-05,1.0,0.48164504766464233,0.4963756910443139
970,2.2870795874041505e-05,1.0,0.481791615486145,0.4963756910443139
971,2.2802076273364946e-05,1.0,0.48184797167778015,0.4963756910443139
972,2.2734104277333245e-05,1.0,0.4818570911884308,0.4963756910443139
973,2.2669340978609398e-05,1.0,0.48191124200820923,0.4963756910443139
974,2.260724431835115e-05,1.0,0.4821145832538605,0.4963756910443139
975,2.25364783545956e-05,1.0,0.48218271136283875,0.4963756910443139
976,2.2470223484560847e-05,1.0,0.4822244644165039,0.4963756910443139
977,2.240763024019543e-05,1.0,0.48235172033309937,0.4963756910443139
978,2.234107523690909e-05,1.0,0.48245546221733093,0.4963756910443139
979,2.2276948584476486e-05,1.0,0.4825637638568878,0.4963756910443139
980,2.2211304894881323e-05,1.0,0.48268142342567444,0.4963756910443139
981,2.2147409254102968e-05,1.0,0.4827798306941986,0.4963756910443139
982,2.2084141164668836e-05,1.0,0.48281097412109375,0.4963756910443139
983,2.201798270107247e-05,1.0,0.48288631439208984,0.4963756910443139
984,2.1957441276754253e-05,1.0,0.48302432894706726,0.4963756910443139
985,2.1891435608267784e-05,1.0,0.4830991327762604,0.4963756910443139
986,2.18257810047362e-05,1.0,0.4832560122013092,0.4963756910443139
987,2.1761366951977834e-05,1.0,0.48346036672592163,0.4963756910443139
988,2.1698346245102584e-05,1.0,0.48352357745170593,0.4963756910443139
989,2.163543103961274e-05,1.0,0.48353683948516846,0.4963756910443139
990,2.1571535398834385e-05,1.0,0.4836905896663666,0.4963756910443139
991,2.1509857106138952e-05,1.0,0.4837799668312073,0.4963756910443139
992,2.1441153876367025e-05,1.0,0.4837685823440552,0.4963756910443139
993,2.1383222701842897e-05,1.0,0.4838997423648834,0.4963756910443139
994,2.1317817299859598e-05,1.0,0.48400959372520447,0.4963756910443139
995,2.125809078279417e-05,1.0,0.4840831756591797,0.4963756910443139
996,2.1199293769313954e-05,1.0,0.48420026898384094,0.4963756910443139
997,2.1136031136848032e-05,1.0,0.48422256112098694,0.5010053206739435
998,2.1074956748634577e-05,1.0,0.4842234253883362,0.5010043480626768
999,2.101178324664943e-05,1.0,0.4844346046447754,0.5010053206739435
