,loss,recall,val_loss,val_recall
0,1.1777125597000122,0.2869047619047619,0.6438080668449402,0.3125
1,0.7317644953727722,0.27232142857142855,0.615598738193512,0.3125
2,0.5405259132385254,0.6432299843014129,0.4837441146373749,0.7686507936507937
3,0.36148181557655334,0.8321162964020107,0.436924010515213,0.7635531135531135
4,0.2689654231071472,0.8386948369091226,0.40993285179138184,0.8001744287458573
5,0.18914338946342468,0.9220779220779222,0.4738512337207794,0.8459227280655853
6,0.14667119085788727,0.9488636363636365,0.5827360153198242,0.8256790828219399
7,0.17971216142177582,0.8841117216117216,0.6201654076576233,0.8475143903715333
8,0.16316263377666473,0.920558608058608,0.5096136927604675,0.8374914767771909
9,0.07210113853216171,0.9532312925170068,0.47731682658195496,0.8401971044828188
10,0.05368039011955261,0.9952380952380953,0.5512629747390747,0.8406196977625549
11,0.045949481427669525,0.9672619047619048,0.6725472807884216,0.8705980527409097
12,0.0572345145046711,0.9952380952380953,0.5986183881759644,0.8479068550497122
13,0.08233339339494705,0.9642857142857143,0.8847673535346985,0.8814387992959423
14,0.09243424981832504,0.9066017316017316,0.5935554504394531,0.8162131519274377
15,0.16783113777637482,0.9333333333333333,0.5907257795333862,0.8162028447742733
16,0.19242127239704132,0.9157073085644514,0.87604820728302,0.872570286856001
17,0.13914331793785095,0.9673076923076923,0.6967435479164124,0.8375893947322518
18,0.07783574610948563,0.9642857142857143,0.5698614716529846,0.877952206523635
19,0.03689243644475937,0.9887445887445887,0.6140130162239075,0.8753968253968253
20,0.040039870887994766,0.9642857142857143,0.7184976935386658,0.8753968253968253
21,0.056485097855329514,0.9880952380952381,0.7704652547836304,0.872623408337694
22,0.014857498928904533,0.9761904761904762,0.7623881697654724,0.8616823652537938
23,0.006603241432458162,1.0,0.7426087260246277,0.9075396825396825
24,0.001922984840348363,1.0,0.7678979635238647,0.8968253968253969
25,0.0014742888743057847,1.0,0.8135075569152832,0.8968253968253969
26,0.0020517208613455296,1.0,0.8092150688171387,0.8968253968253969
27,0.0023978494573384523,1.0,0.8390800356864929,0.872623408337694
28,0.004276722203940153,1.0,0.8495064377784729,0.872623408337694
29,0.006961372680962086,1.0,0.9041570425033569,0.872623408337694
30,0.00515651935711503,1.0,0.9654856324195862,0.872623408337694
31,0.0013685391750186682,1.0,0.9775539040565491,0.8968253968253969
32,0.0008334711310453713,1.0,0.9798101186752319,0.8834467120181406
33,0.0009311311296187341,1.0,0.9946742653846741,0.8834467120181406
34,0.0007325415499508381,1.0,1.0109143257141113,0.8834467120181406
35,0.000526556046679616,1.0,1.0286333560943604,0.8834467120181406
36,0.0004193613713141531,1.0,1.0431270599365234,0.8834467120181406
37,0.00037042051553726196,1.0,1.0545281171798706,0.8834467120181406
38,0.00033633175189606845,1.0,1.0643556118011475,0.8834467120181406
39,0.00030884690931998193,1.0,1.0732125043869019,0.8834467120181406
40,0.00028582263621501625,1.0,1.0814390182495117,0.8834467120181406
41,0.00026591334608383477,1.0,1.0892220735549927,0.8834467120181406
42,0.0002483065181877464,1.0,1.096655249595642,0.8834467120181406
43,0.0002325438108528033,1.0,1.1037850379943848,0.8834467120181406
44,0.00021833546634297818,1.0,1.110640287399292,0.8834467120181406
45,0.0002054821525234729,1.0,1.1172431707382202,0.8834467120181406
46,0.00019381467427592725,1.0,1.123616099357605,0.8834467120181406
47,0.00018318579532206059,1.0,1.1297786235809326,0.8834467120181406
48,0.00017346271488349885,1.0,1.1357486248016357,0.8834467120181406
49,0.00016454509750474244,1.0,1.1415420770645142,0.8834467120181406
50,0.00015633121074642986,1.0,1.1471704244613647,0.8834467120181406
51,0.00014874771295581013,1.0,1.1526453495025635,0.8834467120181406
52,0.00014172100054565817,1.0,1.1579753160476685,0.8834467120181406
53,0.00013520714128389955,1.0,1.1631686687469482,0.8834467120181406
54,0.00012914293620269746,1.0,1.1682323217391968,0.8834467120181406
55,0.0001234915980603546,1.0,1.1731730699539185,0.8834467120181406
56,0.00011821208317996934,1.0,1.1779974699020386,0.8834467120181406
57,0.00011327389802318066,1.0,1.182710886001587,0.8834467120181406
58,0.00010865179501706734,1.0,1.1873188018798828,0.8834467120181406
59,0.00010431412374600768,1.0,1.1918267011642456,0.8834467120181406
60,0.00010022491915151477,1.0,1.196238398551941,0.8834467120181406
61,9.639076597522944e-05,1.0,1.2005583047866821,0.8834467120181406
62,9.276608761865646e-05,1.0,1.204790711402893,0.8834467120181406
63,8.93488759174943e-05,1.0,1.2089391946792603,0.8834467120181406
64,8.611797966295853e-05,1.0,1.213006615638733,0.8834467120181406
65,8.306179370265454e-05,1.0,1.216996192932129,0.8834467120181406
66,8.016979700187221e-05,1.0,1.2209116220474243,0.8834467120181406
67,7.74228828959167e-05,1.0,1.2247549295425415,0.8834467120181406
68,7.482113869627938e-05,1.0,1.2285293340682983,0.8834467120181406
69,7.23465345799923e-05,1.0,1.2322367429733276,0.8834467120181406
70,6.999913603067398e-05,1.0,1.2358795404434204,0.8834467120181406
71,6.775237852707505e-05,1.0,1.2394601106643677,0.8834467120181406
72,6.562120688613504e-05,1.0,1.2429805994033813,0.8834467120181406
73,6.358437531162053e-05,1.0,1.2464425563812256,0.8834467120181406
74,6.163765647215769e-05,1.0,1.249847173690796,0.8834467120181406
75,5.978748595225625e-05,1.0,1.2531970739364624,0.8834467120181406
76,5.8012585213873535e-05,1.0,1.2564938068389893,0.8834467120181406
77,5.6319378927582875e-05,1.0,1.2597383260726929,0.8834467120181406
78,5.4698310123058036e-05,1.0,1.2629328966140747,0.8834467120181406
79,5.313874498824589e-05,1.0,1.266077995300293,0.8834467120181406
80,5.1653481932589784e-05,1.0,1.2691751718521118,0.8834467120181406
81,5.022338518756442e-05,1.0,1.2722259759902954,0.8834467120181406
82,4.8856974899536e-05,1.0,1.2752310037612915,0.8834467120181406
83,4.7540437662974e-05,1.0,1.2781916856765747,0.8834467120181406
84,4.6276960347313434e-05,1.0,1.2811086177825928,0.8834467120181406
85,4.505912875174545e-05,1.0,1.2839829921722412,0.8834467120181406
86,4.388906745589338e-05,1.0,1.2868156433105469,0.8834467120181406
87,4.276040635886602e-05,1.0,1.2896071672439575,0.8834467120181406
88,4.1677394619910046e-05,1.0,1.2923587560653687,0.8834467120181406
89,4.063474261783995e-05,1.0,1.295070767402649,0.8834467120181406
90,3.9628183003515005e-05,1.0,1.2977440357208252,0.8834467120181406
91,3.86556021112483e-05,1.0,1.300378441810608,0.8834467120181406
92,3.771912815864198e-05,1.0,1.3029755353927612,0.8834467120181406
93,3.681132147903554e-05,1.0,1.3055349588394165,0.8834467120181406
94,3.5939639928983524e-05,1.0,1.3080577850341797,0.8834467120181406
95,3.5097695217700675e-05,1.0,1.3105438947677612,0.8834467120181406
96,3.4282296837773174e-05,1.0,1.3129936456680298,0.8834467120181406
97,3.3489199267933145e-05,1.0,1.3154077529907227,0.8834467120181406
98,3.272585308877751e-05,1.0,1.3177859783172607,0.8834467120181406
99,3.1990133720682934e-05,1.0,1.3201286792755127,0.8834467120181406
100,3.126714000245556e-05,1.0,1.3224364519119263,0.8834467120181406
101,3.057390858884901e-05,1.0,1.3247087001800537,0.8834467120181406
102,2.9896602427470498e-05,1.0,1.3269455432891846,0.8834467120181406
103,2.9244807592476718e-05,1.0,1.3291475772857666,0.8834467120181406
104,2.860255517589394e-05,1.0,1.3313143253326416,0.8834467120181406
105,2.79900759778684e-05,1.0,1.3334462642669678,0.8834467120181406
106,2.738714283623267e-05,1.0,1.3355436325073242,0.8834467120181406
107,2.6805470042745583e-05,1.0,1.3376063108444214,0.8834467120181406
108,2.623335058160592e-05,1.0,1.3396350145339966,0.8834467120181406
109,2.5675040888017975e-05,1.0,1.3416296243667603,0.8834467120181406
110,2.513799881853629e-05,1.0,1.3435909748077393,0.8834467120181406
111,2.4606257284176536e-05,1.0,1.345519781112671,0.8834467120181406
112,2.4088325517368503e-05,1.0,1.347416639328003,0.8834467120181406
113,2.358953861403279e-05,1.0,1.3492835760116577,0.8834467120181406
114,2.3097116354620084e-05,1.0,1.3511217832565308,0.8834467120181406
115,2.262064299429767e-05,1.0,1.3529335260391235,0.8834467120181406
116,2.215798849647399e-05,1.0,1.3547199964523315,0.8834467120181406
117,2.1702770027332008e-05,1.0,1.3564844131469727,0.8834467120181406
118,2.1260309949866496e-05,1.0,1.3582278490066528,0.8834467120181406
119,2.0828478227485903e-05,1.0,1.3599530458450317,0.8834467120181406
120,2.0408338968991302e-05,1.0,1.3616621494293213,0.8834467120181406
121,2.000521999434568e-05,1.0,1.3633573055267334,0.8834467120181406
122,1.9608471120591275e-05,1.0,1.3650397062301636,0.8834467120181406
123,1.9222357877879404e-05,1.0,1.3667107820510864,0.8834467120181406
124,1.8850067135645077e-05,1.0,1.3683717250823975,0.8834467120181406
125,1.848841020546388e-05,1.0,1.3700233697891235,0.8834467120181406
126,1.8138451196136884e-05,1.0,1.3716660737991333,0.8834467120181406
127,1.7800190107664093e-05,1.0,1.3733006715774536,0.8834467120181406
128,1.7471498722443357e-05,1.0,1.374927282333374,0.8834467120181406
129,1.7153442968265153e-05,1.0,1.3765459060668945,0.8834467120181406
130,1.6842832337715663e-05,1.0,1.3781566619873047,0.8834467120181406
131,1.654072548262775e-05,1.0,1.3797591924667358,0.8834467120181406
132,1.6253514331765473e-05,1.0,1.3813539743423462,0.8834467120181406
133,1.5967358194757253e-05,1.0,1.3829405307769775,0.8834467120181406
134,1.5688647181377746e-05,1.0,1.3845187425613403,0.8834467120181406
135,1.5423767763422802e-05,1.0,1.3860886096954346,0.8834467120181406
136,1.5156751942413393e-05,1.0,1.3876497745513916,0.8834467120181406
137,1.4902502698532771e-05,1.0,1.389202356338501,0.8834467120181406
138,1.4653569451184012e-05,1.0,1.3907462358474731,0.8834467120181406
139,1.4415277291845996e-05,1.0,1.3922815322875977,0.8834467120181406
140,1.4179106983647216e-05,1.0,1.393808126449585,0.8834467120181406
141,1.3952511835668702e-05,1.0,1.395326018333435,0.8834467120181406
142,1.3722719813813455e-05,1.0,1.3968350887298584,0.8834467120181406
143,1.3507822586689144e-05,1.0,1.398335337638855,0.8834467120181406
144,1.329079441347858e-05,1.0,1.3998264074325562,0.8834467120181406
145,1.3084405509289354e-05,1.0,1.4013088941574097,0.8834467120181406
146,1.2878012967121322e-05,1.0,1.4027825593948364,0.8834467120181406
147,1.2683322893281002e-05,1.0,1.4042474031448364,0.8834467120181406
148,1.2487566891650204e-05,1.0,1.4057037830352783,0.8834467120181406
149,1.2297129615035374e-05,1.0,1.4071513414382935,0.8834467120181406
150,1.210988102684496e-05,1.0,1.4085904359817505,0.8834467120181406
151,1.1926888873858843e-05,1.0,1.4100208282470703,0.8834467120181406
152,1.1754535989894066e-05,1.0,1.4114428758621216,0.8834467120181406
153,1.157685892394511e-05,1.0,1.4128563404083252,0.8834467120181406
154,1.1408759746700525e-05,1.0,1.414261817932129,0.8834467120181406
155,1.1241720130783506e-05,1.0,1.4156588315963745,0.8834467120181406
156,1.1076809641963337e-05,1.0,1.4170469045639038,0.8834467120181406
157,1.0918281077465508e-05,1.0,1.4184272289276123,0.8834467120181406
158,1.0762943929876201e-05,1.0,1.4197994470596313,0.8834467120181406
159,1.0608669072098564e-05,1.0,1.421163558959961,0.8834467120181406
160,1.04597147583263e-05,1.0,1.4225196838378906,0.8834467120181406
161,1.0313950951967854e-05,1.0,1.42386794090271,0.8834467120181406
162,1.017137856251793e-05,1.0,1.4252084493637085,0.8834467120181406
163,1.00288034445839e-05,1.0,1.4265414476394653,0.8834467120181406
164,9.895807124848943e-06,1.0,1.4278665781021118,0.8834467120181406
165,9.756423423823435e-06,1.0,1.4291839599609375,0.8834467120181406
166,9.628744919609744e-06,1.0,1.4304940700531006,0.8834467120181406
167,9.497872270003427e-06,1.0,1.4317967891693115,0.8834467120181406
168,9.368062819703482e-06,1.0,1.4330921173095703,0.8834467120181406
169,9.244637112715282e-06,1.0,1.4343804121017456,0.8834467120181406
170,9.12333962332923e-06,1.0,1.4356613159179688,0.8834467120181406
171,9.00310533324955e-06,1.0,1.436935305595398,0.8834467120181406
172,8.882869224180467e-06,1.0,1.4382025003433228,0.8834467120181406
173,8.769019586907234e-06,1.0,1.439462423324585,0.8834467120181406
174,8.658359547553118e-06,1.0,1.4407159090042114,0.8834467120181406
175,8.547700417693704e-06,1.0,1.4419622421264648,0.8834467120181406
176,8.433846232946962e-06,1.0,1.4432016611099243,0.8834467120181406
177,8.328505828103516e-06,1.0,1.4444351196289062,0.8834467120181406
178,8.225293640862219e-06,1.0,1.4456614255905151,0.8834467120181406
179,8.124208761728369e-06,1.0,1.4468812942504883,0.8834467120181406
180,8.018865628400818e-06,1.0,1.4480946063995361,0.8834467120181406
181,7.917779839772265e-06,1.0,1.4493017196655273,0.8834467120181406
182,7.822013685654383e-06,1.0,1.4505027532577515,0.8834467120181406
183,7.731568985036574e-06,1.0,1.4516974687576294,0.8834467120181406
184,7.635802830918692e-06,1.0,1.4528864622116089,0.8834467120181406
185,7.54109851186513e-06,1.0,1.4540698528289795,0.8834467120181406
186,7.4432014116609935e-06,1.0,1.4552468061447144,0.8834467120181406
187,7.35488310965593e-06,1.0,1.4564177989959717,0.8834467120181406
188,7.270820788107812e-06,1.0,1.4575831890106201,0.8834467120181406
189,7.186758011812344e-06,1.0,1.4587424993515015,0.8834467120181406
190,7.096308308973676e-06,1.0,1.459896445274353,0.8834467120181406
191,7.014373295533005e-06,1.0,1.4610449075698853,0.8834467120181406
192,6.932437372597633e-06,1.0,1.4621875286102295,0.8834467120181406
193,6.85050099491491e-06,1.0,1.4633244276046753,0.8834467120181406
194,6.77388607073226e-06,1.0,1.4644557237625122,0.8834467120181406
195,6.691949238302186e-06,1.0,1.4655817747116089,0.8834467120181406
196,6.617461622226983e-06,1.0,1.4667030572891235,0.8834467120181406
197,6.540845333802281e-06,1.0,1.4678192138671875,0.8834467120181406
198,6.4674204622861e-06,1.0,1.4689301252365112,0.8834467120181406
199,6.397189281415194e-06,1.0,1.4700356721878052,0.8834467120181406
200,6.323764409899013e-06,1.0,1.471136212348938,0.8834467120181406
201,6.2471453929902054e-06,1.0,1.4722312688827515,0.8834467120181406
202,6.179041974974098e-06,1.0,1.473321557044983,0.8834467120181406
203,6.115194537414936e-06,1.0,1.4744073152542114,0.8834467120181406
204,6.043897428753553e-06,1.0,1.4754877090454102,0.8834467120181406
205,5.9789849728986155e-06,1.0,1.4765626192092896,0.8834467120181406
206,5.916200734645827e-06,1.0,1.4776332378387451,0.8834467120181406
207,5.850223715242464e-06,1.0,1.478698968887329,0.8834467120181406
208,5.783182132290676e-06,1.0,1.4797600507736206,0.8834467120181406
209,5.722526111640036e-06,1.0,1.4808168411254883,0.8834467120181406
210,5.661869181494694e-06,1.0,1.4818687438964844,0.8834467120181406
211,5.600148142548278e-06,1.0,1.4829158782958984,0.8834467120181406
212,5.541619884752436e-06,1.0,1.4839589595794678,0.8834467120181406
213,5.485220299306093e-06,1.0,1.4849973917007446,0.8834467120181406
214,5.4256265684671234e-06,1.0,1.4860316514968872,0.8834467120181406
215,5.3681619647250045e-06,1.0,1.4870615005493164,0.8834467120181406
216,5.310696906235535e-06,1.0,1.4880872964859009,0.8834467120181406
217,5.2553600653482135e-06,1.0,1.4891090393066406,0.8834467120181406
218,5.203216005611466e-06,1.0,1.4901262521743774,0.8834467120181406
219,5.14894372827257e-06,1.0,1.49113929271698,0.8834467120181406
220,5.097863777336897e-06,1.0,1.4921482801437378,0.8834467120181406
221,5.047847935202299e-06,1.0,1.4931533336639404,0.8834467120181406
222,4.9914451665245e-06,1.0,1.4941543340682983,0.8834467120181406
223,4.942493433190975e-06,1.0,1.4951515197753906,0.8834467120181406
224,4.8956703722069506e-06,1.0,1.496144413948059,0.8834467120181406
225,4.840331257582875e-06,1.0,1.4971336126327515,0.8834467120181406
226,4.792443178303074e-06,1.0,1.4981187582015991,0.8834467120181406
227,4.743490990222199e-06,1.0,1.499099850654602,0.8834467120181406
228,4.6966665649961215e-06,1.0,1.5000778436660767,0.8834467120181406
229,4.653035375667969e-06,1.0,1.5010511875152588,0.8834467120181406
230,4.607274604495615e-06,1.0,1.5020216703414917,0.8834467120181406
231,4.559385615721112e-06,1.0,1.5029882192611694,0.8834467120181406
232,4.514689408097183e-06,1.0,1.503951907157898,0.8834467120181406
233,4.471057309274329e-06,1.0,1.5049116611480713,0.8834467120181406
234,4.429553428053623e-06,1.0,1.5058683156967163,0.8834467120181406
235,4.382728093332844e-06,1.0,1.5068217515945435,0.8834467120181406
236,4.340160103311064e-06,1.0,1.507771372795105,0.8834467120181406
237,4.299720785638783e-06,1.0,1.50871741771698,0.8834467120181406
238,4.256088232068578e-06,1.0,1.509660005569458,0.8834467120181406
239,4.214583896100521e-06,1.0,1.510599136352539,0.8834467120181406
240,4.1773369048314635e-06,1.0,1.5115348100662231,0.8834467120181406
241,4.136897132411832e-06,1.0,1.5124670267105103,0.8834467120181406
242,4.098585577594349e-06,1.0,1.5133955478668213,0.8834467120181406
243,4.06346680392744e-06,1.0,1.514320969581604,0.8834467120181406
244,4.023026576760458e-06,1.0,1.5152432918548584,0.8834467120181406
245,3.984714567195624e-06,1.0,1.5161622762680054,0.8834467120181406
246,3.943209321732866e-06,1.0,1.5170775651931763,0.8834467120181406
247,3.909154656867031e-06,1.0,1.5179897546768188,0.8834467120181406
248,3.874035883200122e-06,1.0,1.5188989639282227,0.8834467120181406
249,3.838916200038511e-06,1.0,1.5198051929473877,0.8834467120181406
250,3.8027326354495017e-06,1.0,1.5207089185714722,0.8834467120181406
251,3.7686772884626407e-06,1.0,1.5216093063354492,0.8834467120181406
252,3.7378156321210554e-06,1.0,1.5225069522857666,0.8834467120181406
253,3.7005670492362697e-06,1.0,1.5234019756317139,0.8834467120181406
254,3.6675760384241585e-06,1.0,1.5242935419082642,0.8834467120181406
255,3.6345850276120473e-06,1.0,1.5251826047897339,0.8834467120181406
256,3.60372246177576e-06,1.0,1.526068091392517,0.8834467120181406
257,3.5696668874152238e-06,1.0,1.526950716972351,0.8834467120181406
258,3.5388043215789367e-06,1.0,1.527830958366394,0.8834467120181406
259,3.507941528368974e-06,1.0,1.5287084579467773,0.8834467120181406
260,3.473885499261087e-06,1.0,1.5295833349227905,0.8834467120181406
261,3.4419583698763745e-06,1.0,1.5304557085037231,0.8834467120181406
262,3.413224021642236e-06,1.0,1.5313252210617065,0.8834467120181406
263,3.3823612284322735e-06,1.0,1.532192587852478,0.8834467120181406
264,3.35256231664971e-06,1.0,1.533056616783142,0.8834467120181406
265,3.3216990686923964e-06,1.0,1.5339182615280151,0.8834467120181406
266,3.296157501608832e-06,1.0,1.5347769260406494,0.8834467120181406
267,3.2674231533746934e-06,1.0,1.5356333255767822,0.8834467120181406
268,3.2397529139416292e-06,1.0,1.5364872217178345,0.8834467120181406
269,3.21101811096014e-06,1.0,1.5373376607894897,0.8834467120181406
270,3.182283080604975e-06,1.0,1.538185715675354,0.8834467120181406
271,3.1556771773466608e-06,1.0,1.5390310287475586,0.8834467120181406
272,3.129071046714671e-06,1.0,1.5398739576339722,0.8834467120181406
273,3.1035290248837555e-06,1.0,1.540714144706726,0.8834467120181406
274,3.0790511118539143e-06,1.0,1.5415524244308472,0.8834467120181406
275,3.0535095447703497e-06,1.0,1.5423885583877563,0.8834467120181406
276,3.027967295565759e-06,1.0,1.543222427368164,0.8834467120181406
277,2.9992320378369186e-06,1.0,1.5440540313720703,0.8834467120181406
278,2.9736897886323277e-06,1.0,1.544883370399475,0.8834467120181406
279,2.947083203252987e-06,1.0,1.5457103252410889,0.8834467120181406
280,2.9226055175968213e-06,1.0,1.546534776687622,0.8834467120181406
281,2.9002560495428042e-06,1.0,1.5473568439483643,0.8834467120181406
282,2.876842472687713e-06,1.0,1.5481765270233154,0.8834467120181406
283,2.853428668458946e-06,1.0,1.5489933490753174,0.8834467120181406
284,2.8289505280554295e-06,1.0,1.5498077869415283,0.8834467120181406
285,2.806601287375088e-06,1.0,1.550620436668396,0.8834467120181406
286,2.7853161554958206e-06,1.0,1.5514315366744995,0.8834467120181406
287,2.7640310236165533e-06,1.0,1.5522404909133911,0.8834467120181406
288,2.7395526558393613e-06,1.0,1.5530470609664917,0.8834467120181406
289,2.7140099518874194e-06,1.0,1.5538514852523804,0.8834467120181406
290,2.6927250473818276e-06,1.0,1.554653286933899,0.8834467120181406
291,2.6725040243036347e-06,1.0,1.5554531812667847,0.8834467120181406
292,2.6490899927011924e-06,1.0,1.556249976158142,0.8834467120181406
293,2.6288689696229994e-06,1.0,1.5570446252822876,0.8834467120181406
294,2.606519274195307e-06,1.0,1.557836651802063,0.8834467120181406
295,2.5884269234666135e-06,1.0,1.5586268901824951,0.8834467120181406
296,2.569270009189495e-06,1.0,1.5594149827957153,0.8834467120181406
297,2.550112867538701e-06,1.0,1.5602015256881714,0.8834467120181406
298,2.5288277356594335e-06,1.0,1.5609855651855469,0.8834467120181406
299,2.505413476683316e-06,1.0,1.5617672204971313,0.8834467120181406
300,2.4851922262314474e-06,1.0,1.5625464916229248,0.8834467120181406
301,2.4628423034300795e-06,1.0,1.5633243322372437,0.8834467120181406
302,2.444749497954035e-06,1.0,1.5641001462936401,0.8834467120181406
303,2.425592811050592e-06,1.0,1.564874291419983,0.8834467120181406
304,2.4074997782008722e-06,1.0,1.5656464099884033,0.8834467120181406
305,2.390471536273253e-06,1.0,1.566416621208191,0.8834467120181406
306,2.3723789581708843e-06,1.0,1.5671855211257935,0.8834467120181406
307,2.3542863800685154e-06,1.0,1.5679519176483154,0.8834467120181406
308,2.3340649022429716e-06,1.0,1.5687175989151,0.8834467120181406
309,2.3170362055680016e-06,1.0,1.5694817304611206,0.8834467120181406
310,2.2978790639172075e-06,1.0,1.5702440738677979,0.8834467120181406
311,2.2787219222664135e-06,1.0,1.57100510597229,0.8834467120181406
312,2.2638221253146185e-06,1.0,1.5717649459838867,0.8834467120181406
313,2.246793656013324e-06,1.0,1.572522759437561,0.8834467120181406
314,2.229764959338354e-06,1.0,1.5732778310775757,0.8834467120181406
315,2.2138010535854846e-06,1.0,1.5740309953689575,0.8834467120181406
316,2.195708020735765e-06,1.0,1.5747824907302856,0.8834467120181406
317,2.1776147605123697e-06,1.0,1.5755313634872437,0.8834467120181406
318,2.161650627385825e-06,1.0,1.5762779712677002,0.8834467120181406
319,2.14675083043403e-06,1.0,1.5770231485366821,0.8834467120181406
320,2.1307864699338097e-06,1.0,1.5777655839920044,0.8834467120181406
321,2.1148221094335895e-06,1.0,1.5785070657730103,0.8834467120181406
322,2.0988577489333693e-06,1.0,1.5792471170425415,0.8834467120181406
323,2.0818290522583993e-06,1.0,1.5799849033355713,0.8834467120181406
324,2.065864691758179e-06,1.0,1.5807216167449951,0.8834467120181406
325,2.0509646674327087e-06,1.0,1.581456184387207,0.8834467120181406
326,2.0381933154567378e-06,1.0,1.5821893215179443,0.8834467120181406
327,2.019035719058593e-06,1.0,1.5829212665557861,0.8834467120181406
328,2.0041356947331224e-06,1.0,1.5836519002914429,0.8834467120181406
329,1.9913643427571515e-06,1.0,1.5843803882598877,0.8834467120181406
330,1.9764640910580056e-06,1.0,1.585107445716858,0.8834467120181406
331,1.9615638393588597e-06,1.0,1.585832953453064,0.8834467120181406
332,1.947728151208139e-06,1.0,1.5865566730499268,0.8834467120181406
333,1.9328281268826686e-06,1.0,1.5872784852981567,0.8834467120181406
334,1.9179276478098473e-06,1.0,1.5879994630813599,0.8834467120181406
335,1.9051561821470386e-06,1.0,1.588719129562378,0.8834467120181406
336,1.8934490526589798e-06,1.0,1.5894367694854736,0.8834467120181406
337,1.8785486872729962e-06,1.0,1.5901530981063843,0.8834467120181406
338,1.8647131128091132e-06,1.0,1.5908679962158203,0.8834467120181406
339,1.8498127474231296e-06,1.0,1.5915807485580444,0.8834467120181406
340,1.8370411680734833e-06,1.0,1.592291235923767,0.8834467120181406
341,1.8253339248985867e-06,1.0,1.5930005311965942,0.8834467120181406
342,1.8125623455489404e-06,1.0,1.5937079191207886,0.8834467120181406
343,1.7987264300245442e-06,1.0,1.5944143533706665,0.8834467120181406
344,1.78701907316281e-06,1.0,1.5951182842254639,0.8834467120181406
345,1.7731832713252516e-06,1.0,1.5958210229873657,0.8834467120181406
346,1.7604115782887675e-06,1.0,1.596522331237793,0.8834467120181406
347,1.7487042214270332e-06,1.0,1.5972217321395874,0.8834467120181406
348,1.7359326420773868e-06,1.0,1.5979198217391968,0.8834467120181406
349,1.7220964991793153e-06,1.0,1.5986168384552002,0.8834467120181406
350,1.7114534784923308e-06,1.0,1.5993118286132812,0.8834467120181406
351,1.699746349004272e-06,1.0,1.6000059843063354,0.8834467120181406
352,1.6880391058293753e-06,1.0,1.600698471069336,0.8834467120181406
353,1.6763315215939656e-06,1.0,1.6013891696929932,0.8834467120181406
354,1.6646241647322313e-06,1.0,1.6020790338516235,0.8834467120181406
355,1.6507880218341597e-06,1.0,1.6027663946151733,0.8834467120181406
356,1.6390805512855877e-06,1.0,1.603453516960144,0.8834467120181406
357,1.6284375305986032e-06,1.0,1.604138731956482,0.8834467120181406
358,1.6177945099116187e-06,1.0,1.6048232316970825,0.8834467120181406
359,1.6071514892246341e-06,1.0,1.6055065393447876,0.8834467120181406
360,1.5975726910255617e-06,1.0,1.606188178062439,0.8834467120181406
361,1.5869298977122526e-06,1.0,1.6068685054779053,0.8834467120181406
362,1.5762867633384303e-06,1.0,1.6075478792190552,0.8834467120181406
363,1.5645791791030206e-06,1.0,1.6082247495651245,0.8834467120181406
364,1.555000380903948e-06,1.0,1.6089009046554565,0.8834467120181406
365,1.5454216963917133e-06,1.0,1.6095755100250244,0.8834467120181406
366,1.5337142258431413e-06,1.0,1.6102478504180908,0.8834467120181406
367,1.5220067552945693e-06,1.0,1.6109189987182617,0.8834467120181406
368,1.5092349485712475e-06,1.0,1.611588716506958,0.8834467120181406
369,1.4964629144742503e-06,1.0,1.612257957458496,0.8834467120181406
370,1.484755557612516e-06,1.0,1.6129252910614014,0.8834467120181406
371,1.4762410955881933e-06,1.0,1.6135914325714111,0.8834467120181406
372,1.466662183702283e-06,1.0,1.6142566204071045,0.8834467120181406
373,1.4581476079911226e-06,1.0,1.6149194240570068,0.8834467120181406
374,1.4496332596536377e-06,1.0,1.6155818700790405,0.8834467120181406
375,1.4379257891050656e-06,1.0,1.61624276638031,0.8834467120181406
376,1.4283468772191554e-06,1.0,1.6169025897979736,0.8834467120181406
377,1.4208968650564202e-06,1.0,1.6175609827041626,0.8834467120181406
378,1.4091893945078482e-06,1.0,1.618218183517456,0.8834467120181406
379,1.4006749324835255e-06,1.0,1.6188737154006958,0.8834467120181406
380,1.3921604704592028e-06,1.0,1.6195281744003296,0.8834467120181406
381,1.3825814448864548e-06,1.0,1.6201812028884888,0.8834467120181406
382,1.3719381968257949e-06,1.0,1.6208330392837524,0.8834467120181406
383,1.3634236211146344e-06,1.0,1.6214827299118042,0.8834467120181406
384,1.3538447092287242e-06,1.0,1.6221314668655396,0.8834467120181406
385,1.346394697065989e-06,1.0,1.6227786540985107,0.8834467120181406
386,1.336815671493241e-06,1.0,1.6234241724014282,0.8834467120181406
387,1.3283012094689184e-06,1.0,1.6240684986114502,0.8834467120181406
388,1.3208510836193454e-06,1.0,1.624711036682129,0.8834467120181406
389,1.3123363942213473e-06,1.0,1.625353217124939,0.8834467120181406
390,1.3038219321970246e-06,1.0,1.6259944438934326,0.8834467120181406
391,1.2942430203111144e-06,1.0,1.6266348361968994,0.8834467120181406
392,1.2867928944615414e-06,1.0,1.6272742748260498,0.8834467120181406
393,1.2804068774130428e-06,1.0,1.6279118061065674,0.8834467120181406
394,1.2708279655271326e-06,1.0,1.628549337387085,0.8834467120181406
395,1.2623133898159722e-06,1.0,1.629184365272522,0.8834467120181406
396,1.2548631502795615e-06,1.0,1.6298190355300903,0.8834467120181406
397,1.2474129107431509e-06,1.0,1.6304527521133423,0.8834467120181406
398,1.2388983350319904e-06,1.0,1.6310851573944092,0.8834467120181406
399,1.2282552006581682e-06,1.0,1.6317164897918701,0.8834467120181406
400,1.2218691836096696e-06,1.0,1.6323469877243042,0.8834467120181406
401,1.214418944073259e-06,1.0,1.6329753398895264,0.8834467120181406
402,1.2059042546752607e-06,1.0,1.6336028575897217,0.8834467120181406
403,1.19845401513885e-06,1.0,1.6342283487319946,0.8834467120181406
404,1.1899394394276896e-06,1.0,1.6348530054092407,0.8834467120181406
405,1.1835535360660288e-06,1.0,1.6354763507843018,0.8834467120181406
406,1.1761031828427804e-06,1.0,1.636098861694336,0.8834467120181406
407,1.16758860713162e-06,1.0,1.6367199420928955,0.8834467120181406
408,1.1622670399447088e-06,1.0,1.6373401880264282,0.8834467120181406
409,1.155881136583048e-06,1.0,1.6379592418670654,0.877952206523635
410,1.1473665608718875e-06,1.0,1.6385776996612549,0.877952206523635
411,1.1409805438233889e-06,1.0,1.639194369316101,0.877952206523635
412,1.1356589766364777e-06,1.0,1.6398099660873413,0.877952206523635
413,1.1271442872384796e-06,1.0,1.6404250860214233,0.877952206523635
414,1.1228870562263182e-06,1.0,1.6410397291183472,0.877952206523635
415,1.11437236682832e-06,1.0,1.6416538953781128,0.877952206523635
416,1.109050799641409e-06,1.0,1.642267107963562,0.877952206523635
417,1.1005362239302485e-06,1.0,1.642878532409668,0.877952206523635
418,1.0941503205685876e-06,1.0,1.643490195274353,0.877952206523635
419,1.0866999673453392e-06,1.0,1.6441007852554321,0.877952206523635
420,1.0803139502968406e-06,1.0,1.6447101831436157,0.877952206523635
421,1.0749923831099295e-06,1.0,1.6453174352645874,0.877952206523635
422,1.066477807398769e-06,1.0,1.6459243297576904,0.877952206523635
423,1.0611560128381825e-06,1.0,1.6465305089950562,0.877952206523635
424,1.0537057733017718e-06,1.0,1.6471360921859741,0.877952206523635
425,1.0451910839037737e-06,1.0,1.6477409601211548,0.877952206523635
426,1.0398695167168626e-06,1.0,1.648343801498413,0.877952206523635
427,1.0334833859815262e-06,1.0,1.648945689201355,0.877952206523635
428,1.0260331464451156e-06,1.0,1.6495474576950073,0.877952206523635
429,1.019647129396617e-06,1.0,1.6501491069793701,0.877952206523635
430,1.0111324399986188e-06,1.0,1.650749921798706,0.877952206523635
431,1.00581075912487e-06,1.0,1.6513497829437256,0.877952206523635
432,9.99424855763209e-07,1.0,1.6519486904144287,0.877952206523635
433,9.9516751106421e-07,1.0,1.6525460481643677,0.877952206523635
434,9.898459438772989e-07,1.0,1.6531423330307007,0.877952206523635
435,9.834599268288002e-07,1.0,1.6537388563156128,0.877952206523635
436,9.781382459550514e-07,1.0,1.6543344259262085,0.877952206523635
437,9.67494770520716e-07,1.0,1.65492844581604,0.877952206523635
438,9.621729759601294e-07,1.0,1.6555222272872925,0.877952206523635
439,9.547227364237187e-07,1.0,1.6561155319213867,0.877952206523635
440,9.504654485681385e-07,1.0,1.6567071676254272,0.877952206523635
441,9.440794315196399e-07,1.0,1.6572984457015991,0.877952206523635
442,9.366290782963915e-07,1.0,1.6578887701034546,0.877952206523635
443,9.313073974226427e-07,1.0,1.658478021621704,0.877952206523635
444,9.281143888983934e-07,1.0,1.6590663194656372,0.877952206523635
445,9.217284286933136e-07,1.0,1.6596534252166748,0.877952206523635
446,9.164067478195648e-07,1.0,1.660240888595581,0.877952206523635
447,9.121494599639846e-07,1.0,1.66082763671875,0.877952206523635
448,9.057634429154859e-07,1.0,1.6614131927490234,0.877952206523635
449,8.993774258669873e-07,1.0,1.6619960069656372,0.877952206523635
450,8.929913519750698e-07,1.0,1.6625773906707764,0.877952206523635
451,8.897983434508205e-07,1.0,1.6631578207015991,0.877952206523635
452,8.844766625770717e-07,1.0,1.663737416267395,0.877952206523635
453,8.802194315649103e-07,1.0,1.664316177368164,0.877952206523635
454,8.748976938477426e-07,1.0,1.6648943424224854,0.877952206523635
455,8.685116199558252e-07,1.0,1.6654713153839111,0.877952206523635
456,8.631899959254952e-07,1.0,1.6660465002059937,0.877952206523635
457,8.589326512264961e-07,1.0,1.6666204929351807,0.877952206523635
458,8.536109135093284e-07,1.0,1.6671943664550781,0.877952206523635
459,8.493536256537482e-07,1.0,1.6677677631378174,0.877952206523635
460,8.450963946415868e-07,1.0,1.6683404445648193,0.877952206523635
461,8.397746569244191e-07,1.0,1.6689119338989258,0.877952206523635
462,8.344529192072514e-07,1.0,1.6694819927215576,0.877952206523635
463,8.280668453153339e-07,1.0,1.6700518131256104,0.877952206523635
464,8.238095006163348e-07,1.0,1.670621633529663,0.877952206523635
465,8.195521559173358e-07,1.0,1.6711905002593994,0.877952206523635
466,8.163592042365053e-07,1.0,1.671759009361267,0.877952206523635
467,8.099731303445878e-07,1.0,1.6723271608352661,0.877952206523635
468,8.067801218203385e-07,1.0,1.6728953123092651,0.877952206523635
469,7.993297117536713e-07,1.0,1.6734627485275269,0.877952206523635
470,7.972010962475906e-07,1.0,1.674028992652893,0.877952206523635
471,7.929437515485915e-07,1.0,1.6745941638946533,0.877952206523635
472,7.865576776566741e-07,1.0,1.6751593351364136,0.877952206523635
473,7.82300332957675e-07,1.0,1.6757242679595947,0.877952206523635
474,7.780429882586759e-07,1.0,1.6762882471084595,0.877952206523635
475,7.727212505415082e-07,1.0,1.6768512725830078,0.877952206523635
476,7.684639058425091e-07,1.0,1.6774137020111084,0.877952206523635
477,7.631421112819226e-07,1.0,1.6779758930206299,0.877952206523635
478,7.588847665829235e-07,1.0,1.6785367727279663,0.877952206523635
479,7.55691814902093e-07,1.0,1.679097056388855,0.877952206523635
480,7.503700771849253e-07,1.0,1.6796561479568481,0.877952206523635
481,7.482414048354258e-07,1.0,1.680214524269104,0.877952206523635
482,7.429197239616769e-07,1.0,1.680773377418518,0.877952206523635
483,7.386623792626779e-07,1.0,1.6813313961029053,0.877952206523635
484,7.354693138950097e-07,1.0,1.6818891763687134,0.877952206523635
485,7.322763622141792e-07,1.0,1.6824464797973633,0.877952206523635
486,7.269546813404304e-07,1.0,1.6830027103424072,0.877952206523635
487,7.226972229545936e-07,1.0,1.6835581064224243,0.877952206523635
488,7.184398782555945e-07,1.0,1.6841126680374146,0.877952206523635
489,7.163112627495138e-07,1.0,1.684666633605957,0.877952206523635
490,7.10989581875765e-07,1.0,1.6852198839187622,0.877952206523635
491,7.077965165080968e-07,1.0,1.6857731342315674,0.877952206523635
492,7.046034511404287e-07,1.0,1.6863253116607666,0.877952206523635
493,6.992817702666798e-07,1.0,1.6868784427642822,0.877952206523635
494,6.960887617424305e-07,1.0,1.68743097782135,0.877952206523635
495,6.928957532181812e-07,1.0,1.6879832744598389,0.877952206523635
496,6.875739586575946e-07,1.0,1.6885343790054321,0.877952206523635
497,6.854452863080951e-07,1.0,1.6890833377838135,0.877952206523635
498,6.81187941609096e-07,1.0,1.689631462097168,0.877952206523635
499,6.769305400666781e-07,1.0,1.690179705619812,0.877952206523635
500,6.737375883858476e-07,1.0,1.6907275915145874,0.877952206523635
501,6.716089160363481e-07,1.0,1.6912755966186523,0.877952206523635
502,6.673514576505113e-07,1.0,1.6918226480484009,0.877952206523635
503,6.641585059696808e-07,1.0,1.6923691034317017,0.877952206523635
504,6.599011044272629e-07,1.0,1.692914366722107,0.877952206523635
505,6.556437597282638e-07,1.0,1.693460464477539,0.877952206523635
506,6.513863581858459e-07,1.0,1.6940051317214966,0.877952206523635
507,6.492576858363464e-07,1.0,1.6945487260818481,0.877952206523635
508,6.460646204686782e-07,1.0,1.6950910091400146,0.877952206523635
509,6.428716119444289e-07,1.0,1.6956326961517334,0.877952206523635
510,6.364854812090925e-07,1.0,1.6961733102798462,0.877952206523635
511,6.332924726848432e-07,1.0,1.6967146396636963,0.877952206523635
512,6.290350711424253e-07,1.0,1.6972558498382568,0.877952206523635
513,6.269063987929258e-07,1.0,1.6977969408035278,0.877952206523635
514,6.247777264434262e-07,1.0,1.6983373165130615,0.877952206523635
515,6.205203249010083e-07,1.0,1.698876976966858,0.877952206523635
516,6.183916525515087e-07,1.0,1.6994163990020752,0.877952206523635
517,6.141343078525097e-07,1.0,1.6999541521072388,0.877952206523635
518,6.088125132919231e-07,1.0,1.7004907131195068,0.877952206523635
519,6.066838409424236e-07,1.0,1.7010252475738525,0.877952206523635
520,6.034907755747554e-07,1.0,1.70155930519104,0.877952206523635
521,6.002977670505061e-07,1.0,1.702091932296753,0.877952206523635
522,5.981690947010065e-07,1.0,1.7026244401931763,0.877952206523635
523,5.949760293333384e-07,1.0,1.7031561136245728,0.877952206523635
524,5.928473569838388e-07,1.0,1.7036867141723633,0.877952206523635
525,5.875255624232523e-07,1.0,1.7042189836502075,0.877952206523635
526,5.84332553899003e-07,1.0,1.7047510147094727,0.877952206523635
527,5.822038247060846e-07,1.0,1.7052831649780273,0.877952206523635
528,5.790108161818353e-07,1.0,1.7058147192001343,0.877952206523635
529,5.758178076575859e-07,1.0,1.7063461542129517,0.877952206523635
530,5.726247422899178e-07,1.0,1.7068759202957153,0.877952206523635
531,5.704960699404182e-07,1.0,1.7074038982391357,0.877952206523635
532,5.673030614161689e-07,1.0,1.707931399345398,0.877952206523635
533,5.630456030303321e-07,1.0,1.708459496498108,0.877952206523635
534,5.598525945060828e-07,1.0,1.7089868783950806,0.877952206523635
535,5.566595291384147e-07,1.0,1.7095140218734741,0.877952206523635
536,5.545307999454963e-07,1.0,1.710040807723999,0.877952206523635
537,5.51337791421247e-07,1.0,1.7105666399002075,0.877952206523635
538,5.492091190717474e-07,1.0,1.7110919952392578,0.877952206523635
539,5.460160537040792e-07,1.0,1.71161687374115,0.877952206523635
540,5.438873813545797e-07,1.0,1.7121410369873047,0.877952206523635
541,5.406943159869115e-07,1.0,1.7126665115356445,0.877952206523635
542,5.375012506192434e-07,1.0,1.713192105293274,0.877952206523635
543,5.343081852515752e-07,1.0,1.713716745376587,0.877952206523635
544,5.321795129020757e-07,1.0,1.7142399549484253,0.877952206523635
545,5.289865043778263e-07,1.0,1.714761734008789,0.877952206523635
546,5.257933821667393e-07,1.0,1.715283751487732,0.877952206523635
547,5.226003167990712e-07,1.0,1.7158054113388062,0.877952206523635
548,5.194073082748218e-07,1.0,1.7163270711898804,0.877952206523635
549,5.162142429071537e-07,1.0,1.71684992313385,0.877952206523635
550,5.140855705576541e-07,1.0,1.7173726558685303,0.877952206523635
551,5.119568982081546e-07,1.0,1.7178955078125,0.877952206523635
552,5.087638328404864e-07,1.0,1.7184183597564697,0.877952206523635
553,5.06635103647568e-07,1.0,1.7189406156539917,0.877952206523635
554,5.034420382798999e-07,1.0,1.7194623947143555,0.877952206523635
555,5.013133659304003e-07,1.0,1.719983696937561,0.877952206523635
556,5.002490297556506e-07,1.0,1.7205045223236084,0.877952206523635
557,4.970559643879824e-07,1.0,1.7210239171981812,0.877952206523635
558,4.938628990203142e-07,1.0,1.721542477607727,0.877952206523635
559,4.90669833652646e-07,1.0,1.7220611572265625,0.877952206523635
560,4.874768251283967e-07,1.0,1.7225795984268188,0.877952206523635
561,4.853480959354783e-07,1.0,1.7230969667434692,0.877952206523635
562,4.832194235859788e-07,1.0,1.7236146926879883,0.877952206523635
563,4.810907512364793e-07,1.0,1.7241315841674805,0.877952206523635
564,4.789620788869797e-07,1.0,1.724647879600525,0.877952206523635
565,4.768333212723519e-07,1.0,1.7251638174057007,0.877952206523635
566,4.7470464892285236e-07,1.0,1.7256793975830078,0.877952206523635
567,4.7151155513347476e-07,1.0,1.7261945009231567,0.877952206523635
568,4.68318518187516e-07,1.0,1.726711392402649,0.877952206523635
569,4.661898458380165e-07,1.0,1.7272285223007202,0.877952206523635
570,4.629967520486389e-07,1.0,1.7277456521987915,0.877952206523635
571,4.619324158738891e-07,1.0,1.7282625436782837,0.877952206523635
572,4.5980371510268014e-07,1.0,1.7287788391113281,0.877952206523635
573,4.56610649735012e-07,1.0,1.7292940616607666,0.877952206523635
574,4.5341761278905324e-07,1.0,1.7298076152801514,0.877952206523635
575,4.5235324819259404e-07,1.0,1.7303199768066406,0.877952206523635
576,4.512888551744254e-07,1.0,1.7308320999145508,0.877952206523635
577,4.4916018282492587e-07,1.0,1.7313438653945923,0.877952206523635
578,4.4596708903554827e-07,1.0,1.7318553924560547,0.877952206523635
579,4.4277405208958953e-07,1.0,1.7323678731918335,0.877952206523635
580,4.4064537974009e-07,1.0,1.7328815460205078,0.877952206523635
581,4.385166505471716e-07,1.0,1.733394742012024,0.877952206523635
582,4.3638789293254376e-07,1.0,1.7339074611663818,0.877952206523635
583,4.33194855986585e-07,1.0,1.7344188690185547,0.877952206523635
584,4.310661836370855e-07,1.0,1.7349298000335693,0.877952206523635
585,4.300018190406263e-07,1.0,1.7354398965835571,0.877952206523635
586,4.2787314669112675e-07,1.0,1.735949158668518,0.877952206523635
587,4.246800813234586e-07,1.0,1.7364581823349,0.877952206523635
588,4.246800813234586e-07,1.0,1.736966848373413,0.877952206523635
589,4.225513805522496e-07,1.0,1.7374752759933472,0.877952206523635
590,4.204226513593312e-07,1.0,1.7379837036132812,0.877952206523635
591,4.1722958599166304e-07,1.0,1.7384926080703735,0.877952206523635
592,4.140365206239949e-07,1.0,1.7390005588531494,0.877952206523635
593,4.1190784827449534e-07,1.0,1.7395076751708984,0.877952206523635
594,4.1084348367803614e-07,1.0,1.7400141954421997,0.877952206523635
595,4.0871478290682717e-07,1.0,1.7405198812484741,0.877952206523635
596,4.0658605371390877e-07,1.0,1.7410258054733276,0.877952206523635
597,4.0552168911744957e-07,1.0,1.7415316104888916,0.877952206523635
598,4.033929883462406e-07,1.0,1.7420365810394287,0.877952206523635
599,4.0126428757503163e-07,1.0,1.7425411939620972,0.877952206523635
600,4.0019995140028186e-07,1.0,1.7430449724197388,0.877952206523635
601,3.9807122220736346e-07,1.0,1.7435487508773804,0.877952206523635
602,3.959425214361545e-07,1.0,1.744052767753601,0.877952206523635
603,3.948781852614047e-07,1.0,1.7445560693740845,0.877952206523635
604,3.916850914720271e-07,1.0,1.745060682296753,0.877952206523635
605,3.9062075529727736e-07,1.0,1.7455657720565796,0.877952206523635
606,3.874277183513186e-07,1.0,1.7460711002349854,0.877952206523635
607,3.852989891584002e-07,1.0,1.7465757131576538,0.877952206523635
608,3.84234624561941e-07,1.0,1.7470800876617432,0.877952206523635
609,3.7784846540489525e-07,1.0,1.747584342956543,0.877952206523635
610,3.7571973621197685e-07,1.0,1.7480871677398682,0.877952206523635
611,3.735910354407679e-07,1.0,1.7485891580581665,0.877952206523635
612,3.725266992660181e-07,1.0,1.7490895986557007,0.877952206523635
613,3.703979416513903e-07,1.0,1.7495893239974976,0.877952206523635
614,3.682692408801813e-07,1.0,1.7500888109207153,0.877952206523635
615,3.6720490470543155e-07,1.0,1.7505872249603271,0.877952206523635
616,3.650762039342226e-07,1.0,1.7510851621627808,0.877952206523635
617,3.640118393377634e-07,1.0,1.7515829801559448,0.877952206523635
618,3.6081880239180464e-07,1.0,1.7520822286605835,0.877952206523635
619,3.5975443779534544e-07,1.0,1.7525818347930908,0.877952206523635
620,3.5869007319888624e-07,1.0,1.753082036972046,0.877952206523635
621,3.5762573702413647e-07,1.0,1.7535820007324219,0.877952206523635
622,3.5443261481304944e-07,1.0,1.7540816068649292,0.877952206523635
623,3.523039424635499e-07,1.0,1.7545803785324097,0.877952206523635
624,3.501752132706315e-07,1.0,1.7550783157348633,0.877952206523635
625,3.480464840777131e-07,1.0,1.755574107170105,0.877952206523635
626,3.4698214790296333e-07,1.0,1.7560681104660034,0.877952206523635
627,3.4378908253529517e-07,1.0,1.756561279296875,0.877952206523635
628,3.4378908253529517e-07,1.0,1.7570534944534302,0.877952206523635
629,3.4059598874591757e-07,1.0,1.7575433254241943,0.877952206523635
630,3.384672879747086e-07,1.0,1.7580305337905884,0.877952206523635
631,3.374029233782494e-07,1.0,1.758515477180481,0.877952206523635
632,3.363385587817902e-07,1.0,1.7589991092681885,0.877952206523635
633,3.3208112881766283e-07,1.0,1.7594836950302124,0.877952206523635
634,3.3208112881766283e-07,1.0,1.7599691152572632,0.877952206523635
635,3.288880918717041e-07,1.0,1.7604542970657349,0.877952206523635
636,3.278237272752449e-07,1.0,1.7609384059906006,0.877952206523635
637,3.267593626787857e-07,1.0,1.7614229917526245,0.877952206523635
638,3.256949980823265e-07,1.0,1.7619069814682007,0.877952206523635
639,3.2250196113636775e-07,1.0,1.7623902559280396,0.877952206523635
640,3.2250196113636775e-07,1.0,1.7628737688064575,0.877952206523635
641,3.2037323194344935e-07,1.0,1.7633562088012695,0.877952206523635
642,3.1930886734699016e-07,1.0,1.7638384103775024,0.877952206523635
643,3.1930886734699016e-07,1.0,1.7643204927444458,0.877952206523635
644,3.171801665757812e-07,1.0,1.7648025751113892,0.877952206523635
645,3.150514658045722e-07,1.0,1.765283465385437,0.877952206523635
646,3.13987101208113e-07,1.0,1.765764594078064,0.877952206523635
647,3.129227366116538e-07,1.0,1.7662451267242432,0.877952206523635
648,3.1079403584044485e-07,1.0,1.766724944114685,0.877952206523635
649,3.1079403584044485e-07,1.0,1.7672052383422852,0.877952206523635
650,3.0760094205106725e-07,1.0,1.767687439918518,0.877952206523635
651,3.0653657745460805e-07,1.0,1.7681705951690674,0.877952206523635
652,3.044078766833991e-07,1.0,1.7686539888381958,0.877952206523635
653,3.033435405086493e-07,1.0,1.7691372632980347,0.877952206523635
654,3.012148113157309e-07,1.0,1.769619345664978,0.877952206523635
655,3.0015047514098114e-07,1.0,1.7700998783111572,0.877952206523635
656,2.9908611054452194e-07,1.0,1.7705789804458618,0.877952206523635
657,2.969573529298941e-07,1.0,1.7710577249526978,0.877952206523635
658,2.9589301675514434e-07,1.0,1.7715357542037964,0.877952206523635
659,2.9482865215868514e-07,1.0,1.7720133066177368,0.877952206523635
660,2.9376428756222595e-07,1.0,1.7724907398223877,0.877952206523635
661,2.926999513874762e-07,1.0,1.7729684114456177,0.877952206523635
662,2.905712221945578e-07,1.0,1.7734453678131104,0.877952206523635
663,2.89506886019808e-07,1.0,1.7739225625991821,0.877952206523635
664,2.873781284051802e-07,1.0,1.7743990421295166,0.877952206523635
665,2.86313763808721e-07,1.0,1.774875283241272,0.877952206523635
666,2.852493992122618e-07,1.0,1.7753514051437378,0.877952206523635
667,2.84185063037512e-07,1.0,1.775827169418335,0.877952206523635
668,2.8205636226630304e-07,1.0,1.7763055562973022,0.877952206523635
669,2.8099199766984384e-07,1.0,1.776785135269165,0.877952206523635
670,2.7886329689863487e-07,1.0,1.7772642374038696,0.877952206523635
671,2.7779893230217567e-07,1.0,1.7777433395385742,0.877952206523635
672,2.7673453928400704e-07,1.0,1.7782220840454102,0.877952206523635
673,2.7567017468754784e-07,1.0,1.778700828552246,0.877952206523635
674,2.746058669345075e-07,1.0,1.7791794538497925,0.877952206523635
675,2.746058669345075e-07,1.0,1.7796577215194702,0.877952206523635
676,2.724771377415891e-07,1.0,1.780135989189148,0.877952206523635
677,2.714127731451299e-07,1.0,1.7806140184402466,0.877952206523635
678,2.692840439522115e-07,1.0,1.7810916900634766,0.877952206523635
679,2.682196793557523e-07,1.0,1.7815682888031006,0.877952206523635
680,2.6715534318100254e-07,1.0,1.7820430994033813,0.877952206523635
681,2.6502661398808414e-07,1.0,1.7825161218643188,0.877952206523635
682,2.6502661398808414e-07,1.0,1.7829886674880981,0.877952206523635
683,2.6289791321687517e-07,1.0,1.7834608554840088,0.877952206523635
684,2.6183354862041597e-07,1.0,1.7839325666427612,0.877952206523635
685,2.6076918402395677e-07,1.0,1.7844038009643555,0.877952206523635
686,2.575761186562886e-07,1.0,1.7848742008209229,0.877952206523635
687,2.565117540598294e-07,1.0,1.7853447198867798,0.877952206523635
688,2.565117540598294e-07,1.0,1.7858142852783203,0.877952206523635
689,2.54383024866911e-07,1.0,1.78628408908844,0.877952206523635
690,2.522542956739926e-07,1.0,1.7867562770843506,0.877952206523635
691,2.4906123030632443e-07,1.0,1.7872298955917358,0.877952206523635
692,2.4906123030632443e-07,1.0,1.787704348564148,0.877952206523635
693,2.4799686570986523e-07,1.0,1.7881784439086914,0.877952206523635
694,2.4693250111340603e-07,1.0,1.7886526584625244,0.877952206523635
695,2.4586816493865626e-07,1.0,1.7891262769699097,0.877952206523635
696,2.4480377192048763e-07,1.0,1.789600133895874,0.877952206523635
697,2.4373940732402843e-07,1.0,1.7900745868682861,0.877952206523635
698,2.4267507114927866e-07,1.0,1.7905492782592773,0.877952206523635
699,2.4161070655281947e-07,1.0,1.791024088859558,0.877952206523635
700,2.3841759855258715e-07,1.0,1.7914968729019165,0.877952206523635
701,2.3841759855258715e-07,1.0,1.7919684648513794,0.877952206523635
702,2.3735324816698267e-07,1.0,1.7924398183822632,0.877952206523635
703,2.3628889778137818e-07,1.0,1.7929106950759888,0.877952206523635
704,2.3522453318491898e-07,1.0,1.7933815717697144,0.877952206523635
705,2.3522453318491898e-07,1.0,1.7938520908355713,0.877952206523635
706,2.3309583241371001e-07,1.0,1.794321894645691,0.877952206523635
707,2.320314536063961e-07,1.0,1.7947919368743896,0.877952206523635
708,2.299027244134777e-07,1.0,1.7952601909637451,0.877952206523635
709,2.2883837402787321e-07,1.0,1.7957265377044678,0.877952206523635
710,2.2883837402787321e-07,1.0,1.7961920499801636,0.877952206523635
711,2.2777400943141402e-07,1.0,1.796656847000122,0.877952206523635
712,2.2670964483495482e-07,1.0,1.7971217632293701,0.877952206523635
713,2.2564529444935033e-07,1.0,1.7975858449935913,0.877952206523635
714,2.2564529444935033e-07,1.0,1.7980499267578125,0.877952206523635
715,2.2138783606351353e-07,1.0,1.7985166311264038,0.877952206523635
716,2.2138783606351353e-07,1.0,1.7989842891693115,0.877952206523635
717,2.2138783606351353e-07,1.0,1.799452781677246,0.877952206523635
718,2.1925913529230456e-07,1.0,1.7999217510223389,0.877952206523635
719,2.1925913529230456e-07,1.0,1.8003904819488525,0.877952206523635
720,2.1819475648499065e-07,1.0,1.8008590936660767,0.877952206523635
721,2.1713039188853145e-07,1.0,1.8013273477554321,0.877952206523635
722,2.1606605571378168e-07,1.0,1.8017953634262085,0.877952206523635
723,2.1500169111732248e-07,1.0,1.8022629022598267,0.877952206523635
724,2.13937340731718e-07,1.0,1.8027305603027344,0.877952206523635
725,2.1287296192440408e-07,1.0,1.8031976222991943,0.877952206523635
726,2.1287296192440408e-07,1.0,1.803665041923523,0.877952206523635
727,2.118086115387996e-07,1.0,1.804131269454956,0.877952206523635
728,2.107442611531951e-07,1.0,1.8045978546142578,0.877952206523635
729,2.107442611531951e-07,1.0,1.8050645589828491,0.877952206523635
730,2.096798965567359e-07,1.0,1.8055309057235718,0.877952206523635
731,2.086155319602767e-07,1.0,1.8059972524642944,0.877952206523635
732,2.064868027673583e-07,1.0,1.8064632415771484,0.877952206523635
733,2.064868027673583e-07,1.0,1.8069283962249756,0.877952206523635
734,2.0542245238175383e-07,1.0,1.8073934316635132,0.877952206523635
735,2.0435808778529463e-07,1.0,1.8078588247299194,0.877952206523635
736,2.0435808778529463e-07,1.0,1.8083239793777466,0.877952206523635
737,2.0329373739969014e-07,1.0,1.8087882995605469,0.877952206523635
738,2.0222937280323094e-07,1.0,1.809252381324768,0.877952206523635
739,2.0222937280323094e-07,1.0,1.809717059135437,0.877952206523635
740,2.0010064361031255e-07,1.0,1.8101805448532104,0.877952206523635
741,1.9797190020653943e-07,1.0,1.8106414079666138,0.877952206523635
742,1.9584318522447575e-07,1.0,1.8111015558242798,0.877952206523635
743,1.9584318522447575e-07,1.0,1.8115627765655518,0.877952206523635
744,1.9584318522447575e-07,1.0,1.8120241165161133,0.877952206523635
745,1.9371445603155735e-07,1.0,1.8124862909317017,0.877952206523635
746,1.9265009143509815e-07,1.0,1.8129512071609497,0.877952206523635
747,1.9265009143509815e-07,1.0,1.8134186267852783,0.877952206523635
748,1.9052137645303446e-07,1.0,1.8138864040374756,0.877952206523635
749,1.9052137645303446e-07,1.0,1.8143541812896729,0.877952206523635
750,1.8945699764572055e-07,1.0,1.8148229122161865,0.877952206523635
751,1.8839264726011606e-07,1.0,1.8152906894683838,0.877952206523635
752,1.8732828266365686e-07,1.0,1.8157585859298706,0.877952206523635
753,1.8732828266365686e-07,1.0,1.8162260055541992,0.877952206523635
754,1.8626393227805238e-07,1.0,1.8166933059692383,0.877952206523635
755,1.8626393227805238e-07,1.0,1.8171604871749878,0.877952206523635
756,1.8413520308513398e-07,1.0,1.817626953125,0.877952206523635
757,1.8413520308513398e-07,1.0,1.8180932998657227,0.877952206523635
758,1.8413520308513398e-07,1.0,1.818560242652893,0.877952206523635
759,1.820064881030703e-07,1.0,1.8190258741378784,0.877952206523635
760,1.809421235066111e-07,1.0,1.8194913864135742,0.877952206523635
761,1.809421235066111e-07,1.0,1.8199571371078491,0.877952206523635
762,1.7987778733186133e-07,1.0,1.8204222917556763,0.877952206523635
763,1.7987778733186133e-07,1.0,1.8208874464035034,0.877952206523635
764,1.788134085245474e-07,1.0,1.8213529586791992,0.877952206523635
765,1.777490439280882e-07,1.0,1.8218175172805786,0.877952206523635
766,1.777490439280882e-07,1.0,1.822282075881958,0.877952206523635
767,1.777490439280882e-07,1.0,1.8227468729019165,0.877952206523635
768,1.7562031473516981e-07,1.0,1.823211431503296,0.877952206523635
769,1.7562031473516981e-07,1.0,1.8236757516860962,0.877952206523635
770,1.7455595013871061e-07,1.0,1.8241403102874756,0.877952206523635
771,1.7349159975310613e-07,1.0,1.8246040344238281,0.877952206523635
772,1.7242723515664693e-07,1.0,1.8250675201416016,0.877952206523635
773,1.7242723515664693e-07,1.0,1.825531005859375,0.877952206523635
774,1.7242723515664693e-07,1.0,1.8259952068328857,0.877952206523635
775,1.7136288477104245e-07,1.0,1.8264586925506592,0.877952206523635
776,1.7029852017458325e-07,1.0,1.8269225358963013,0.877952206523635
777,1.6923414136726933e-07,1.0,1.8273855447769165,0.877952206523635
778,1.6816979098166485e-07,1.0,1.8278454542160034,0.877952206523635
779,1.6816979098166485e-07,1.0,1.8283040523529053,0.877952206523635
780,1.6604106178874645e-07,1.0,1.8287619352340698,0.877952206523635
781,1.6497668298143253e-07,1.0,1.8292189836502075,0.877952206523635
782,1.6497668298143253e-07,1.0,1.8296750783920288,0.877952206523635
783,1.6497668298143253e-07,1.0,1.830132246017456,0.877952206523635
784,1.6284796799936885e-07,1.0,1.830592393875122,0.877952206523635
785,1.6178360340290965e-07,1.0,1.8310543298721313,0.877952206523635
786,1.6178360340290965e-07,1.0,1.8315175771713257,0.877952206523635
787,1.6178360340290965e-07,1.0,1.831981897354126,0.877952206523635
788,1.6071923880645045e-07,1.0,1.832445740699768,0.877952206523635
789,1.5965487420999125e-07,1.0,1.8329097032546997,0.877952206523635
790,1.5965487420999125e-07,1.0,1.8333740234375,0.877952206523635
791,1.5752615922792756e-07,1.0,1.8338375091552734,0.877952206523635
792,1.5752615922792756e-07,1.0,1.8343003988265991,0.877952206523635
793,1.5752615922792756e-07,1.0,1.8347634077072144,0.877952206523635
794,1.5539743003500917e-07,1.0,1.8352254629135132,0.877952206523635
795,1.5539743003500917e-07,1.0,1.835687518119812,0.877952206523635
796,1.5539743003500917e-07,1.0,1.83614981174469,0.877952206523635
797,1.5433306543854997e-07,1.0,1.8366127014160156,0.877952206523635
798,1.5220435045648628e-07,1.0,1.83707594871521,0.877952206523635
799,1.5220435045648628e-07,1.0,1.8375380039215088,0.877952206523635
800,1.5220435045648628e-07,1.0,1.838001012802124,0.877952206523635
801,1.5113997164917237e-07,1.0,1.8384630680084229,0.877952206523635
802,1.5113997164917237e-07,1.0,1.8389254808425903,0.877952206523635
803,1.4901124245625397e-07,1.0,1.8393876552581787,0.877952206523635
804,1.4901124245625397e-07,1.0,1.8398497104644775,0.877952206523635
805,1.4794686364894005e-07,1.0,1.8403111696243286,0.877952206523635
806,1.4794686364894005e-07,1.0,1.840772032737732,0.877952206523635
807,1.4794686364894005e-07,1.0,1.8412338495254517,0.877952206523635
808,1.4581814866687637e-07,1.0,1.841695785522461,0.877952206523635
809,1.4475378407041717e-07,1.0,1.8421576023101807,0.877952206523635
810,1.4475378407041717e-07,1.0,1.8426198959350586,0.877952206523635
811,1.4475378407041717e-07,1.0,1.8430814743041992,0.877952206523635
812,1.4475378407041717e-07,1.0,1.8435449600219727,0.877952206523635
813,1.4262505487749877e-07,1.0,1.8440073728561401,0.877952206523635
814,1.4262505487749877e-07,1.0,1.844469428062439,0.877952206523635
815,1.4156070449189428e-07,1.0,1.8449316024780273,0.877952206523635
816,1.4156070449189428e-07,1.0,1.8453938961029053,0.877952206523635
817,1.3943197529897589e-07,1.0,1.8458548784255981,0.877952206523635
818,1.3836759649166197e-07,1.0,1.846315622329712,0.877952206523635
819,1.3836759649166197e-07,1.0,1.846775770187378,0.877952206523635
820,1.3730323189520277e-07,1.0,1.8472355604171753,0.877952206523635
821,1.3623886729874357e-07,1.0,1.8476932048797607,0.877952206523635
822,1.3623886729874357e-07,1.0,1.8481484651565552,0.877952206523635
823,1.3517451691313909e-07,1.0,1.8486031293869019,0.877952206523635
824,1.3517451691313909e-07,1.0,1.8490574359893799,0.877952206523635
825,1.341101523166799e-07,1.0,1.8495107889175415,0.877952206523635
826,1.341101523166799e-07,1.0,1.849963903427124,0.877952206523635
827,1.330457877202207e-07,1.0,1.8504172563552856,0.877952206523635
828,1.330457877202207e-07,1.0,1.8508702516555786,0.877952206523635
829,1.309170585273023e-07,1.0,1.8513221740722656,0.877952206523635
830,1.309170585273023e-07,1.0,1.8517740964889526,0.877952206523635
831,1.309170585273023e-07,1.0,1.8522260189056396,0.877952206523635
832,1.309170585273023e-07,1.0,1.8526785373687744,0.877952206523635
833,1.298526939308431e-07,1.0,1.8531302213668823,0.877952206523635
834,1.287883293343839e-07,1.0,1.8535821437835693,0.877952206523635
835,1.277239647379247e-07,1.0,1.854038953781128,0.877952206523635
836,1.277239647379247e-07,1.0,1.8544981479644775,0.877952206523635
837,1.266596001414655e-07,1.0,1.8549587726593018,0.877952206523635
838,1.266596001414655e-07,1.0,1.8554191589355469,0.877952206523635
839,1.266596001414655e-07,1.0,1.8558799028396606,0.877952206523635
840,1.255952355450063e-07,1.0,1.8563413619995117,0.877952206523635
841,1.245308709485471e-07,1.0,1.856803297996521,0.877952206523635
842,1.234665063520879e-07,1.0,1.8572641611099243,0.877952206523635
843,1.234665063520879e-07,1.0,1.8577241897583008,0.877952206523635
844,1.234665063520879e-07,1.0,1.858184814453125,0.877952206523635
845,1.234665063520879e-07,1.0,1.8586453199386597,0.877952206523635
846,1.213377771591695e-07,1.0,1.8591049909591675,0.877952206523635
847,1.213377771591695e-07,1.0,1.8595644235610962,0.877952206523635
848,1.213377771591695e-07,1.0,1.8600237369537354,0.877952206523635
849,1.213377771591695e-07,1.0,1.8604841232299805,0.877952206523635
850,1.213377771591695e-07,1.0,1.8609445095062256,0.877952206523635
851,1.202734125627103e-07,1.0,1.8614041805267334,0.877952206523635
852,1.1920906217710581e-07,1.0,1.8618638515472412,0.877952206523635
853,1.1920906217710581e-07,1.0,1.8623234033584595,0.877952206523635
854,1.1920906217710581e-07,1.0,1.862783432006836,0.877952206523635
855,1.1814469047521925e-07,1.0,1.8632428646087646,0.877952206523635
856,1.1708032587876005e-07,1.0,1.8637011051177979,0.877952206523635
857,1.1708032587876005e-07,1.0,1.8641594648361206,0.877952206523635
858,1.1708032587876005e-07,1.0,1.8646183013916016,0.877952206523635
859,1.1601596128230085e-07,1.0,1.8650771379470825,0.877952206523635
860,1.1495160379126901e-07,1.0,1.8655349016189575,0.877952206523635
861,1.1495160379126901e-07,1.0,1.8659929037094116,0.877952206523635
862,1.1495160379126901e-07,1.0,1.866450309753418,0.877952206523635
863,1.1495160379126901e-07,1.0,1.8669087886810303,0.877952206523635
864,1.1495160379126901e-07,1.0,1.8673678636550903,0.877952206523635
865,1.1282287459835061e-07,1.0,1.8678256273269653,0.877952206523635
866,1.1282287459835061e-07,1.0,1.8682831525802612,0.877952206523635
867,1.1282287459835061e-07,1.0,1.8687410354614258,0.877952206523635
868,1.1282287459835061e-07,1.0,1.8691991567611694,0.877952206523635
869,1.1282287459835061e-07,1.0,1.86965811252594,0.877952206523635
870,1.1175851710731877e-07,1.0,1.8701162338256836,0.877952206523635
871,1.1069414540543221e-07,1.0,1.87057363986969,0.877952206523635
872,1.0962977370354565e-07,1.0,1.871030569076538,0.877952206523635
873,1.075010374051999e-07,1.0,1.8714849948883057,0.877952206523635
874,1.075010374051999e-07,1.0,1.8719359636306763,0.877952206523635
875,1.064366728087407e-07,1.0,1.872383713722229,0.877952206523635
876,1.064366728087407e-07,1.0,1.8728294372558594,0.877952206523635
877,1.064366728087407e-07,1.0,1.8732750415802002,0.877952206523635
878,1.064366728087407e-07,1.0,1.8737214803695679,0.877952206523635
879,1.053723082122815e-07,1.0,1.874167561531067,0.877952206523635
880,1.0430795072124965e-07,1.0,1.8746134042739868,0.877952206523635
881,1.0430795072124965e-07,1.0,1.8750582933425903,0.877952206523635
882,1.0430795072124965e-07,1.0,1.8755035400390625,0.877952206523635
883,1.0430795072124965e-07,1.0,1.8759491443634033,0.877952206523635
884,1.0430795072124965e-07,1.0,1.876395583152771,0.877952206523635
885,1.021792144229039e-07,1.0,1.876835823059082,0.877952206523635
886,1.011148498264447e-07,1.0,1.8772722482681274,0.877952206523635
887,1.0005049233541286e-07,1.0,1.87770676612854,0.877952206523635
888,1.0005049233541286e-07,1.0,1.8781397342681885,0.877952206523635
889,1.0005049233541286e-07,1.0,1.8785732984542847,0.877952206523635
890,1.0005049233541286e-07,1.0,1.8790067434310913,0.877952206523635
891,9.89861206335263e-08,1.0,1.8794392347335815,0.877952206523635
892,9.89861206335263e-08,1.0,1.8798714876174927,0.877952206523635
893,9.79217560370671e-08,1.0,1.8803037405014038,0.877952206523635
894,9.79217560370671e-08,1.0,1.880735993385315,0.877952206523635
895,9.79217560370671e-08,1.0,1.881169080734253,0.877952206523635
896,9.79217560370671e-08,1.0,1.8816030025482178,0.877952206523635
897,9.685738433518054e-08,1.0,1.8820356130599976,0.877952206523635
898,9.685738433518054e-08,1.0,1.882468342781067,0.877952206523635
899,9.685738433518054e-08,1.0,1.8829010725021362,0.877952206523635
900,9.685738433518054e-08,1.0,1.8833333253860474,0.877952206523635
901,9.579303394957606e-08,1.0,1.8837674856185913,0.877952206523635
902,9.47286622476895e-08,1.0,1.884200096130371,0.877952206523635
903,9.47286622476895e-08,1.0,1.8846319913864136,0.877952206523635
904,9.36642976512303e-08,1.0,1.88507080078125,0.877952206523635
905,9.259992594934374e-08,1.0,1.8855125904083252,0.877952206523635
906,9.259992594934374e-08,1.0,1.885956048965454,0.877952206523635
907,9.259992594934374e-08,1.0,1.886400818824768,0.877952206523635
908,9.153556135288454e-08,1.0,1.8868446350097656,0.877952206523635
909,9.04712038618527e-08,1.0,1.8872873783111572,0.877952206523635
910,9.04712038618527e-08,1.0,1.8877307176589966,0.877952206523635
911,9.04712038618527e-08,1.0,1.888174057006836,0.877952206523635
912,9.04712038618527e-08,1.0,1.8886178731918335,0.877952206523635
913,9.04712038618527e-08,1.0,1.8890628814697266,0.877952206523635
914,8.94068392653935e-08,1.0,1.889506220817566,0.877952206523635
915,8.94068392653935e-08,1.0,1.889949083328247,0.877952206523635
916,8.94068392653935e-08,1.0,1.8903920650482178,0.877952206523635
917,8.94068392653935e-08,1.0,1.8908354043960571,0.877952206523635
918,8.834246756350694e-08,1.0,1.8912792205810547,0.877952206523635
919,8.834246756350694e-08,1.0,1.891723394393921,0.877952206523635
920,8.727810296704774e-08,1.0,1.8921667337417603,0.877952206523635
921,8.727810296704774e-08,1.0,1.8926090002059937,0.877952206523635
922,8.727810296704774e-08,1.0,1.8930517435073853,0.877952206523635
923,8.727810296704774e-08,1.0,1.8934946060180664,0.877952206523635
924,8.727810296704774e-08,1.0,1.8939379453659058,0.877952206523635
925,8.621373837058854e-08,1.0,1.8943817615509033,0.877952206523635
926,8.621373837058854e-08,1.0,1.89482581615448,0.877952206523635
927,8.408500917767014e-08,1.0,1.895268201828003,0.877952206523635
928,8.408500917767014e-08,1.0,1.895709753036499,0.877952206523635
929,8.408500917767014e-08,1.0,1.8961505889892578,0.877952206523635
930,8.408500917767014e-08,1.0,1.8965922594070435,0.877952206523635
931,8.408500917767014e-08,1.0,1.897034764289856,0.877952206523635
932,8.408500917767014e-08,1.0,1.897477388381958,0.877952206523635
933,8.302064458121095e-08,1.0,1.897918939590454,0.877952206523635
934,8.302064458121095e-08,1.0,1.8983601331710815,0.877952206523635
935,8.302064458121095e-08,1.0,1.8988007307052612,0.877952206523635
936,8.195627998475175e-08,1.0,1.8992420434951782,0.877952206523635
937,8.195627998475175e-08,1.0,1.8996837139129639,0.877952206523635
938,8.089191538829255e-08,1.0,1.900123953819275,0.877952206523635
939,8.089191538829255e-08,1.0,1.9005601406097412,0.877952206523635
940,7.982754368640599e-08,1.0,1.9009929895401,0.877952206523635
941,7.982754368640599e-08,1.0,1.9014241695404053,0.877952206523635
942,7.982754368640599e-08,1.0,1.9018548727035522,0.877952206523635
943,7.982754368640599e-08,1.0,1.9022856950759888,0.877952206523635
944,7.982754368640599e-08,1.0,1.9027172327041626,0.877952206523635
945,7.982754368640599e-08,1.0,1.9031494855880737,0.877952206523635
946,7.769881449348759e-08,1.0,1.9035818576812744,0.877952206523635
947,7.663444279160103e-08,1.0,1.9040124416351318,0.877952206523635
948,7.663444279160103e-08,1.0,1.904441237449646,0.877952206523635
949,7.663444279160103e-08,1.0,1.9048701524734497,0.877952206523635
950,7.663444279160103e-08,1.0,1.9052993059158325,0.877952206523635
951,7.663444279160103e-08,1.0,1.9057292938232422,0.877952206523635
952,7.663444279160103e-08,1.0,1.906159520149231,0.877952206523635
953,7.557007819514183e-08,1.0,1.906591534614563,0.877952206523635
954,7.557007819514183e-08,1.0,1.9070252180099487,0.877952206523635
955,7.450571359868263e-08,1.0,1.9074573516845703,0.877952206523635
956,7.344134900222343e-08,1.0,1.907888650894165,0.877952206523635
957,7.344134900222343e-08,1.0,1.9083200693130493,0.877952206523635
958,7.344134900222343e-08,1.0,1.9087517261505127,0.877952206523635
959,7.344134900222343e-08,1.0,1.9091845750808716,0.877952206523635
960,7.344134900222343e-08,1.0,1.90961754322052,0.877952206523635
961,7.344134900222343e-08,1.0,1.9100513458251953,0.877952206523635
962,7.237698440576423e-08,1.0,1.910483717918396,0.877952206523635
963,7.237698440576423e-08,1.0,1.9109153747558594,0.877952206523635
964,7.237698440576423e-08,1.0,1.9113472700119019,0.877952206523635
965,7.237698440576423e-08,1.0,1.9117791652679443,0.877952206523635
966,7.131261980930503e-08,1.0,1.912211537361145,0.877952206523635
967,7.131261980930503e-08,1.0,1.9126451015472412,0.877952206523635
968,7.131261980930503e-08,1.0,1.9130789041519165,0.877952206523635
969,7.024824810741848e-08,1.0,1.913512945175171,0.877952206523635
970,7.024824810741848e-08,1.0,1.9139474630355835,0.877952206523635
971,6.918388351095928e-08,1.0,1.914379358291626,0.877952206523635
972,6.918388351095928e-08,1.0,1.9148105382919312,0.877952206523635
973,6.918388351095928e-08,1.0,1.9152413606643677,0.877952206523635
974,6.918388351095928e-08,1.0,1.9156731367111206,0.877952206523635
975,6.918388351095928e-08,1.0,1.916105031967163,0.877952206523635
976,6.918388351095928e-08,1.0,1.9165371656417847,0.877952206523635
977,6.811951891450008e-08,1.0,1.9169703722000122,0.877952206523635
978,6.811951891450008e-08,1.0,1.9174044132232666,0.877952206523635
979,6.705515431804088e-08,1.0,1.9178370237350464,0.877952206523635
980,6.705515431804088e-08,1.0,1.9182679653167725,0.877952206523635
981,6.705515431804088e-08,1.0,1.9186992645263672,0.877952206523635
982,6.705515431804088e-08,1.0,1.9191302061080933,0.877952206523635
983,6.705515431804088e-08,1.0,1.9195626974105835,0.877952206523635
984,6.705515431804088e-08,1.0,1.9199953079223633,0.877952206523635
985,6.705515431804088e-08,1.0,1.9204286336898804,0.877952206523635
986,6.705515431804088e-08,1.0,1.9208632707595825,0.877952206523635
987,6.599078261615432e-08,1.0,1.9212957620620728,0.877952206523635
988,6.599078261615432e-08,1.0,1.9217272996902466,0.877952206523635
989,6.492642512512248e-08,1.0,1.9221590757369995,0.877952206523635
990,6.492642512512248e-08,1.0,1.9225904941558838,0.877952206523635
991,6.492642512512248e-08,1.0,1.9230226278305054,0.877952206523635
992,6.386205342323592e-08,1.0,1.9234561920166016,0.877952206523635
993,6.386205342323592e-08,1.0,1.9238914251327515,0.877952206523635
994,6.279768882677672e-08,1.0,1.9243271350860596,0.877952206523635
995,6.279768882677672e-08,1.0,1.9247627258300781,0.877952206523635
996,6.173331712489016e-08,1.0,1.9251962900161743,0.877952206523635
997,6.173331712489016e-08,1.0,1.9256287813186646,0.877952206523635
998,6.173331712489016e-08,1.0,1.9260607957839966,0.877952206523635
999,6.173331712489016e-08,1.0,1.9264934062957764,0.877952206523635
