,loss,recall,val_loss,val_recall
0,0.6755033135414124,0.5911775724275724,0.6953220367431641,0.6406593406593405
1,0.6439157724380493,0.7584415584415584,0.6628564596176147,0.49740646258503396
2,0.6199987530708313,0.7715110286538858,0.6391496062278748,0.3125
3,0.5981411337852478,0.7955215419501133,0.6146811246871948,0.3125
4,0.5630517601966858,0.8037337662337662,0.6046330332756042,0.3125
5,0.5494968295097351,0.8255952380952382,0.5764821171760559,0.7015817515817515
6,0.5309334993362427,0.8365337043908473,0.5704526901245117,0.5845270800627943
7,0.5150907039642334,0.8549036281179138,0.5457950830459595,0.7892857142857143
8,0.5012012124061584,0.8549036281179138,0.5501264929771423,0.7676303854875283
9,0.4845239520072937,0.8549036281179138,0.5390542149543762,0.7814625850340136
10,0.4774602949619293,0.8549036281179138,0.5119972229003906,0.816387580673295
11,0.4643886983394623,0.8537131519274377,0.5237680077552795,0.8210927960927962
12,0.44907960295677185,0.8691893424036282,0.5014587044715881,0.838718820861678
13,0.44393229484558105,0.8895975056689343,0.5116929411888123,0.82599642421071
14,0.43468359112739563,0.8995181405895691,0.47819191217422485,0.8569488051630909
15,0.42197278141975403,0.9064625850340137,0.4766778349876404,0.854341095412524
16,0.41207048296928406,0.9166666666666667,0.47162580490112305,0.878968253968254
17,0.4035172164440155,0.9191017316017316,0.4942202568054199,0.8625283446712019
18,0.40244072675704956,0.9375,0.4919430911540985,0.8863378684807256
19,0.3939635455608368,0.9191017316017316,0.45905551314353943,0.8684807256235827
20,0.3937681019306183,0.9272959183673469,0.4494219124317169,0.8553004535147393
21,0.38328585028648376,0.9101731601731602,0.45946693420410156,0.8660714285714286
22,0.3734683692455292,0.9375,0.4678732752799988,0.8982426303854875
23,0.3689001500606537,0.9375,0.445159375667572,0.8734410430839002
24,0.3629879355430603,0.9255952380952381,0.45424503087997437,0.8660714285714286
25,0.35919681191444397,0.9438775510204083,0.44814586639404297,0.8779761904761905
26,0.35896968841552734,0.9375,0.4277191758155823,0.8734410430839002
27,0.3620212972164154,0.9438775510204083,0.46063241362571716,0.8244047619047619
28,0.354053258895874,0.9375,0.44529056549072266,0.8617107099249957
29,0.34286361932754517,0.9310064935064936,0.42236071825027466,0.8779761904761905
30,0.3359427750110626,0.9438775510204083,0.4330180287361145,0.8605769230769231
31,0.3297054171562195,0.9523809523809524,0.4455562233924866,0.8605769230769231
32,0.32562175393104553,0.9438775510204083,0.43977090716362,0.872481684981685
33,0.318621963262558,0.9523809523809524,0.4111482799053192,0.8605769230769231
34,0.3181563913822174,0.9642857142857143,0.41527894139289856,0.8861721611721611
35,0.31301090121269226,0.9523809523809524,0.44025418162345886,0.8605769230769231
36,0.30840227007865906,0.9523809523809524,0.42647749185562134,0.8605769230769231
37,0.3021949231624603,0.9642857142857143,0.4005672037601471,0.878575789290075
38,0.3026753067970276,0.9761904761904762,0.4049106538295746,0.8904805511948368
39,0.2990782558917999,0.9642857142857143,0.40750056505203247,0.8605769230769231
40,0.2942116856575012,0.9642857142857143,0.43233805894851685,0.878575789290075
41,0.2915438115596771,0.9642857142857143,0.3961452543735504,0.8623626373626373
42,0.28798532485961914,1.0,0.3977563679218292,0.885574346288632
43,0.28072503209114075,0.9761904761904762,0.4124598503112793,0.8904805511948368
44,0.277040034532547,1.0,0.3908625543117523,0.8904805511948368
45,0.2771511375904083,1.0,0.41166332364082336,0.8742673992673993
46,0.27370312809944153,1.0,0.38863417506217957,0.8861721611721611
47,0.2682724595069885,1.0,0.3981204032897949,0.878575789290075
48,0.26506736874580383,1.0,0.3832848072052002,0.8623626373626373
49,0.26005101203918457,1.0,0.3805452883243561,0.8963453213453213
50,0.25390002131462097,1.0,0.3908051550388336,0.878575789290075
51,0.25070300698280334,1.0,0.3902893662452698,0.8861721611721611
52,0.24723704159259796,1.0,0.39752790331840515,0.8742673992673993
53,0.2432028353214264,1.0,0.3791021704673767,0.8904805511948368
54,0.2420927733182907,1.0,0.37825992703437805,0.8700156985871271
55,0.2407141476869583,1.0,0.38250473141670227,0.898076923076923
56,0.2359692007303238,1.0,0.3817673623561859,0.878575789290075
57,0.2338787019252777,1.0,0.3705516457557678,0.898076923076923
58,0.23348140716552734,1.0,0.37451308965682983,0.8861721611721611
59,0.22902001440525055,1.0,0.36250820755958557,0.9039983825698111
60,0.22957757115364075,1.0,0.38598695397377014,0.878575789290075
61,0.2281724214553833,1.0,0.3690040707588196,0.9057299843014128
62,0.22335849702358246,1.0,0.3693254590034485,0.878575789290075
63,0.22006762027740479,1.0,0.3620097041130066,0.8873317159031444
64,0.21873460710048676,1.0,0.36636680364608765,0.8742673992673993
65,0.21521638333797455,1.0,0.3709201514720917,0.898076923076923
66,0.21275867521762848,1.0,0.3706154227256775,0.8861721611721611
67,0.2117856740951538,1.0,0.3539828658103943,0.9057299843014128
68,0.20787133276462555,1.0,0.35197025537490845,0.9057299843014128
69,0.20755614340305328,1.0,0.35565632581710815,0.915903144474573
70,0.20259860157966614,1.0,0.37204185128211975,0.8861721611721611
71,0.20376595854759216,1.0,0.3642945885658264,0.8904805511948368
72,0.20140203833580017,1.0,0.350721538066864,0.8742673992673992
73,0.19804027676582336,1.0,0.34312909841537476,0.915903144474573
74,0.19401738047599792,1.0,0.35643988847732544,0.8861721611721611
75,0.19331054389476776,1.0,0.34903430938720703,0.9057299843014128
76,0.19087250530719757,1.0,0.3614588677883148,0.8904805511948368
77,0.1880917102098465,1.0,0.3486544191837311,0.9057299843014128
78,0.18526141345500946,1.0,0.3498642146587372,0.8742673992673992
79,0.18232886493206024,1.0,0.3463134169578552,0.9057299843014128
80,0.1799100935459137,1.0,0.3504725396633148,0.8700156985871271
81,0.17798277735710144,1.0,0.3511473834514618,0.9057299843014128
82,0.1752026528120041,1.0,0.33835384249687195,0.881920460491889
83,0.17267313599586487,1.0,0.34253057837486267,0.898076923076923
84,0.17086417973041534,1.0,0.3442349433898926,0.8742673992673992
85,0.16892530024051666,1.0,0.347047358751297,0.8861721611721611
86,0.16769663989543915,1.0,0.34900251030921936,0.898076923076923
87,0.1663939654827118,1.0,0.3328062891960144,0.881920460491889
88,0.16465021669864655,1.0,0.3249332010746002,0.9057299843014128
89,0.16404488682746887,1.0,0.3381083309650421,0.8742673992673992
90,0.16484035551548004,1.0,0.33637410402297974,0.8742673992673992
91,0.16727760434150696,1.0,0.3321129381656647,0.8700156985871271
92,0.16631858050823212,1.0,0.33815500140190125,0.898076923076923
93,0.16583584249019623,1.0,0.3632558286190033,0.878575789290075
94,0.1699916273355484,1.0,0.34088823199272156,0.898076923076923
95,0.16736604273319244,1.0,0.3272719383239746,0.8665834165834166
96,0.16805018484592438,1.0,0.3461126983165741,0.8964329321472179
97,0.16997887194156647,1.0,0.3379969000816345,0.8861721611721611
98,0.16362081468105316,1.0,0.3255996108055115,0.898076923076923
99,0.15890666842460632,1.0,0.3338416516780853,0.8742673992673992
100,0.15658985078334808,1.0,0.3281639516353607,0.8920936206650492
101,0.15390662848949432,1.0,0.3374228775501251,0.898076923076923
102,0.15293732285499573,1.0,0.33484330773353577,0.8904805511948368
103,0.1519699990749359,1.0,0.31601792573928833,0.915903144474573
104,0.15093258023262024,1.0,0.35033681988716125,0.866671027385313
105,0.14972972869873047,1.0,0.322214812040329,0.9021585557299842
106,0.14655110239982605,1.0,0.3250076472759247,0.8742673992673992
107,0.14519919455051422,1.0,0.3192198872566223,0.915903144474573
108,0.14269614219665527,1.0,0.3272974491119385,0.881920460491889
109,0.1409125030040741,1.0,0.32375285029411316,0.9057299843014128
110,0.13935059309005737,1.0,0.3183712065219879,0.8920936206650492
111,0.1372990608215332,1.0,0.3259130120277405,0.8742673992673992
112,0.13569365441799164,1.0,0.3194870352745056,0.8920936206650492
113,0.1338728815317154,1.0,0.3158996105194092,0.881920460491889
114,0.13228222727775574,1.0,0.3241325914859772,0.898076923076923
115,0.13082043826580048,1.0,0.3181135356426239,0.8742673992673992
116,0.12961530685424805,1.0,0.317107230424881,0.8742673992673992
117,0.12843157351016998,1.0,0.3211492896080017,0.881920460491889
118,0.12740463018417358,1.0,0.3168276846408844,0.8742673992673992
119,0.1263764351606369,1.0,0.3172702193260193,0.881920460491889
120,0.12535105645656586,1.0,0.3144952356815338,0.8742673992673992
121,0.12432439625263214,1.0,0.31624680757522583,0.881920460491889
122,0.12321614474058151,1.0,0.3183860778808594,0.8742673992673992
123,0.12231658399105072,1.0,0.3133904039859772,0.8742673992673992
124,0.12139464914798737,1.0,0.312724769115448,0.881920460491889
125,0.12054825574159622,1.0,0.3161374032497406,0.8742673992673992
126,0.11987579613924026,1.0,0.3098188042640686,0.8920936206650492
127,0.11899345368146896,1.0,0.315274178981781,0.8742673992673992
128,0.11824321746826172,1.0,0.31238797307014465,0.8920936206650492
129,0.11756373196840286,1.0,0.3141006529331207,0.8742673992673992
130,0.11732801049947739,1.0,0.32417720556259155,0.866671027385313
131,0.11784608662128448,1.0,0.30560341477394104,0.8873317159031444
132,0.117674820125103,1.0,0.3156125843524933,0.8742673992673992
133,0.11765818297863007,1.0,0.30975276231765747,0.898076923076923
134,0.11692743748426437,1.0,0.3176575005054474,0.881920460491889
135,0.11818438768386841,1.0,0.3288382887840271,0.866671027385313
136,0.11784472316503525,1.0,0.30562567710876465,0.8873317159031444
137,0.11674229800701141,1.0,0.31726476550102234,0.8742673992673992
138,0.11601912975311279,1.0,0.3147468864917755,0.9009680795395081
139,0.11463284492492676,1.0,0.31422463059425354,0.8742673992673992
140,0.11530210822820663,1.0,0.31902679800987244,0.8742673992673992
141,0.11409182101488113,1.0,0.30305957794189453,0.9069204604918889
142,0.11210604012012482,1.0,0.31935620307922363,0.8742673992673992
143,0.11147003620862961,1.0,0.3059815764427185,0.9021585557299842
144,0.11075107008218765,1.0,0.3257930874824524,0.866671027385313
145,0.11143133789300919,1.0,0.30461999773979187,0.893825222396651
146,0.10974080860614777,1.0,0.3099833130836487,0.881920460491889
147,0.10879730433225632,1.0,0.30751344561576843,0.9057299843014128
148,0.10629221051931381,1.0,0.300076961517334,0.8920936206650492
149,0.10497735440731049,1.0,0.3060590922832489,0.881920460491889
150,0.10328292101621628,1.0,0.3089408874511719,0.8920936206650492
151,0.10241272300481796,1.0,0.304514080286026,0.881920460491889
152,0.10122789442539215,1.0,0.31471776962280273,0.8742673992673992
153,0.10063733160495758,1.0,0.30385488271713257,0.8742673992673992
154,0.09980184584856033,1.0,0.30797263979911804,0.881920460491889
155,0.0988200381398201,1.0,0.30410173535346985,0.8920936206650492
156,0.09796550124883652,1.0,0.3070235848426819,0.8742673992673992
157,0.097200408577919,1.0,0.3087695240974426,0.8742673992673992
158,0.09642988443374634,1.0,0.30350303649902344,0.8742673992673992
159,0.09565906226634979,1.0,0.3062208294868469,0.881920460491889
160,0.09479472786188126,1.0,0.302471786737442,0.881920460491889
161,0.09411419928073883,1.0,0.3049558103084564,0.8742673992673992
162,0.09362591058015823,1.0,0.3051711618900299,0.881920460491889
163,0.09319441020488739,1.0,0.3050622344017029,0.8742673992673992
164,0.09315209835767746,1.0,0.3091862201690674,0.8742673992673992
165,0.09248536825180054,1.0,0.30143028497695923,0.8742673992673992
166,0.09184391796588898,1.0,0.30338814854621887,0.881920460491889
167,0.090997114777565,1.0,0.30970484018325806,0.8742673992673992
168,0.09038122743368149,1.0,0.2984798848628998,0.881920460491889
169,0.09001734107732773,1.0,0.3118540346622467,0.8742673992673992
170,0.08964568376541138,1.0,0.3003876209259033,0.9057299843014128
171,0.08885326236486435,1.0,0.30768632888793945,0.8742673992673992
172,0.08811675012111664,1.0,0.29786258935928345,0.8742673992673992
173,0.08757030218839645,1.0,0.30424317717552185,0.881920460491889
174,0.08680915832519531,1.0,0.30247995257377625,0.8742673992673992
175,0.08611232042312622,1.0,0.29813340306282043,0.8920936206650492
176,0.08539450913667679,1.0,0.3042793571949005,0.881920460491889
177,0.084836445748806,1.0,0.29694172739982605,0.881920460491889
178,0.08419201523065567,1.0,0.30078721046447754,0.881920460491889
179,0.08361759036779404,1.0,0.3006407618522644,0.8742673992673992
180,0.08305912464857101,1.0,0.2991352081298828,0.881920460491889
181,0.08247322589159012,1.0,0.3003593981266022,0.881920460491889
182,0.08196484297513962,1.0,0.2953532040119171,0.8920936206650492
183,0.08148636668920517,1.0,0.3016805648803711,0.881920460491889
184,0.08099745213985443,1.0,0.294360876083374,0.8920936206650492
185,0.08051977306604385,1.0,0.3003906309604645,0.881920460491889
186,0.08006779849529266,1.0,0.2994033396244049,0.8742673992673992
187,0.07978875190019608,1.0,0.29970288276672363,0.881920460491889
188,0.07959163188934326,1.0,0.3011631965637207,0.8742673992673992
189,0.08016877621412277,1.0,0.29835647344589233,0.8920936206650492
190,0.08067089319229126,1.0,0.31050512194633484,0.8742673992673992
191,0.08121198415756226,1.0,0.29289478063583374,0.8873317159031444
192,0.08126430958509445,1.0,0.3072914481163025,0.8742673992673992
193,0.08146931231021881,1.0,0.30289149284362793,0.8861721611721611
194,0.08066578954458237,1.0,0.299043208360672,0.8873317159031444
195,0.07979558408260345,1.0,0.3043457865715027,0.898076923076923
196,0.07941573858261108,1.0,0.29362964630126953,0.8873317159031444
197,0.07858425378799438,1.0,0.30060768127441406,0.8742673992673992
198,0.07789374887943268,1.0,0.29684704542160034,0.881920460491889
199,0.07706694304943085,1.0,0.2965514063835144,0.8920936206650492
200,0.0755661204457283,1.0,0.29281947016716003,0.8771585557299842
201,0.07491298764944077,1.0,0.2992822825908661,0.8844405594405593
202,0.07486119121313095,1.0,0.2942241132259369,0.881920460491889
203,0.07446332275867462,1.0,0.3026812970638275,0.881920460491889
204,0.07403425872325897,1.0,0.30643850564956665,0.8742673992673992
205,0.07377375662326813,1.0,0.302610844373703,0.8742673992673992
206,0.07313548028469086,1.0,0.2959822118282318,0.8771585557299842
207,0.07239483296871185,1.0,0.3023541569709778,0.8742673992673992
208,0.07176519930362701,1.0,0.3007490336894989,0.8742673992673992
209,0.07150263339281082,1.0,0.2966572940349579,0.8920936206650492
210,0.07088257372379303,1.0,0.3003714978694916,0.881920460491889
211,0.0703618973493576,1.0,0.3018706142902374,0.8742673992673992
212,0.0698050931096077,1.0,0.30392584204673767,0.8742673992673992
213,0.0692695900797844,1.0,0.2968616187572479,0.881920460491889
214,0.0685945600271225,1.0,0.2995278239250183,0.881920460491889
215,0.06839630752801895,1.0,0.30406495928764343,0.8742673992673992
216,0.06857963651418686,1.0,0.2957463264465332,0.8873317159031444
217,0.06910861283540726,1.0,0.30026158690452576,0.881920460491889
218,0.0689937099814415,1.0,0.2978082597255707,0.8873317159031444
219,0.06873554736375809,1.0,0.3045559823513031,0.8742673992673992
220,0.06823752075433731,1.0,0.29659682512283325,0.881920460491889
221,0.06730902194976807,1.0,0.3011248707771301,0.881920460491889
222,0.0667111724615097,1.0,0.2954215705394745,0.881920460491889
223,0.0659332126379013,1.0,0.2964370548725128,0.881920460491889
224,0.0657096579670906,1.0,0.2921590805053711,0.8920936206650492
225,0.06554583460092545,1.0,0.3048228323459625,0.8742673992673992
226,0.0656067281961441,1.0,0.2892611026763916,0.8920936206650492
227,0.06608491390943527,1.0,0.3024102747440338,0.8742673992673992
228,0.06644359230995178,1.0,0.2940189838409424,0.8873317159031444
229,0.06605000793933868,1.0,0.31048181653022766,0.8742673992673992
230,0.06607180088758469,1.0,0.2967012822628021,0.8873317159031444
231,0.06543610990047455,1.0,0.2952471077442169,0.881920460491889
232,0.06486988812685013,1.0,0.3088323771953583,0.8742673992673992
233,0.06500755995512009,1.0,0.3046448826789856,0.8742673992673992
234,0.06632661819458008,1.0,0.32936373353004456,0.8547662654805511
235,0.06608689576387405,1.0,0.282516747713089,0.8932840968555255
236,0.06549669802188873,1.0,0.3206542134284973,0.8504578754578754
237,0.06516795605421066,1.0,0.30642375349998474,0.8742673992673992
238,0.06636533886194229,1.0,0.2872996926307678,0.8873317159031444
239,0.06884263455867767,1.0,0.3092913031578064,0.8742673992673992
240,0.07042519748210907,1.0,0.2915700376033783,0.8932840968555255
241,0.06846089661121368,1.0,0.2894481122493744,0.893825222396651
242,0.06605551391839981,1.0,0.28501665592193604,0.888779870922728
243,0.06467451900243759,1.0,0.31893035769462585,0.866671027385313
244,0.0636318176984787,1.0,0.27487292885780334,0.8920936206650492
245,0.06104061380028725,1.0,0.298715740442276,0.8771585557299842
246,0.05962497368454933,1.0,0.30051079392433167,0.8742673992673992
247,0.05870749428868294,1.0,0.2890109121799469,0.881920460491889
248,0.057603754103183746,1.0,0.2951776087284088,0.8920936206650492
249,0.05702868476510048,1.0,0.29568105936050415,0.881920460491889
250,0.05636708065867424,1.0,0.2964420020580292,0.8920936206650492
251,0.05612803250551224,1.0,0.294523149728775,0.881920460491889
252,0.05565816909074783,1.0,0.2985972762107849,0.881920460491889
253,0.0552838072180748,1.0,0.2927764356136322,0.881920460491889
254,0.054562490433454514,1.0,0.2928088307380676,0.8873317159031444
255,0.05433064326643944,1.0,0.3004004657268524,0.8742673992673992
256,0.05391915515065193,1.0,0.2951643764972687,0.881920460491889
257,0.05378264561295509,1.0,0.30181169509887695,0.8742673992673992
258,0.0535590760409832,1.0,0.29359957575798035,0.8920936206650492
259,0.05339391157031059,1.0,0.29606112837791443,0.881920460491889
260,0.05288832262158394,1.0,0.30017778277397156,0.8742673992673992
261,0.05257922783493996,1.0,0.2906579077243805,0.8873317159031444
262,0.05229980871081352,1.0,0.3023090362548828,0.881920460491889
263,0.052109021693468094,1.0,0.2986455261707306,0.8742673992673992
264,0.05184098333120346,1.0,0.29489848017692566,0.881920460491889
265,0.05150511860847473,1.0,0.3008823096752167,0.881920460491889
266,0.051131244748830795,1.0,0.2937949597835541,0.8771585557299842
267,0.05082301050424576,1.0,0.3027811646461487,0.8742673992673992
268,0.0506642684340477,1.0,0.2964875400066376,0.8920936206650492
269,0.050490546971559525,1.0,0.29683205485343933,0.881920460491889
270,0.05014590546488762,1.0,0.3009333312511444,0.8742673992673992
271,0.04983390495181084,1.0,0.2922843098640442,0.8873317159031444
272,0.049418143928050995,1.0,0.30268019437789917,0.881920460491889
273,0.04929379001259804,1.0,0.3010479807853699,0.8742673992673992
274,0.049067284911870956,1.0,0.29601404070854187,0.8771585557299842
275,0.048875004053115845,1.0,0.3024170398712158,0.8742673992673992
276,0.04857998341321945,1.0,0.29136279225349426,0.8873317159031444
277,0.04826664552092552,1.0,0.30268192291259766,0.8742673992673992
278,0.047960732132196426,1.0,0.29491880536079407,0.8920936206650492
279,0.047775186598300934,1.0,0.29801779985427856,0.8771585557299842
280,0.04768718034029007,1.0,0.30502304434776306,0.8742673992673992
281,0.04739890247583389,1.0,0.29373666644096375,0.8873317159031444
282,0.047140058130025864,1.0,0.3021956980228424,0.881920460491889
283,0.046852994710206985,1.0,0.28993457555770874,0.8873317159031444
284,0.046625230461359024,1.0,0.30437391996383667,0.8742673992673992
285,0.0463980957865715,1.0,0.29252737760543823,0.8920936206650492
286,0.046044979244470596,1.0,0.3025954067707062,0.8742673992673992
287,0.045813847333192825,1.0,0.29450398683547974,0.881920460491889
288,0.045749761164188385,1.0,0.3009359836578369,0.881920460491889
289,0.04580686613917351,1.0,0.3000127971172333,0.8742673992673992
290,0.04557858034968376,1.0,0.3015729486942291,0.881920460491889
291,0.0453345812857151,1.0,0.30251583456993103,0.8742673992673992
292,0.04497990012168884,1.0,0.2974171042442322,0.8873317159031444
293,0.04477119818329811,1.0,0.3020853102207184,0.881920460491889
294,0.044447269290685654,1.0,0.30272650718688965,0.8742673992673992
295,0.044240862131118774,1.0,0.2954782545566559,0.8920936206650492
296,0.04409518837928772,1.0,0.3046533167362213,0.8742673992673992
297,0.04394800215959549,1.0,0.29252657294273376,0.8873317159031444
298,0.04357531666755676,1.0,0.305206835269928,0.8742673992673992
299,0.04360239952802658,1.0,0.29999372363090515,0.8742673992673992
300,0.04325788840651512,1.0,0.2972307801246643,0.881920460491889
301,0.043141357600688934,1.0,0.3106534481048584,0.8742673992673992
302,0.04293805733323097,1.0,0.2967319190502167,0.8771585557299842
303,0.04258338361978531,1.0,0.3002851903438568,0.881920460491889
304,0.04232362285256386,1.0,0.2967166304588318,0.8873317159031444
305,0.04203231260180473,1.0,0.30086758732795715,0.8742673992673992
306,0.04184254631400108,1.0,0.30307623744010925,0.881920460491889
307,0.041797418147325516,1.0,0.29974859952926636,0.8771585557299842
308,0.04151109233498573,1.0,0.30023878812789917,0.8920936206650492
309,0.04125902056694031,1.0,0.29805687069892883,0.8771585557299842
310,0.04114050418138504,1.0,0.30777183175086975,0.8742673992673992
311,0.04099377244710922,1.0,0.2962351441383362,0.8873317159031444
312,0.04075657203793526,1.0,0.30563703179359436,0.8742673992673992
313,0.0405573807656765,1.0,0.3014206886291504,0.8742673992673992
314,0.04039394110441208,1.0,0.29889869689941406,0.8873317159031444
315,0.04011090472340584,1.0,0.3053704798221588,0.8742673992673992
316,0.039864521473646164,1.0,0.2980232536792755,0.8873317159031444
317,0.03973823040723801,1.0,0.3020797371864319,0.881920460491889
318,0.039530545473098755,1.0,0.3021003305912018,0.881920460491889
319,0.03937644883990288,1.0,0.30189967155456543,0.881920460491889
320,0.03916257992386818,1.0,0.3001823425292969,0.881920460491889
321,0.039137665182352066,1.0,0.3051357567310333,0.881920460491889
322,0.03895452246069908,1.0,0.30463820695877075,0.881920460491889
323,0.03882197290658951,1.0,0.2946431338787079,0.8873317159031444
324,0.03874851390719414,1.0,0.31278830766677856,0.8742673992673992
325,0.038621995598077774,1.0,0.29607608914375305,0.8873317159031444
326,0.038464270532131195,1.0,0.30729788541793823,0.8742673992673992
327,0.0382830835878849,1.0,0.30489349365234375,0.8742673992673992
328,0.03803076222538948,1.0,0.29899540543556213,0.8771585557299842
329,0.03786369040608406,1.0,0.30570486187934875,0.881920460491889
330,0.037633661180734634,1.0,0.304476261138916,0.881920460491889
331,0.03765176981687546,1.0,0.2995769679546356,0.8771585557299842
332,0.03727084398269653,1.0,0.3037535548210144,0.881920460491889
333,0.03706646338105202,1.0,0.30435675382614136,0.8771585557299842
334,0.03684941306710243,1.0,0.30048424005508423,0.8873317159031444
335,0.03675684332847595,1.0,0.3096739947795868,0.8742673992673992
336,0.03654863312840462,1.0,0.29817819595336914,0.8873317159031444
337,0.03646349534392357,1.0,0.3059249222278595,0.881920460491889
338,0.03626549243927002,1.0,0.3005440831184387,0.8771585557299842
339,0.03609049320220947,1.0,0.30748289823532104,0.8742673992673992
340,0.03596518561244011,1.0,0.29695433378219604,0.8873317159031444
341,0.035738445818424225,1.0,0.30758529901504517,0.8742673992673992
342,0.03568810597062111,1.0,0.2995399534702301,0.8920936206650492
343,0.03564111888408661,1.0,0.3053431510925293,0.8771585557299842
344,0.03567872568964958,1.0,0.30652061104774475,0.8742673992673992
345,0.03565562516450882,1.0,0.3072752356529236,0.8873317159031444
346,0.03560621291399002,1.0,0.3048163056373596,0.8742673992673992
347,0.035266533493995667,1.0,0.30963921546936035,0.8796786546786546
348,0.0350697822868824,1.0,0.29589298367500305,0.881920460491889
349,0.03486291691660881,1.0,0.3089374899864197,0.8920936206650492
350,0.034618522971868515,1.0,0.30017757415771484,0.8771585557299842
351,0.03431864455342293,1.0,0.30567046999931335,0.8920936206650492
352,0.0340828038752079,1.0,0.29538244009017944,0.8873317159031444
353,0.033993788063526154,1.0,0.31155309081077576,0.8742673992673992
354,0.03386155888438225,1.0,0.29770487546920776,0.8873317159031444
355,0.03361644968390465,1.0,0.3098655045032501,0.8742673992673992
356,0.033455394208431244,1.0,0.2998886704444885,0.8920936206650492
357,0.03338899090886116,1.0,0.3109521269798279,0.8742673992673992
358,0.03323248028755188,1.0,0.29986026883125305,0.8920936206650492
359,0.03305894136428833,1.0,0.3107885420322418,0.8742673992673992
360,0.03301827237010002,1.0,0.305496484041214,0.881920460491889
361,0.03283808380365372,1.0,0.3039528727531433,0.8873317159031444
362,0.03266636282205582,1.0,0.31105974316596985,0.8742673992673992
363,0.03255278617143631,1.0,0.30387571454048157,0.8873317159031444
364,0.03250895068049431,1.0,0.3144613802433014,0.8742673992673992
365,0.032333649694919586,1.0,0.30028191208839417,0.8873317159031444
366,0.03216985613107681,1.0,0.3124219477176666,0.8742673992673992
367,0.03197287768125534,1.0,0.29964086413383484,0.8873317159031444
368,0.03194718807935715,1.0,0.318084716796875,0.8742673992673992
369,0.031769800931215286,1.0,0.2914187014102936,0.8873317159031444
370,0.03171519190073013,1.0,0.31803104281425476,0.8742673992673992
371,0.031565990298986435,1.0,0.29796797037124634,0.8873317159031444
372,0.03131239861249924,1.0,0.3127157688140869,0.8742673992673992
373,0.03111313097178936,1.0,0.2990441918373108,0.8920936206650492
374,0.030994044616818428,1.0,0.31279489398002625,0.8742673992673992
375,0.030870089307427406,1.0,0.30409517884254456,0.8771585557299842
376,0.03090757131576538,1.0,0.31198766827583313,0.8742673992673992
377,0.0306925680488348,1.0,0.3025088310241699,0.8873317159031444
378,0.030566377565264702,1.0,0.3148067891597748,0.8742673992673992
379,0.03053196147084236,1.0,0.30048131942749023,0.8873317159031444
380,0.030245734378695488,1.0,0.3112768530845642,0.8742673992673992
381,0.030076321214437485,1.0,0.30043014883995056,0.8873317159031444
382,0.030039077624678612,1.0,0.31278881430625916,0.8742673992673992
383,0.02996722050011158,1.0,0.3040063679218292,0.8873317159031444
384,0.029825488105416298,1.0,0.3185301721096039,0.8742673992673992
385,0.029715733602643013,1.0,0.3008730411529541,0.8873317159031444
386,0.029606018215417862,1.0,0.31560730934143066,0.8742673992673992
387,0.029494361951947212,1.0,0.30090370774269104,0.8873317159031444
388,0.029387135058641434,1.0,0.31745538115501404,0.8742673992673992
389,0.029227791354060173,1.0,0.3033912777900696,0.8873317159031444
390,0.029150089249014854,1.0,0.3186812400817871,0.8742673992673992
391,0.029142102226614952,1.0,0.3041835427284241,0.8873317159031444
392,0.029043305665254593,1.0,0.318760484457016,0.8742673992673992
393,0.02896304801106453,1.0,0.30215004086494446,0.8873317159031444
394,0.02886842004954815,1.0,0.31915217638015747,0.8742673992673992
395,0.028841136023402214,1.0,0.299393892288208,0.8873317159031444
396,0.02878175675868988,1.0,0.32050231099128723,0.8742673992673992
397,0.02873894013464451,1.0,0.30195075273513794,0.8873317159031444
398,0.02866344340145588,1.0,0.32236215472221375,0.8742673992673992
399,0.029233697801828384,1.0,0.30409547686576843,0.8873317159031444
400,0.029222270473837852,1.0,0.32255125045776367,0.8742673992673992
401,0.029200060293078423,1.0,0.2951514720916748,0.9021585557299842
402,0.029063178226351738,1.0,0.32326269149780273,0.8742673992673992
403,0.02897755615413189,1.0,0.3079164922237396,0.8873317159031444
404,0.02903677523136139,1.0,0.30962347984313965,0.8771585557299842
405,0.03016400896012783,1.0,0.30687281489372253,0.881920460491889
406,0.03330666199326515,1.0,0.3747768998146057,0.8364512471655328
407,0.039807043969631195,1.0,0.3024601936340332,0.8878728414442699
408,0.0451929047703743,1.0,0.2964596152305603,0.8618215118215119
409,0.05121493712067604,1.0,0.3135833442211151,0.8485260770975057
410,0.09069720655679703,0.9761904761904762,0.6508578658103943,0.8017857142857142
411,0.2083653211593628,0.924654710368996,0.46951204538345337,0.8088478981336124
412,0.17689290642738342,0.9238636363636363,0.36415964365005493,0.8862288505145647
413,0.11520970612764359,0.969047619047619,0.39895501732826233,0.8686791383219955
414,0.08727706223726273,0.9880952380952381,0.27957049012184143,0.903714935857793
415,0.06054513528943062,1.0,0.2994054853916168,0.8756846328274899
416,0.05117083340883255,1.0,0.2848122715950012,0.8892024642024642
417,0.0447484590113163,1.0,0.30047884583473206,0.8968864468864469
418,0.039758265018463135,1.0,0.28609248995780945,0.8844405594405594
419,0.03608117625117302,1.0,0.28938010334968567,0.9069204604918891
420,0.033986058086156845,1.0,0.2875787615776062,0.896855525426954
421,0.032066114246845245,1.0,0.28361988067626953,0.9009371580800153
422,0.0309523344039917,1.0,0.28707176446914673,0.90569906284192
423,0.029981162399053574,1.0,0.2861422896385193,0.90569906284192
424,0.029226062819361687,1.0,0.2884422838687897,0.90569906284192
425,0.02863449975848198,1.0,0.2831840515136719,0.90569906284192
426,0.02810848131775856,1.0,0.2857733368873596,0.90569906284192
427,0.027722034603357315,1.0,0.2880784571170807,0.90569906284192
428,0.027378562837839127,1.0,0.28740739822387695,0.90569906284192
429,0.027154460549354553,1.0,0.28937825560569763,0.90569906284192
430,0.026790721341967583,1.0,0.2864617705345154,0.90569906284192
431,0.026668716222047806,1.0,0.29330307245254517,0.90569906284192
432,0.026510436087846756,1.0,0.28661027550697327,0.90569906284192
433,0.026390226557850838,1.0,0.2940237820148468,0.90569906284192
434,0.0261467844247818,1.0,0.2888055741786957,0.90569906284192
435,0.025955306366086006,1.0,0.2949065566062927,0.90569906284192
436,0.025680748745799065,1.0,0.29169800877571106,0.90569906284192
437,0.025345107540488243,1.0,0.2940671145915985,0.8980460016174302
438,0.024955404922366142,1.0,0.29360443353652954,0.90569906284192
439,0.024690911173820496,1.0,0.291482150554657,0.8980460016174302
440,0.024444645270705223,1.0,0.29654985666275024,0.8980460016174302
441,0.02426324598491192,1.0,0.29092511534690857,0.8980460016174302
442,0.0241316556930542,1.0,0.29643529653549194,0.8980460016174302
443,0.024003075435757637,1.0,0.2942665219306946,0.8980460016174302
444,0.023880330845713615,1.0,0.2964193522930145,0.8980460016174302
445,0.023722229525446892,1.0,0.2938968241214752,0.8980460016174302
446,0.023630768060684204,1.0,0.29873281717300415,0.8980460016174302
447,0.023450175300240517,1.0,0.29724982380867004,0.8980460016174302
448,0.023378843441605568,1.0,0.29854097962379456,0.8980460016174302
449,0.023174786940217018,1.0,0.3002827763557434,0.8980460016174302
450,0.023059478029608727,1.0,0.29870858788490295,0.8980460016174302
451,0.022856060415506363,1.0,0.29778510332107544,0.8980460016174302
452,0.022771617397665977,1.0,0.3025476038455963,0.8980460016174302
453,0.02263878472149372,1.0,0.29740214347839355,0.8980460016174302
454,0.022570496425032616,1.0,0.3043709397315979,0.8980460016174302
455,0.022336497902870178,1.0,0.2989272475242615,0.8980460016174302
456,0.022260157391428947,1.0,0.303517609834671,0.8980460016174302
457,0.022070076316595078,1.0,0.2990040183067322,0.8980460016174302
458,0.021979080513119698,1.0,0.305182546377182,0.8980460016174302
459,0.021842848509550095,1.0,0.30217912793159485,0.8980460016174302
460,0.021780282258987427,1.0,0.30274415016174316,0.8980460016174302
461,0.021668564528226852,1.0,0.30318477749824524,0.8980460016174302
462,0.021571708843111992,1.0,0.3031521439552307,0.8980460016174302
463,0.021464018151164055,1.0,0.3053876459598541,0.8980460016174302
464,0.021415945142507553,1.0,0.3044765293598175,0.8980460016174302
465,0.02133900113403797,1.0,0.3030396103858948,0.8980460016174302
466,0.021334482356905937,1.0,0.30633559823036194,0.8980460016174302
467,0.02116273157298565,1.0,0.30252498388290405,0.8980460016174302
468,0.02113230898976326,1.0,0.30914539098739624,0.8980460016174302
469,0.021036913618445396,1.0,0.30440300703048706,0.8980460016174302
470,0.02094421349465847,1.0,0.30825647711753845,0.8980460016174302
471,0.020776493474841118,1.0,0.30522066354751587,0.8980460016174302
472,0.02063327096402645,1.0,0.30799248814582825,0.8980460016174302
473,0.02043572999536991,1.0,0.3050428330898285,0.8980460016174302
474,0.020340336486697197,1.0,0.30507975816726685,0.8980460016174302
475,0.020220700651407242,1.0,0.30865558981895447,0.8980460016174302
476,0.020151803269982338,1.0,0.30710193514823914,0.8980460016174302
477,0.020103605464100838,1.0,0.30615392327308655,0.8980460016174302
478,0.019961122423410416,1.0,0.30546072125434875,0.8980460016174302
479,0.01990458369255066,1.0,0.3124907612800598,0.8980460016174302
480,0.019849181175231934,1.0,0.3049290180206299,0.8980460016174302
481,0.01980007067322731,1.0,0.30911391973495483,0.8980460016174302
482,0.01976780965924263,1.0,0.3080539405345917,0.8980460016174302
483,0.019708367064595222,1.0,0.30987316370010376,0.8980460016174302
484,0.019551273435354233,1.0,0.30921879410743713,0.8980460016174302
485,0.01953931525349617,1.0,0.3118215501308441,0.8980460016174302
486,0.019392279908061028,1.0,0.3073415756225586,0.8980460016174302
487,0.01925956830382347,1.0,0.3127491772174835,0.8980460016174302
488,0.019144436344504356,1.0,0.3078811466693878,0.8980460016174302
489,0.019085193052887917,1.0,0.3135398328304291,0.8980460016174302
490,0.019001584500074387,1.0,0.3085412383079529,0.8980460016174302
491,0.018991053104400635,1.0,0.3105163276195526,0.8980460016174302
492,0.018852900713682175,1.0,0.3123630881309509,0.8980460016174302
493,0.01875893771648407,1.0,0.3075379729270935,0.8980460016174302
494,0.018710676580667496,1.0,0.31433749198913574,0.8980460016174302
495,0.018672341480851173,1.0,0.31105953454971313,0.8980460016174302
496,0.01852075196802616,1.0,0.31020087003707886,0.8980460016174302
497,0.01845751516520977,1.0,0.31358757615089417,0.8980460016174302
498,0.018363263458013535,1.0,0.31048694252967834,0.8980460016174302
499,0.01829257421195507,1.0,0.3119330406188965,0.8980460016174302
500,0.01828865148127079,1.0,0.31307315826416016,0.8980460016174302
501,0.018190741539001465,1.0,0.3140261173248291,0.8980460016174302
502,0.01811695285141468,1.0,0.3114820420742035,0.8980460016174302
503,0.018134070560336113,1.0,0.3170246183872223,0.8980460016174302
504,0.0180708859115839,1.0,0.3110277056694031,0.8980460016174302
505,0.01796630583703518,1.0,0.3163760006427765,0.8980460016174302
506,0.017916887998580933,1.0,0.3129827082157135,0.8980460016174302
507,0.017841126769781113,1.0,0.3163596987724304,0.8980460016174302
508,0.017687996849417686,1.0,0.30995845794677734,0.8980460016174302
509,0.017625883221626282,1.0,0.318582147359848,0.8980460016174302
510,0.017573939636349678,1.0,0.31236615777015686,0.8980460016174302
511,0.017469272017478943,1.0,0.31481990218162537,0.8980460016174302
512,0.01741899363696575,1.0,0.3137029707431793,0.8980460016174302
513,0.017366167157888412,1.0,0.31541013717651367,0.8980460016174302
514,0.017271937802433968,1.0,0.31508776545524597,0.8980460016174302
515,0.017174916341900826,1.0,0.3126550316810608,0.8980460016174302
516,0.01712644286453724,1.0,0.3168941140174866,0.8980460016174302
517,0.017077919095754623,1.0,0.31376370787620544,0.8980460016174302
518,0.01706935651600361,1.0,0.3179108798503876,0.8980460016174302
519,0.01696496084332466,1.0,0.31672629714012146,0.8980460016174302
520,0.016965040937066078,1.0,0.3167731463909149,0.8980460016174302
521,0.016953695565462112,1.0,0.3159210681915283,0.8980460016174302
522,0.01694183237850666,1.0,0.3166678249835968,0.91287284144427
523,0.016931477934122086,1.0,0.3160296082496643,0.8980460016174302
524,0.0168647151440382,1.0,0.31725406646728516,0.8980460016174302
525,0.016687411814928055,1.0,0.31458213925361633,0.8980460016174302
526,0.016705699265003204,1.0,0.32332196831703186,0.8980460016174302
527,0.01661195047199726,1.0,0.316236674785614,0.8980460016174302
528,0.016471337527036667,1.0,0.3146708607673645,0.8980460016174302
529,0.016304509714245796,1.0,0.31922951340675354,0.8980460016174302
530,0.016258718445897102,1.0,0.32006770372390747,0.8980460016174302
531,0.01620911993086338,1.0,0.3184907138347626,0.8980460016174302
532,0.01619727909564972,1.0,0.31673285365104675,0.8980460016174302
533,0.016101563349366188,1.0,0.31930822134017944,0.8980460016174302
534,0.016108956187963486,1.0,0.3183262050151825,0.8980460016174302
535,0.016024990007281303,1.0,0.31534796953201294,0.8980460016174302
536,0.015992246568202972,1.0,0.3205766975879669,0.8980460016174302
537,0.015890175476670265,1.0,0.3180582523345947,0.91287284144427
538,0.015814045444130898,1.0,0.3209979832172394,0.8980460016174302
539,0.01578240469098091,1.0,0.31820154190063477,0.8980460016174302
540,0.015766624361276627,1.0,0.32076215744018555,0.91287284144427
541,0.015790197998285294,1.0,0.3215027451515198,0.8980460016174302
542,0.015704814344644547,1.0,0.32000717520713806,0.91287284144427
543,0.015575471334159374,1.0,0.3191366493701935,0.8980460016174302
544,0.015531458891928196,1.0,0.32314440608024597,0.8980460016174302
545,0.015410034917294979,1.0,0.31952419877052307,0.8980460016174302
546,0.015359287150204182,1.0,0.32111015915870667,0.8980460016174302
547,0.015345673076808453,1.0,0.3249356746673584,0.8980460016174302
548,0.015315450727939606,1.0,0.31583577394485474,0.91287284144427
549,0.015264877118170261,1.0,0.32320547103881836,0.8980460016174302
550,0.015161031857132912,1.0,0.3195890486240387,0.8980460016174302
551,0.01505564246326685,1.0,0.3226626515388489,0.8980460016174302
552,0.01506166160106659,1.0,0.32146644592285156,0.8980460016174302
553,0.015032398514449596,1.0,0.3243855834007263,0.91287284144427
554,0.014926168136298656,1.0,0.31811434030532837,0.8980460016174302
555,0.014911646954715252,1.0,0.32778868079185486,0.8980460016174302
556,0.014880047179758549,1.0,0.3195423185825348,0.8980460016174302
557,0.014811687171459198,1.0,0.3218356668949127,0.8980460016174302
558,0.01475799735635519,1.0,0.32410916686058044,0.91287284144427
559,0.014703561551868916,1.0,0.32453277707099915,0.8980460016174302
560,0.01461570244282484,1.0,0.31953200697898865,0.8980460016174302
561,0.014549620449543,1.0,0.3250660300254822,0.8980460016174302
562,0.014514205977320671,1.0,0.3194299638271332,0.91287284144427
563,0.014461102895438671,1.0,0.3258443772792816,0.8980460016174302
564,0.01438481081277132,1.0,0.31893569231033325,0.8980460016174302
565,0.014353501610457897,1.0,0.32265424728393555,0.8980460016174302
566,0.01429589930921793,1.0,0.324509859085083,0.8980460016174302
567,0.014230407774448395,1.0,0.32435181736946106,0.8980460016174302
568,0.014216803945600986,1.0,0.32317107915878296,0.8980460016174302
569,0.01413711253553629,1.0,0.3236415386199951,0.8980460016174302
570,0.01408607978373766,1.0,0.32459381222724915,0.91287284144427
571,0.014048305340111256,1.0,0.3272092044353485,0.8980460016174302
572,0.01401578914374113,1.0,0.3235017955303192,0.8980460016174302
573,0.013941669836640358,1.0,0.3256230354309082,0.8980460016174302
574,0.013925536535680294,1.0,0.3231894075870514,0.8980460016174302
575,0.013847405090928078,1.0,0.3271183371543884,0.8980460016174302
576,0.013852334581315517,1.0,0.32427385449409485,0.8980460016174302
577,0.013836883939802647,1.0,0.3269132673740387,0.91287284144427
578,0.013743613846600056,1.0,0.324735164642334,0.8980460016174302
579,0.013738320209085941,1.0,0.32724109292030334,0.91287284144427
580,0.013690273277461529,1.0,0.3242442011833191,0.8980460016174302
581,0.013628319837152958,1.0,0.3280067443847656,0.8980460016174302
582,0.013525028713047504,1.0,0.3251059949398041,0.91287284144427
583,0.013481329195201397,1.0,0.3293105661869049,0.8980460016174302
584,0.01348269172012806,1.0,0.323301762342453,0.8980460016174302
585,0.013480596244335175,1.0,0.326570600271225,0.8980460016174302
586,0.013398553244769573,1.0,0.32424473762512207,0.8980460016174302
587,0.013398773036897182,1.0,0.33184319734573364,0.8980460016174302
588,0.013365806080400944,1.0,0.32368919253349304,0.8980460016174302
589,0.013317081145942211,1.0,0.32886791229248047,0.8980460016174302
590,0.013170814141631126,1.0,0.32242971658706665,0.91287284144427
591,0.013136200606822968,1.0,0.33394333720207214,0.8980460016174302
592,0.013056681491434574,1.0,0.3211676776409149,0.91287284144427
593,0.012993413023650646,1.0,0.3286066949367523,0.8980460016174302
594,0.012936405837535858,1.0,0.3283124566078186,0.8980460016174302
595,0.01296263374388218,1.0,0.32720503211021423,0.91287284144427
596,0.01288713701069355,1.0,0.32437562942504883,0.8980460016174302
597,0.012842576019465923,1.0,0.3335734009742737,0.8980460016174302
598,0.012767738662660122,1.0,0.32520565390586853,0.9081109366823652
599,0.012702629901468754,1.0,0.3270096778869629,0.8980460016174302
600,0.012653655372560024,1.0,0.32964977622032166,0.8980460016174302
601,0.012581649236381054,1.0,0.32752013206481934,0.8980460016174302
602,0.012544406577944756,1.0,0.32756781578063965,0.8980460016174302
603,0.012505349703133106,1.0,0.3270494341850281,0.8980460016174302
604,0.012463686987757683,1.0,0.32990244030952454,0.8980460016174302
605,0.012436285614967346,1.0,0.3296234905719757,0.8980460016174302
606,0.012378258630633354,1.0,0.32705599069595337,0.91287284144427
607,0.012366654351353645,1.0,0.330654114484787,0.91287284144427
608,0.012313366867601871,1.0,0.33206483721733093,0.8980460016174302
609,0.012319810688495636,1.0,0.32931971549987793,0.91287284144427
610,0.01226658932864666,1.0,0.3299039900302887,0.8980460016174302
611,0.012214579619467258,1.0,0.3338142931461334,0.8980460016174302
612,0.012151947245001793,1.0,0.328796923160553,0.8980460016174302
613,0.012165124528110027,1.0,0.3317447006702423,0.8980460016174302
614,0.012141905725002289,1.0,0.32913273572921753,0.8980460016174302
615,0.012074382975697517,1.0,0.330952912569046,0.8980460016174302
616,0.011998368427157402,1.0,0.330949991941452,0.91287284144427
617,0.01198443491011858,1.0,0.33341628313064575,0.8980460016174302
618,0.011954886838793755,1.0,0.33155497908592224,0.91287284144427
619,0.011931128799915314,1.0,0.33069363236427307,0.8980460016174302
620,0.011924400925636292,1.0,0.33390191197395325,0.8980460016174302
621,0.011834116652607918,1.0,0.32987669110298157,0.91287284144427
622,0.011768090538680553,1.0,0.33256927132606506,0.8980460016174302
623,0.011725283227860928,1.0,0.337254136800766,0.8980460016174302
624,0.011660116724669933,1.0,0.3254540264606476,0.8980460016174302
625,0.011647233739495277,1.0,0.3365611433982849,0.8980460016174302
626,0.011660714633762836,1.0,0.3333745002746582,0.8980460016174302
627,0.011625255458056927,1.0,0.3302769064903259,0.8980460016174302
628,0.011536802165210247,1.0,0.333086758852005,0.91287284144427
629,0.011550722643733025,1.0,0.33761483430862427,0.8980460016174302
630,0.011551850475370884,1.0,0.32882723212242126,0.91287284144427
631,0.011505993083119392,1.0,0.33674272894859314,0.8980460016174302
632,0.011524886824190617,1.0,0.3346624970436096,0.8980460016174302
633,0.011416609399020672,1.0,0.3350377380847931,0.8980460016174302
634,0.011386455036699772,1.0,0.32806506752967834,0.8980460016174302
635,0.011374411173164845,1.0,0.3420822024345398,0.8980460016174302
636,0.01131736021488905,1.0,0.3268340528011322,0.8980460016174302
637,0.011238714680075645,1.0,0.3371853232383728,0.8980460016174302
638,0.011200837790966034,1.0,0.32967302203178406,0.91287284144427
639,0.011203653179109097,1.0,0.34037813544273376,0.8980460016174302
640,0.011161775328218937,1.0,0.3323424160480499,0.8980460016174302
641,0.01107544731348753,1.0,0.33664125204086304,0.8980460016174302
642,0.011005247943103313,1.0,0.3343411386013031,0.8980460016174302
643,0.010953987017273903,1.0,0.3362636864185333,0.91287284144427
644,0.010912124998867512,1.0,0.3318263590335846,0.8980460016174302
645,0.010856254026293755,1.0,0.33768853545188904,0.8980460016174302
646,0.010809739120304585,1.0,0.33644798398017883,0.91287284144427
647,0.010766115970909595,1.0,0.335458368062973,0.8980460016174302
648,0.010744576342403889,1.0,0.3349466621875763,0.8980460016174302
649,0.010685980319976807,1.0,0.33441826701164246,0.8980460016174302
650,0.010701562277972698,1.0,0.3392197787761688,0.8980460016174302
651,0.01065218448638916,1.0,0.3353777527809143,0.8980460016174302
652,0.010578804649412632,1.0,0.33501002192497253,0.8980460016174302
653,0.010557502508163452,1.0,0.33921724557876587,0.8980460016174302
654,0.010554526932537556,1.0,0.33334293961524963,0.8980460016174302
655,0.010488162748515606,1.0,0.3374345898628235,0.8980460016174302
656,0.010466287843883038,1.0,0.33729618787765503,0.8980460016174302
657,0.010439136996865273,1.0,0.3366837501525879,0.8980460016174302
658,0.010408805683255196,1.0,0.33958008885383606,0.8980460016174302
659,0.01033348124474287,1.0,0.3392375111579895,0.91287284144427
660,0.010312679223716259,1.0,0.3365485668182373,0.8980460016174302
661,0.010342494584619999,1.0,0.33603549003601074,0.91287284144427
662,0.010266353376209736,1.0,0.34113913774490356,0.91287284144427
663,0.010247274301946163,1.0,0.33810171484947205,0.8980460016174302
664,0.010222136043012142,1.0,0.33942270278930664,0.8980460016174302
665,0.010166523046791553,1.0,0.3384714722633362,0.91287284144427
666,0.010117955505847931,1.0,0.3419802486896515,0.8980460016174302
667,0.010098000057041645,1.0,0.3371399939060211,0.91287284144427
668,0.01008416898548603,1.0,0.33833011984825134,0.8980460016174302
669,0.01005752943456173,1.0,0.33941593766212463,0.8980460016174302
670,0.010001464746892452,1.0,0.34182095527648926,0.8980460016174302
671,0.009961353614926338,1.0,0.334378182888031,0.8980460016174302
672,0.009981542825698853,1.0,0.33565402030944824,0.8980460016174302
673,0.00995702762156725,1.0,0.3424539566040039,0.91287284144427
674,0.009986145421862602,1.0,0.3461037576198578,0.8980460016174302
675,0.009894479997456074,1.0,0.3357880115509033,0.91287284144427
676,0.009868412278592587,1.0,0.3437778651714325,0.8980460016174302
677,0.009864692576229572,1.0,0.33540740609169006,0.8980460016174302
678,0.009887950494885445,1.0,0.34318432211875916,0.8980460016174302
679,0.009807062335312366,1.0,0.3366410434246063,0.8980460016174302
680,0.009764991700649261,1.0,0.3490033447742462,0.8980460016174302
681,0.009737427346408367,1.0,0.33199238777160645,0.8980460016174302
682,0.00975489430129528,1.0,0.345245361328125,0.8980460016174302
683,0.009771985933184624,1.0,0.3395989239215851,0.8980460016174302
684,0.009706778451800346,1.0,0.3420509397983551,0.8980460016174302
685,0.009747661650180817,1.0,0.33871227502822876,0.8980460016174302
686,0.009827234782278538,1.0,0.34494325518608093,0.8980460016174302
687,0.010512330569326878,1.0,0.34194427728652954,0.8980460016174302
688,0.02200976386666298,1.0,0.25263625383377075,0.9278388278388279
689,0.10580002516508102,0.9702380952380951,0.874363899230957,0.7587912087912088
690,0.2590165138244629,0.8921768707482993,0.44723227620124817,0.773015873015873
691,0.16782249510288239,0.938011988011988,0.44918292760849,0.8391766963195534
692,0.10303131490945816,0.9928571428571429,0.42507246136665344,0.8329648526077096
693,0.06305676698684692,1.0,0.3151140809059143,0.8734737484737485
694,0.049321092665195465,1.0,0.2969759404659271,0.8739272632129775
695,0.03577670082449913,1.0,0.2993837893009186,0.8570338391766963
696,0.02965073101222515,1.0,0.29138532280921936,0.8663308913308913
697,0.02487335540354252,1.0,0.2973722815513611,0.8663308913308913
698,0.021426554769277573,1.0,0.30577149987220764,0.8663308913308913
699,0.01984124258160591,1.0,0.3011639714241028,0.8739272632129775
700,0.01830347813665867,1.0,0.2988792359828949,0.8739272632129775
701,0.01710149459540844,1.0,0.3032832741737366,0.8739272632129775
702,0.01628095470368862,1.0,0.30423182249069214,0.8815803244374674
703,0.015537588857114315,1.0,0.3014228045940399,0.8815803244374674
704,0.014921586029231548,1.0,0.30138450860977173,0.8739272632129775
705,0.014424167573451996,1.0,0.3005937933921814,0.8739272632129775
706,0.013945003040134907,1.0,0.30044645071029663,0.8815803244374674
707,0.013562937267124653,1.0,0.3003065288066864,0.8815803244374674
708,0.013203061185777187,1.0,0.3004595935344696,0.8739272632129775
709,0.012918059714138508,1.0,0.29948049783706665,0.8841004233861376
710,0.012629099190235138,1.0,0.2994949221611023,0.8841004233861376
711,0.012354403734207153,1.0,0.3013738989830017,0.8841004233861376
712,0.012103116139769554,1.0,0.3023683726787567,0.8841004233861376
713,0.011904963292181492,1.0,0.30245861411094666,0.8989272632129773
714,0.011657608672976494,1.0,0.3016025125980377,0.8989272632129773
715,0.011472249403595924,1.0,0.3021402359008789,0.8989272632129773
716,0.01126946322619915,1.0,0.30340370535850525,0.8989272632129773
717,0.011139479465782642,1.0,0.3018563687801361,0.8989272632129773
718,0.01095577422529459,1.0,0.3033791482448578,0.8841004233861376
719,0.010817930102348328,1.0,0.3018741011619568,0.8989272632129773
720,0.01066500972956419,1.0,0.3045996129512787,0.8989272632129773
721,0.010548578575253487,1.0,0.3055765628814697,0.8989272632129773
722,0.010440192185342312,1.0,0.30547189712524414,0.8841004233861376
723,0.010296645574271679,1.0,0.3060530722141266,0.8989272632129773
724,0.01018326822668314,1.0,0.3059951364994049,0.8989272632129773
725,0.010071818716824055,1.0,0.3066345751285553,0.8989272632129773
726,0.0099527258425951,1.0,0.30912500619888306,0.8989272632129773
727,0.009869778528809547,1.0,0.30610397458076477,0.8989272632129773
728,0.009763608686625957,1.0,0.30924639105796814,0.8989272632129773
729,0.009674562141299248,1.0,0.30750390887260437,0.8989272632129773
730,0.009563714265823364,1.0,0.3095570206642151,0.8989272632129773
731,0.009486943483352661,1.0,0.3088844120502472,0.8989272632129773
732,0.009399669244885445,1.0,0.31071344017982483,0.8989272632129773
733,0.009337836876511574,1.0,0.30972883105278015,0.8989272632129773
734,0.009289620444178581,1.0,0.3150016963481903,0.8989272632129773
735,0.009233134798705578,1.0,0.3083431124687195,0.8989272632129773
736,0.00923080276697874,1.0,0.3167131841182709,0.8989272632129773
737,0.00916317943483591,1.0,0.31075534224510193,0.8989272632129773
738,0.009094244800508022,1.0,0.3138461709022522,0.8989272632129773
739,0.009033807553350925,1.0,0.3159225583076477,0.8989272632129773
740,0.00891132839024067,1.0,0.3159279227256775,0.8989272632129773
741,0.008787363767623901,1.0,0.3137420117855072,0.8989272632129773
742,0.008706902153789997,1.0,0.3166235387325287,0.8989272632129773
743,0.0086382906883955,1.0,0.3153601586818695,0.8989272632129773
744,0.008585450239479542,1.0,0.31804758310317993,0.8989272632129773
745,0.008553799241781235,1.0,0.3184148967266083,0.8941653584510726
746,0.008547859266400337,1.0,0.31717389822006226,0.8989272632129773
747,0.008509723469614983,1.0,0.31751808524131775,0.8989272632129773
748,0.00844165775924921,1.0,0.319941908121109,0.8989272632129773
749,0.008422750048339367,1.0,0.31952884793281555,0.8989272632129773
750,0.008385399356484413,1.0,0.31824037432670593,0.8989272632129773
751,0.008351643569767475,1.0,0.32224759459495544,0.8989272632129773
752,0.008287796750664711,1.0,0.3178584575653076,0.8989272632129773
753,0.00820250529795885,1.0,0.32125741243362427,0.8989272632129773
754,0.008135741576552391,1.0,0.32055291533470154,0.8989272632129773
755,0.008120139129459858,1.0,0.3247293531894684,0.8989272632129773
756,0.008079868741333485,1.0,0.3194587826728821,0.8989272632129773
757,0.008027940057218075,1.0,0.32407140731811523,0.8989272632129773
758,0.00800318457186222,1.0,0.3206210136413574,0.8989272632129773
759,0.007967202924191952,1.0,0.3280508816242218,0.8989272632129773
760,0.007916451431810856,1.0,0.31894201040267944,0.8989272632129773
761,0.00786313321441412,1.0,0.3256722092628479,0.8989272632129773
762,0.007835903204977512,1.0,0.32111725211143494,0.8989272632129773
763,0.0078024594113230705,1.0,0.3271116614341736,0.8989272632129773
764,0.0077668665908277035,1.0,0.3217558264732361,0.8989272632129773
765,0.0077437227591872215,1.0,0.3268304765224457,0.8989272632129773
766,0.007726732175797224,1.0,0.3248938024044037,0.8989272632129773
767,0.007679893169552088,1.0,0.3256952464580536,0.8989272632129773
768,0.007660388480871916,1.0,0.32644954323768616,0.8989272632129773
769,0.007595963776111603,1.0,0.32582998275756836,0.8989272632129773
770,0.007585470099002123,1.0,0.3267485797405243,0.8989272632129773
771,0.0075469715520739555,1.0,0.33110931515693665,0.8989272632129773
772,0.007538605481386185,1.0,0.32816535234451294,0.8989272632129773
773,0.007506085094064474,1.0,0.3250834047794342,0.8989272632129773
774,0.007447623647749424,1.0,0.3280017375946045,0.8989272632129773
775,0.0074038440361619,1.0,0.32926109433174133,0.8989272632129773
776,0.0073208436369895935,1.0,0.32829245924949646,0.8989272632129773
777,0.007275910582393408,1.0,0.3274535834789276,0.8989272632129773
778,0.007249894551932812,1.0,0.3265528380870819,0.8989272632129773
779,0.007226034998893738,1.0,0.33051279187202454,0.8989272632129773
780,0.007222410291433334,1.0,0.32228925824165344,0.8989272632129773
781,0.007200829219073057,1.0,0.330306738615036,0.8989272632129773
782,0.007175194565206766,1.0,0.3269530236721039,0.8989272632129773
783,0.007160804700106382,1.0,0.33545002341270447,0.8989272632129773
784,0.007141192443668842,1.0,0.3256528973579407,0.8989272632129773
785,0.007106695789843798,1.0,0.33412978053092957,0.8989272632129773
786,0.00708214333280921,1.0,0.3297707140445709,0.8989272632129773
787,0.007049592677503824,1.0,0.33059385418891907,0.8989272632129773
788,0.007009700872004032,1.0,0.32835283875465393,0.8989272632129773
789,0.006966300308704376,1.0,0.3307538330554962,0.8989272632129773
790,0.006926920264959335,1.0,0.33183765411376953,0.8989272632129773
791,0.006916890852153301,1.0,0.3312983512878418,0.8989272632129773
792,0.006910108029842377,1.0,0.33190879225730896,0.8989272632129773
793,0.006914970930665731,1.0,0.33398136496543884,0.8989272632129773
794,0.006868558470159769,1.0,0.3320372998714447,0.8989272632129773
795,0.006886290851980448,1.0,0.33353397250175476,0.8989272632129773
796,0.006881124805659056,1.0,0.33151429891586304,0.8989272632129773
797,0.006929113995283842,1.0,0.337085098028183,0.8989272632129773
798,0.00705612450838089,1.0,0.3352910578250885,0.8989272632129773
799,0.007835048250854015,1.0,0.33613911271095276,0.8989272632129773
800,0.016635483130812645,1.0,0.36446404457092285,0.8675213675213674
801,0.08967343717813492,0.9761904761904762,0.5312524437904358,0.8787672644815502
802,0.14037084579467773,0.9333333333333333,0.764743447303772,0.716468253968254
803,0.09935843199491501,0.9642857142857143,0.31670254468917847,0.8732426303854874
804,0.06435032933950424,1.0,0.3222385048866272,0.8502267573696145
805,0.04440409690141678,1.0,0.2523718774318695,0.8836778301064017
806,0.028741318732500076,1.0,0.26778846979141235,0.8901404151404151
807,0.023956120014190674,1.0,0.26035580039024353,0.8901404151404151
808,0.019350498914718628,1.0,0.26038244366645813,0.8901404151404151
809,0.01707187294960022,1.0,0.2644238770008087,0.8901404151404151
810,0.015545191243290901,1.0,0.2682163417339325,0.8901404151404151
811,0.014461562037467957,1.0,0.2740122675895691,0.8901404151404151
812,0.013624824583530426,1.0,0.27682632207870483,0.8901404151404151
813,0.012955228798091412,1.0,0.2789247930049896,0.8977367870225014
814,0.012391408905386925,1.0,0.28242185711860657,0.8977367870225014
815,0.0119099086150527,1.0,0.28328660130500793,0.8977367870225014
816,0.011490182019770145,1.0,0.2828209400177002,0.8977367870225014
817,0.011122504249215126,1.0,0.282985657453537,0.8977367870225014
818,0.010796342976391315,1.0,0.28352388739585876,0.8977367870225014
819,0.01049746572971344,1.0,0.2839827239513397,0.8977367870225014
820,0.01022811233997345,1.0,0.28482651710510254,0.9079099471956614
821,0.00998785998672247,1.0,0.28491631150245667,0.9079099471956614
822,0.009759952314198017,1.0,0.2854236662387848,0.9079099471956614
823,0.009556463919579983,1.0,0.2862567603588104,0.9079099471956614
824,0.0093639912083745,1.0,0.2865137755870819,0.9079099471956614
825,0.009184004738926888,1.0,0.28636839985847473,0.9079099471956614
826,0.009020743891596794,1.0,0.28722909092903137,0.9079099471956614
827,0.00886086281388998,1.0,0.2881929576396942,0.9079099471956614
828,0.008718715980648994,1.0,0.2886026203632355,0.9079099471956614
829,0.008576207794249058,1.0,0.28901705145835876,0.9079099471956614
830,0.008446773514151573,1.0,0.28886279463768005,0.9079099471956614
831,0.008315430022776127,1.0,0.2890322208404541,0.9079099471956614
832,0.008197766728699207,1.0,0.2892875075340271,0.9079099471956614
833,0.008089514449238777,1.0,0.28943827748298645,0.9079099471956614
834,0.007969861850142479,1.0,0.28998616337776184,0.9079099471956614
835,0.007868061773478985,1.0,0.2901419997215271,0.9079099471956614
836,0.007764791138470173,1.0,0.29050830006599426,0.9079099471956614
837,0.0076720030046999454,1.0,0.2906549870967865,0.9079099471956614
838,0.007579196710139513,1.0,0.2903897166252136,0.9079099471956614
839,0.007488400209695101,1.0,0.29054269194602966,0.9079099471956614
840,0.007404989097267389,1.0,0.29071348905563354,0.9079099471956614
841,0.007323184050619602,1.0,0.29109206795692444,0.9079099471956614
842,0.007243573199957609,1.0,0.291242778301239,0.9079099471956614
843,0.007171861361712217,1.0,0.29118508100509644,0.9079099471956614
844,0.007097742985934019,1.0,0.29135727882385254,0.9227367870225012
845,0.007027114275842905,1.0,0.29206207394599915,0.9227367870225012
846,0.006960953585803509,1.0,0.29126039147377014,0.9227367870225012
847,0.00689616147428751,1.0,0.29152458906173706,0.9227367870225012
848,0.006835332605987787,1.0,0.2920286953449249,0.9227367870225012
849,0.006779427640140057,1.0,0.29278501868247986,0.9227367870225012
850,0.0067203110083937645,1.0,0.2912589907646179,0.9227367870225012
851,0.006662670057266951,1.0,0.2918616831302643,0.9227367870225012
852,0.006611211691051722,1.0,0.2922488749027252,0.9227367870225012
853,0.006556136999279261,1.0,0.29313501715660095,0.9227367870225012
854,0.0065099215134978294,1.0,0.29270488023757935,0.9227367870225012
855,0.006456093396991491,1.0,0.2942945659160614,0.9227367870225012
856,0.006415420677512884,1.0,0.2940163314342499,0.9227367870225012
857,0.006358974147588015,1.0,0.2941933572292328,0.9227367870225012
858,0.006319183390587568,1.0,0.2947537302970886,0.9227367870225012
859,0.006267366465181112,1.0,0.294842392206192,0.9227367870225012
860,0.006223622243851423,1.0,0.29502591490745544,0.9227367870225012
861,0.00618463521823287,1.0,0.29541119933128357,0.9227367870225012
862,0.006148290354758501,1.0,0.2959013283252716,0.9227367870225012
863,0.006104771979153156,1.0,0.29590311646461487,0.9227367870225012
864,0.006064665969461203,1.0,0.29669156670570374,0.9227367870225012
865,0.006027654279023409,1.0,0.29617008566856384,0.9227367870225012
866,0.00598542345687747,1.0,0.29815319180488586,0.9227367870225012
867,0.005954941269010305,1.0,0.2969069480895996,0.9227367870225012
868,0.005919606424868107,1.0,0.2982215881347656,0.9227367870225012
869,0.005891922861337662,1.0,0.29809683561325073,0.9227367870225012
870,0.005849373526871204,1.0,0.2986510694026947,0.9227367870225012
871,0.00581411411985755,1.0,0.2984720766544342,0.9227367870225012
872,0.005781260784715414,1.0,0.2990199625492096,0.9227367870225012
873,0.005746917333453894,1.0,0.2997497022151947,0.9227367870225012
874,0.005721381865441799,1.0,0.30004405975341797,0.9227367870225012
875,0.005689411889761686,1.0,0.2984832227230072,0.9227367870225012
876,0.0056660170666873455,1.0,0.30033233761787415,0.9227367870225012
877,0.005636911373585463,1.0,0.3007645905017853,0.9227367870225012
878,0.005602136719971895,1.0,0.301832377910614,0.9227367870225012
879,0.005581401754170656,1.0,0.3007119596004486,0.9227367870225012
880,0.005550398491322994,1.0,0.3038199841976166,0.9227367870225012
881,0.005531930364668369,1.0,0.30233559012413025,0.9227367870225012
882,0.005497727543115616,1.0,0.30251356959342957,0.9227367870225012
883,0.0054738400503993034,1.0,0.3015470504760742,0.9227367870225012
884,0.005440119653940201,1.0,0.30267980694770813,0.9227367870225012
885,0.005411594174802303,1.0,0.3035416901111603,0.9227367870225012
886,0.005385547410696745,1.0,0.3031888008117676,0.9227367870225012
887,0.005357529502362013,1.0,0.3026857376098633,0.9227367870225012
888,0.0053395843133330345,1.0,0.3055378496646881,0.9227367870225012
889,0.0053217182867228985,1.0,0.30443793535232544,0.9227367870225012
890,0.0053038643673062325,1.0,0.3043268322944641,0.9227367870225012
891,0.0052723814733326435,1.0,0.30447667837142944,0.9227367870225012
892,0.00524583226069808,1.0,0.3070175349712372,0.8989272632129773
893,0.005227948073297739,1.0,0.3046906888484955,0.9227367870225012
894,0.005205185618251562,1.0,0.307100772857666,0.8989272632129773
895,0.005186420399695635,1.0,0.3066568970680237,0.8989272632129773
896,0.005159486085176468,1.0,0.3074710965156555,0.8989272632129773
897,0.005137455649673939,1.0,0.30688050389289856,0.8989272632129773
898,0.005121643655002117,1.0,0.309174120426178,0.8989272632129773
899,0.005111026111990213,1.0,0.3093002438545227,0.8989272632129773
900,0.005078716669231653,1.0,0.3080735504627228,0.8989272632129773
901,0.005047796759754419,1.0,0.3093767464160919,0.8989272632129773
902,0.005025140941143036,1.0,0.31064924597740173,0.8989272632129773
903,0.005008453968912363,1.0,0.3097863793373108,0.8989272632129773
904,0.004987731575965881,1.0,0.3110852539539337,0.8989272632129773
905,0.00496804341673851,1.0,0.30849701166152954,0.8989272632129773
906,0.004951897077262402,1.0,0.31115421652793884,0.8989272632129773
907,0.004936537239700556,1.0,0.31177183985710144,0.8989272632129773
908,0.004917379468679428,1.0,0.3139101564884186,0.8989272632129773
909,0.00490833492949605,1.0,0.3096519410610199,0.8989272632129773
910,0.004890122450888157,1.0,0.314090758562088,0.8989272632129773
911,0.004871855955570936,1.0,0.3125801980495453,0.8989272632129773
912,0.004854318220168352,1.0,0.31113871932029724,0.8989272632129773
913,0.004835229832679033,1.0,0.31320056319236755,0.8989272632129773
914,0.004806327633559704,1.0,0.31415507197380066,0.8989272632129773
915,0.004788920283317566,1.0,0.31369397044181824,0.8989272632129773
916,0.004771052859723568,1.0,0.3150942921638489,0.8989272632129773
917,0.004754804074764252,1.0,0.3144027292728424,0.8989272632129773
918,0.004740077070891857,1.0,0.3145422339439392,0.8989272632129773
919,0.004720285069197416,1.0,0.3155893385410309,0.8989272632129773
920,0.004698245786130428,1.0,0.3150695264339447,0.8989272632129773
921,0.004677814897149801,1.0,0.3163006007671356,0.8989272632129773
922,0.004659264348447323,1.0,0.3175419270992279,0.8989272632129773
923,0.00464334012940526,1.0,0.3178700804710388,0.8989272632129773
924,0.004629647824913263,1.0,0.3160145580768585,0.8989272632129773
925,0.004617351572960615,1.0,0.3202124536037445,0.8989272632129773
926,0.004611448384821415,1.0,0.31555622816085815,0.8989272632129773
927,0.00460516382008791,1.0,0.3171049952507019,0.8989272632129773
928,0.004580516833811998,1.0,0.3184211850166321,0.8989272632129773
929,0.004563733469694853,1.0,0.3199905753135681,0.8989272632129773
930,0.004543214105069637,1.0,0.3184046447277069,0.8989272632129773
931,0.004530397709459066,1.0,0.3177267611026764,0.8989272632129773
932,0.004512330051511526,1.0,0.3215329945087433,0.8989272632129773
933,0.0044932616874575615,1.0,0.32039007544517517,0.8989272632129773
934,0.0044773416593670845,1.0,0.31819677352905273,0.8989272632129773
935,0.004472638480365276,1.0,0.3197374641895294,0.8989272632129773
936,0.004467091057449579,1.0,0.3216366469860077,0.8989272632129773
937,0.004436459857970476,1.0,0.32142019271850586,0.8989272632129773
938,0.004431064706295729,1.0,0.3212335705757141,0.8989272632129773
939,0.004410670138895512,1.0,0.31980225443840027,0.8989272632129773
940,0.004395285155624151,1.0,0.3242369592189789,0.8989272632129773
941,0.004377910867333412,1.0,0.3224357068538666,0.8989272632129773
942,0.004364116117358208,1.0,0.321366548538208,0.8989272632129773
943,0.00434550317004323,1.0,0.32089123129844666,0.8989272632129773
944,0.004333076532930136,1.0,0.3238285481929779,0.8989272632129773
945,0.004324787762016058,1.0,0.32208535075187683,0.8989272632129773
946,0.0043181078508496284,1.0,0.32419222593307495,0.8989272632129773
947,0.004306746646761894,1.0,0.3220682740211487,0.8989272632129773
948,0.004304556641727686,1.0,0.32835665345191956,0.8989272632129773
949,0.004281594417989254,1.0,0.32510748505592346,0.8989272632129773
950,0.004263959359377623,1.0,0.3231965899467468,0.8989272632129773
951,0.004250166472047567,1.0,0.3234523832798004,0.8989272632129773
952,0.004231115337461233,1.0,0.32683825492858887,0.8989272632129773
953,0.004220909439027309,1.0,0.32678380608558655,0.8989272632129773
954,0.004203285556286573,1.0,0.32424551248550415,0.8989272632129773
955,0.004196600988507271,1.0,0.32768863439559937,0.8989272632129773
956,0.004179046489298344,1.0,0.32786625623703003,0.8989272632129773
957,0.004165909253060818,1.0,0.326584130525589,0.8989272632129773
958,0.004149256274104118,1.0,0.3261624872684479,0.8989272632129773
959,0.004147704225033522,1.0,0.3279121220111847,0.8989272632129773
960,0.004131241235882044,1.0,0.32982751727104187,0.8989272632129773
961,0.004111143760383129,1.0,0.32547062635421753,0.8989272632129773
962,0.004108856897801161,1.0,0.3268348276615143,0.8989272632129773
963,0.004098873119801283,1.0,0.330740362405777,0.8989272632129773
964,0.004083593375980854,1.0,0.3305933177471161,0.8989272632129773
965,0.004078127909451723,1.0,0.3312259614467621,0.8989272632129773
966,0.0040587508119642735,1.0,0.3256506621837616,0.8989272632129773
967,0.00405400525778532,1.0,0.3317451477050781,0.8989272632129773
968,0.0040266611613333225,1.0,0.3326399326324463,0.8989272632129773
969,0.004024949390441179,1.0,0.3285365700721741,0.8989272632129773
970,0.004015135113149881,1.0,0.3297734260559082,0.8989272632129773
971,0.003993907943367958,1.0,0.33388444781303406,0.8989272632129773
972,0.0039872704073786736,1.0,0.33349427580833435,0.8989272632129773
973,0.003985219169408083,1.0,0.32981497049331665,0.8989272632129773
974,0.0039685568772256374,1.0,0.330445796251297,0.8989272632129773
975,0.0039582038298249245,1.0,0.3346855640411377,0.8989272632129773
976,0.003931381739675999,1.0,0.3341490924358368,0.8989272632129773
977,0.003921705763787031,1.0,0.3359055817127228,0.8989272632129773
978,0.00390960555523634,1.0,0.3334921896457672,0.8989272632129773
979,0.0038922096136957407,1.0,0.33101293444633484,0.8989272632129773
980,0.003889512037858367,1.0,0.3360723555088043,0.8989272632129773
981,0.00387366465292871,1.0,0.33421340584754944,0.8989272632129773
982,0.00386178120970726,1.0,0.3336663842201233,0.8989272632129773
983,0.0038561709225177765,1.0,0.33667829632759094,0.8989272632129773
984,0.003864242462441325,1.0,0.3332058787345886,0.8989272632129773
985,0.003847205312922597,1.0,0.33640167117118835,0.8989272632129773
986,0.0038192833308130503,1.0,0.33513015508651733,0.8989272632129773
987,0.0038160665426403284,1.0,0.3357076346874237,0.8989272632129773
988,0.003807522589340806,1.0,0.33909162878990173,0.8989272632129773
989,0.003783522406592965,1.0,0.3351888656616211,0.8989272632129773
990,0.003765258938074112,1.0,0.33539190888404846,0.8989272632129773
991,0.0037628780119121075,1.0,0.33589643239974976,0.8989272632129773
992,0.00376672251150012,1.0,0.3405039608478546,0.8989272632129773
993,0.003738033352419734,1.0,0.3352823555469513,0.8989272632129773
994,0.003735756501555443,1.0,0.33869311213493347,0.8989272632129773
995,0.0037215682677924633,1.0,0.33994489908218384,0.8989272632129773
996,0.003717310493811965,1.0,0.3356131613254547,0.8989272632129773
997,0.00370990508235991,1.0,0.3313881754875183,0.8989272632129773
998,0.003685831557959318,1.0,0.3399055004119873,0.8989272632129773
999,0.0036646355874836445,1.0,0.34309372305870056,0.8989272632129773
