,loss,recall,val_loss,val_recall
0,1.4362592697143555,0.2341454802259887,1.4300768375396729,0.5591905381944444
1,1.179485559463501,0.5341954022988505,1.363491415977478,0.5591905381944444
2,1.0480906963348389,0.5432170542635659,1.288638710975647,0.5585573476702509
3,0.9394376873970032,0.5575136612021858,1.1982347965240479,0.5591346153846154
4,0.8523607850074768,0.5671568627450981,1.0967506170272827,0.645816071897632
5,0.7818689942359924,0.5752651515151515,0.9904590249061584,0.6466084418779523
6,0.7171813249588013,0.5792862610026789,0.8915190100669861,0.6454995113354196
7,0.658210039138794,0.7040835707502374,0.8060388565063477,0.6486749447538148
8,0.6047666668891907,0.7081644144144144,0.7333422899246216,0.6547775994860499
9,0.5560884475708008,0.7085633505846272,0.6702196002006531,0.6428584961227072
10,0.5110834836959839,0.7436842105263157,0.6141327023506165,0.6273523640081191
11,0.46857601404190063,0.7353508771929824,0.5659120678901672,0.6133224484439264
12,0.4282166659832001,0.7344501718213058,0.5247018933296204,0.6132535001482433
13,0.3902931809425354,0.8227835051546392,0.4878549575805664,0.6151836503630275
14,0.3552058935165405,0.8761168384879725,0.4555712938308716,0.6195435669164866
15,0.3237529695034027,0.8784977908689249,0.4283938407897949,0.6226107762034694
16,0.2955876588821411,0.8798469387755102,0.40549236536026,0.636418405681017
17,0.27097392082214355,0.8756802721088435,0.38475221395492554,0.6372264326947857
18,0.24934081733226776,0.8756802721088435,0.36644893884658813,0.638450405124284
19,0.23060156404972076,0.8799242424242424,0.3516060411930084,0.6383894391371131
20,0.2144482433795929,0.9141414141414141,0.3393231928348541,0.6381201800970654
21,0.20079052448272705,0.8799242424242424,0.3278237283229828,0.6491220652157266
22,0.1875840127468109,0.9141414141414141,0.3179817199707031,0.6482441503883914
23,0.17610128223896027,0.9141414141414141,0.3106280565261841,0.6340199448063827
24,0.1668875515460968,0.9141414141414141,0.30543798208236694,0.6620849504342353
25,0.15685179829597473,0.9166237113402063,0.3026028275489807,0.6553029385288034
26,0.1491142064332962,0.922264739229025,0.29926756024360657,0.6571948612302905
27,0.1414003074169159,0.9166237113402063,0.29591161012649536,0.6621912319728787
28,0.1329413652420044,0.922823596792669,0.2932015061378479,0.6623798850648045
29,0.1265334039926529,0.922823596792669,0.2903883457183838,0.6623707259258258
30,0.12091221660375595,0.9852430555555556,0.28955042362213135,0.6918112700881811
31,0.11446885019540787,0.9922680412371134,0.2880014479160309,0.6834228404242859
32,0.10911516845226288,0.9865131578947368,0.2867821156978607,0.6975965646990632
33,0.10337197780609131,0.993421052631579,0.29132917523384094,0.6805538099877748
34,0.0976947471499443,0.993421052631579,0.2868432104587555,0.6855588725798218
35,0.09327749907970428,0.9946236559139785,0.2862761616706848,0.6844451402992556
36,0.09015360474586487,0.9946236559139785,0.28771403431892395,0.6929389064324862
37,0.08544673025608063,0.9965277777777778,0.28234410285949707,0.6894234815633321
38,0.08328968286514282,0.9903846153846154,0.27936941385269165,0.6785057541718857
39,0.07767349481582642,0.9965277777777778,0.285067617893219,0.6977725817713268
40,0.07346834242343903,0.9965277777777778,0.2873785197734833,0.6972173988410795
41,0.07004494965076447,0.9965277777777778,0.2863711416721344,0.6981699017177853
42,0.06664671748876572,0.997191011235955,0.28363028168678284,0.7146743560645875
43,0.06399040669202805,0.997191011235955,0.2834256887435913,0.6911770075018102
44,0.06213853508234024,0.9932528409090909,0.28713977336883545,0.6763309058369171
45,0.05852632224559784,0.9985632183908046,0.2934243977069855,0.6754531855319217
46,0.054248422384262085,0.9985632183908046,0.28297242522239685,0.70361120287803
47,0.05134793370962143,0.9985632183908046,0.2833549678325653,0.6698756027803704
48,0.049191173166036606,0.9992732558139534,0.2880207598209381,0.6671646838645557
49,0.04636862874031067,0.9985632183908046,0.28183355927467346,0.6740808354265094
50,0.04316464066505432,0.9992732558139534,0.28401702642440796,0.6697834866263014
51,0.040728483349084854,0.9992732558139534,0.2852945029735565,0.6611562966178653
52,0.038665227591991425,0.9992732558139534,0.2853444516658783,0.6668246694353228
53,0.03662063926458359,0.9992732558139534,0.284930557012558,0.6479386715021216
54,0.035011641681194305,0.9992732558139534,0.2812005579471588,0.6545503065635205
55,0.03472571820020676,0.9992732558139534,0.28312456607818604,0.6522188384208208
56,0.03393576294183731,0.9992732558139534,0.27638179063796997,0.6646653318115905
57,0.03229494392871857,0.9992732558139534,0.2981448471546173,0.6459449786949183
58,0.028638403862714767,0.9992732558139534,0.2777726650238037,0.6560409246394728
59,0.026726413518190384,0.9992732558139534,0.27774420380592346,0.6540997829283951
60,0.025741487741470337,1.0,0.2811797261238098,0.665798512672757
61,0.02372736483812332,1.0,0.2722320556640625,0.6670166158765406
62,0.02237704023718834,1.0,0.276252806186676,0.667057620802122
63,0.02144874632358551,1.0,0.2779039442539215,0.6667479994124982
64,0.020250093191862106,1.0,0.2723538875579834,0.6682028323835383
65,0.0193120576441288,1.0,0.2742144763469696,0.668150136845018
66,0.01857130229473114,1.0,0.27506256103515625,0.6536907600931723
67,0.01773824729025364,1.0,0.2725699841976166,0.6542815913481718
68,0.017091765999794006,1.0,0.27354708313941956,0.6543867936855169
69,0.0165923610329628,1.0,0.27870336174964905,0.6532875824435764
70,0.015663418918848038,1.0,0.2741914987564087,0.6541309586311719
71,0.014820005744695663,1.0,0.2750619649887085,0.6599538960290328
72,0.014290666207671165,1.0,0.2759256958961487,0.659956676123556
73,0.013662326149642467,1.0,0.2745444178581238,0.6599070334608771
74,0.013116938062012196,1.0,0.2758401036262512,0.6526828881078981
75,0.012611109763383865,1.0,0.2767287790775299,0.6527254904073437
76,0.012131158262491226,1.0,0.27643632888793945,0.6388366015184549
77,0.011741021648049355,1.0,0.27641621232032776,0.6388628286060083
78,0.011308394372463226,1.0,0.27657002210617065,0.6363624710521871
79,0.01091306284070015,1.0,0.27604928612709045,0.649945319904583
80,0.010543456301093102,1.0,0.2768687903881073,0.649945319904583
81,0.010169656947255135,1.0,0.27684280276298523,0.6569714302787844
82,0.009800374507904053,1.0,0.2777079939842224,0.6572125335503045
83,0.009472779929637909,1.0,0.27781006693840027,0.6572125335503045
84,0.009170860052108765,1.0,0.27794259786605835,0.6501703463949677
85,0.008879628032445908,1.0,0.27838048338890076,0.6502126502636565
86,0.008606933988630772,1.0,0.2784668505191803,0.649945319904583
87,0.008347127586603165,1.0,0.2786042392253876,0.649945319904583
88,0.00810337532311678,1.0,0.2789059579372406,0.6430271025476919
89,0.00787070207297802,1.0,0.2796842157840729,0.6432208857718921
90,0.007640058174729347,1.0,0.27973422408103943,0.6432471128594455
91,0.00740607175976038,1.0,0.2803591191768646,0.6425273409312822
92,0.0071909744292497635,1.0,0.28031063079833984,0.6425535680188355
93,0.006990000605583191,1.0,0.2806861996650696,0.6425535680188355
94,0.006799628492444754,1.0,0.2811404764652252,0.6425535680188355
95,0.0066178953275084496,1.0,0.2812853753566742,0.6425535680188355
96,0.006441025994718075,1.0,0.28166159987449646,0.6425535680188355
97,0.006272559054195881,1.0,0.2819313108921051,0.6425535680188355
98,0.006108814850449562,1.0,0.2827175557613373,0.6425535680188355
99,0.005954447668045759,1.0,0.2832426428794861,0.6416276420929096
100,0.005804997868835926,1.0,0.28367486596107483,0.6462572717225392
101,0.005661066621541977,1.0,0.2839762270450592,0.6462572717225392
102,0.005522743798792362,1.0,0.28415241837501526,0.6462572717225392
103,0.005386550910770893,1.0,0.28467392921447754,0.6462572717225392
104,0.005258285440504551,1.0,0.28514647483825684,0.6462572717225392
105,0.005134408827871084,1.0,0.28544601798057556,0.6462572717225392
106,0.005013101268559694,1.0,0.2858911156654358,0.6462041382579322
107,0.004896894562989473,1.0,0.2862510681152344,0.6462041382579322
108,0.004783633165061474,1.0,0.2867521643638611,0.6406485827023767
109,0.0046731261536479,1.0,0.2871262729167938,0.6406485827023767
110,0.004568904172629118,1.0,0.2872924506664276,0.6406485827023767
111,0.004468442872166634,1.0,0.28730982542037964,0.6434280263139043
112,0.004369937814772129,1.0,0.28732386231422424,0.6434280263139043
113,0.004273633006960154,1.0,0.2875131368637085,0.6434280263139043
114,0.004182272125035524,1.0,0.2876817584037781,0.6434280263139043
115,0.004092198796570301,1.0,0.2880074083805084,0.6434280263139043
116,0.004005948081612587,1.0,0.2883862555027008,0.6434280263139043
117,0.003922817297279835,1.0,0.28884631395339966,0.6434280263139043
118,0.0038418741896748543,1.0,0.28945961594581604,0.6433742753523262
119,0.003763432614505291,1.0,0.28973081707954407,0.6433742753523262
120,0.003688069526106119,1.0,0.29023367166519165,0.6433742753523262
121,0.003615694586187601,1.0,0.29089218378067017,0.6433742753523262
122,0.003542608115822077,1.0,0.2913491427898407,0.6433742753523262
123,0.003473080461844802,1.0,0.2919016182422638,0.6433742753523262
124,0.0034063151106238365,1.0,0.2921285033226013,0.6433742753523262
125,0.003341191215440631,1.0,0.2921852171421051,0.6433742753523262
126,0.0032771783880889416,1.0,0.29256531596183777,0.6433742753523262
127,0.0032159604597836733,1.0,0.2927761375904083,0.6386900080795459
128,0.003154865000396967,1.0,0.2928927540779114,0.638693094499299
129,0.0030975965782999992,1.0,0.29314616322517395,0.638693094499299
130,0.0030400208197534084,1.0,0.2934117019176483,0.638693094499299
131,0.002984951250255108,1.0,0.2937697470188141,0.6387358682109584
132,0.0029316553846001625,1.0,0.29391875863075256,0.6415165155938785
133,0.002879207953810692,1.0,0.2942003011703491,0.6415165155938785
134,0.0028278043027967215,1.0,0.2943488359451294,0.641461877950728
135,0.0027786148712038994,1.0,0.29448872804641724,0.641461877950728
136,0.002731302520260215,1.0,0.2948973476886749,0.6409378118901747
137,0.0026835768949240446,1.0,0.2953009009361267,0.6409257106800538
138,0.0026375141460448503,1.0,0.2955281436443329,0.6409244168850944
139,0.002593182260170579,1.0,0.2957581579685211,0.6409220131313926
140,0.0025502352509647608,1.0,0.2960596978664398,0.6409244168850944
141,0.002507920144125819,1.0,0.29658278822898865,0.6409244168850944
142,0.002466584090143442,1.0,0.29694998264312744,0.6409220131313926
143,0.0024267099797725677,1.0,0.2970246970653534,0.6409220131313926
144,0.0023877378553152084,1.0,0.2971281111240387,0.6409220131313926
145,0.002349643502384424,1.0,0.2975837290287018,0.6409220131313926
146,0.0023118590470403433,1.0,0.29800328612327576,0.6409220131313926
147,0.00227555213496089,1.0,0.29843318462371826,0.6409220131313926
148,0.0022403979673981667,1.0,0.29887330532073975,0.6409220131313926
149,0.002205394906923175,1.0,0.2989973723888397,0.6409220131313926
150,0.0021717268973588943,1.0,0.29899322986602783,0.6409220131313926
151,0.002138343174010515,1.0,0.2991546094417572,0.6409220131313926
152,0.0021058525890111923,1.0,0.2993641197681427,0.6409220131313926
153,0.0020742109045386314,1.0,0.2996533215045929,0.6409220131313926
154,0.002042671199887991,1.0,0.2999274730682373,0.6409220131313926
155,0.002012099139392376,1.0,0.30020496249198914,0.6409220131313926
156,0.0019825072959065437,1.0,0.3005601167678833,0.6409220131313926
157,0.0019539273343980312,1.0,0.30091342329978943,0.6409220131313926
158,0.0019248966127634048,1.0,0.30108070373535156,0.6465797410796399
159,0.0018970892997458577,1.0,0.3013569712638855,0.6465797410796399
160,0.0018702257657423615,1.0,0.30166494846343994,0.6465797410796399
161,0.0018435512902215123,1.0,0.3019154965877533,0.6465797410796399
162,0.0018171364208683372,1.0,0.3021712899208069,0.6465797410796399
163,0.0017919500824064016,1.0,0.30234530568122864,0.6457925252924241
164,0.0017670101951807737,1.0,0.30249902606010437,0.6465797410796399
165,0.0017425136175006628,1.0,0.3027968406677246,0.6471902416901405
166,0.0017185420729219913,1.0,0.30317819118499756,0.6471902416901405
167,0.0016949070850387216,1.0,0.3034004867076874,0.6464030259029248
168,0.001672274200245738,1.0,0.30360886454582214,0.6464030259029248
169,0.001649769488722086,1.0,0.3037847578525543,0.6464030259029248
170,0.0016277749091386795,1.0,0.3039821684360504,0.6464030259029248
171,0.0016060846392065287,1.0,0.304177463054657,0.6464030259029248
172,0.00158500368706882,1.0,0.3042890131473541,0.6464030259029248
173,0.0015643329825252295,1.0,0.3045840561389923,0.6464030259029248
174,0.0015441661234945059,1.0,0.30489441752433777,0.6464030259029248
175,0.0015238923951983452,1.0,0.30506807565689087,0.6464030259029248
176,0.0015041506849229336,1.0,0.3053336441516876,0.6464030259029248
177,0.0014850234147161245,1.0,0.3056957721710205,0.6464030259029248
178,0.00146624690387398,1.0,0.30601704120635986,0.6464030259029248
179,0.0014475379139184952,1.0,0.3062507212162018,0.6464030259029248
180,0.0014294377760961652,1.0,0.30647730827331543,0.6464030259029248
181,0.0014117652317509055,1.0,0.3067243993282318,0.6464030259029248
182,0.0013945779064670205,1.0,0.30705830454826355,0.6466843154098779
183,0.0013771974481642246,1.0,0.30729666352272034,0.6466843154098779
184,0.0013604043051600456,1.0,0.30750420689582825,0.6466843154098779
185,0.0013441289775073528,1.0,0.3077378273010254,0.6466843154098779
186,0.0013279053382575512,1.0,0.3079385459423065,0.6466843154098779
187,0.0013121191877871752,1.0,0.3080826699733734,0.6466843154098779
188,0.0012963353656232357,1.0,0.30817490816116333,0.6466843154098779
189,0.0012811138294637203,1.0,0.30828553438186646,0.6466843154098779
190,0.001266071223653853,1.0,0.3083924651145935,0.6466843154098779
191,0.001251121168024838,1.0,0.30863550305366516,0.6466843154098779
192,0.0012363893911242485,1.0,0.30883604288101196,0.6466843154098779
193,0.0012222793884575367,1.0,0.30911657214164734,0.6466843154098779
194,0.001207998488098383,1.0,0.309380441904068,0.6466843154098779
195,0.0011940939584746957,1.0,0.3096315264701843,0.6466843154098779
196,0.0011804854730144143,1.0,0.30988720059394836,0.6466843154098779
197,0.0011672484688460827,1.0,0.3101774752140045,0.6466843154098779
198,0.0011540420819073915,1.0,0.3103675842285156,0.646738066371456
199,0.001140996115282178,1.0,0.31047868728637695,0.646738066371456
200,0.0011283863568678498,1.0,0.31081047654151917,0.646738066371456
201,0.0011156981345266104,1.0,0.31112536787986755,0.6466843154098779
202,0.0011033935006707907,1.0,0.3113255798816681,0.6466843154098779
203,0.0010913601145148277,1.0,0.31158894300460815,0.6466843154098779
204,0.0010793523397296667,1.0,0.31175723671913147,0.646738066371456
205,0.0010675571393221617,1.0,0.3119206428527832,0.646738066371456
206,0.0010560012888163328,1.0,0.3120400905609131,0.646738066371456
207,0.0010445474181324244,1.0,0.3121056854724884,0.646738066371456
208,0.0010333467507734895,1.0,0.31223899126052856,0.646738066371456
209,0.0010223697172477841,1.0,0.3125511705875397,0.6513676960010858
210,0.001011526444926858,1.0,0.3129383623600006,0.6513676960010858
211,0.0010007513919845223,1.0,0.3131745755672455,0.6513676960010858
212,0.000990318483673036,1.0,0.3132654130458832,0.6458121404455301
213,0.0009799744002521038,1.0,0.3134121894836426,0.6458242416556511
214,0.0009697877685539424,1.0,0.3135434687137604,0.6455578193551577
215,0.0009596588206477463,1.0,0.3136804699897766,0.6455578193551577
216,0.0009498738218098879,1.0,0.31393930315971375,0.6455578193551577
217,0.0009402935393154621,1.0,0.314265638589859,0.6454919976469365
218,0.0009304542909376323,1.0,0.31444501876831055,0.6454919976469365
219,0.0009209309937432408,1.0,0.31459954380989075,0.642712554035409
220,0.0009116654982790351,1.0,0.3147088587284088,0.642712554035409
221,0.0009023519232869148,1.0,0.31486672163009644,0.642712554035409
222,0.0008933891076594591,1.0,0.31509125232696533,0.642712554035409
223,0.0008844270487315953,1.0,0.3153145909309387,0.642712554035409
224,0.0008756519528105855,1.0,0.31556323170661926,0.642712554035409
225,0.0008670949027873576,1.0,0.3158586025238037,0.6454919976469365
226,0.0008583294111303985,1.0,0.31607499718666077,0.642712554035409
227,0.0008500057156197727,1.0,0.31635424494743347,0.642712554035409
228,0.0008416988421231508,1.0,0.3165820240974426,0.642712554035409
229,0.0008336157188750803,1.0,0.31677526235580444,0.642712554035409
230,0.0008254019194282591,1.0,0.31687960028648376,0.642712554035409
231,0.000817611173260957,1.0,0.31706416606903076,0.642712554035409
232,0.0008098426624201238,1.0,0.3172747492790222,0.642712554035409
233,0.0008020273526199162,1.0,0.31746968626976013,0.642712554035409
234,0.0007944158278405666,1.0,0.31759414076805115,0.642712554035409
235,0.0007869771216064692,1.0,0.3177039921283722,0.642712554035409
236,0.0007794000557623804,1.0,0.3178476393222809,0.642712554035409
237,0.0007721504080109298,1.0,0.31807786226272583,0.642712554035409
238,0.0007650141487829387,1.0,0.31830400228500366,0.642712554035409
239,0.0007579938974231482,1.0,0.3185012638568878,0.642712554035409
240,0.0007508902344852686,1.0,0.3186655044555664,0.642712554035409
241,0.0007439506589435041,1.0,0.3187747001647949,0.642712554035409
242,0.0007371732499450445,1.0,0.3189507722854614,0.642712554035409
243,0.0007304397295229137,1.0,0.31908613443374634,0.642712554035409
244,0.0007237638346850872,1.0,0.31920015811920166,0.642712554035409
245,0.0007173845660872757,1.0,0.3194352984428406,0.642712554035409
246,0.0007108518620952964,1.0,0.3196367621421814,0.642712554035409
247,0.0007045180536806583,1.0,0.3198777437210083,0.642712554035409
248,0.0006981892511248589,1.0,0.3200872242450714,0.642712554035409
249,0.0006919953739270568,1.0,0.32031893730163574,0.642712554035409
250,0.0006858283886685967,1.0,0.3205625116825104,0.642712554035409
251,0.0006797211244702339,1.0,0.3207598328590393,0.642712554035409
252,0.0006737015210092068,1.0,0.32082104682922363,0.642712554035409
253,0.0006678134668618441,1.0,0.32094043493270874,0.642712554035409
254,0.0006619461346417665,1.0,0.3210310935974121,0.6426863269478555
255,0.000656154821626842,1.0,0.32106176018714905,0.6426863269478555
256,0.0006505156634375453,1.0,0.3211175501346588,0.6426863269478555
257,0.0006448692292906344,1.0,0.32135671377182007,0.6426863269478555
258,0.0006393601652234793,1.0,0.32147344946861267,0.6426863269478555
259,0.000633895630016923,1.0,0.32164621353149414,0.6426863269478555
260,0.0006284201517701149,1.0,0.32179275155067444,0.6426863269478555
261,0.000623072381131351,1.0,0.3218999207019806,0.6426863269478555
262,0.0006178720504976809,1.0,0.32204002141952515,0.6426863269478555
263,0.0006127089727669954,1.0,0.32233068346977234,0.6426863269478555
264,0.0006074677221477032,1.0,0.32258644700050354,0.6426863269478555
265,0.0006023650639690459,1.0,0.3228088915348053,0.6426863269478555
266,0.0005974606028757989,1.0,0.32303014397621155,0.6426863269478555
267,0.0005924152792431414,1.0,0.3231278955936432,0.6426863269478555
268,0.0005875822389498353,1.0,0.323286771774292,0.6426863269478555
269,0.0005827738204970956,1.0,0.32363221049308777,0.642712554035409
270,0.0005779440980404615,1.0,0.32394400238990784,0.642712554035409
271,0.0005732090794481337,1.0,0.32414981722831726,0.642712554035409
272,0.0005685847136192024,1.0,0.32426944375038147,0.642712554035409
273,0.000563889741897583,1.0,0.3243423104286194,0.642712554035409
274,0.0005593775422312319,1.0,0.3245134949684143,0.642712554035409
275,0.0005548835615627468,1.0,0.32474231719970703,0.642712554035409
276,0.0005503443535417318,1.0,0.3249298632144928,0.642712554035409
277,0.0005458992091007531,1.0,0.3251244127750397,0.642712554035409
278,0.0005415334017015994,1.0,0.32531893253326416,0.642712554035409
279,0.0005372115410864353,1.0,0.32547029852867126,0.642712554035409
280,0.0005329775158315897,1.0,0.3256136178970337,0.642712554035409
281,0.0005287064705044031,1.0,0.32563063502311707,0.642712554035409
282,0.0005245591164566576,1.0,0.32564347982406616,0.6426863269478555
283,0.0005204547778703272,1.0,0.325706422328949,0.6426863269478555
284,0.0005163315217941999,1.0,0.3257451057434082,0.6426863269478555
285,0.0005123429582454264,1.0,0.3258627951145172,0.6426863269478555
286,0.0005083722062408924,1.0,0.3260180652141571,0.6426863269478555
287,0.0005044169374741614,1.0,0.32614865899086,0.6426863269478555
288,0.0005005503771826625,1.0,0.3262709975242615,0.6426863269478555
289,0.0004966709529981017,1.0,0.32637062668800354,0.6426863269478555
290,0.0004928886773996055,1.0,0.32650962471961975,0.6426863269478555
291,0.0004891466232948005,1.0,0.3265897333621979,0.6426863269478555
292,0.0004854117287322879,1.0,0.32669344544410706,0.6426863269478555
293,0.000481725757708773,1.0,0.3268113434314728,0.6426863269478555
294,0.00047811411786824465,1.0,0.3268947899341583,0.6426863269478555
295,0.0004744897014461458,1.0,0.3269425928592682,0.6426863269478555
296,0.0004709543427452445,1.0,0.3269874155521393,0.6426863269478555
297,0.0004674560623243451,1.0,0.32708969712257385,0.6426863269478555
298,0.0004639629914890975,1.0,0.3272473216056824,0.6426863269478555
299,0.00046055452548898757,1.0,0.3274487555027008,0.6426863269478555
300,0.0004571224271785468,1.0,0.32772085070610046,0.6426863269478555
301,0.0004537925124168396,1.0,0.3279946446418762,0.6426863269478555
302,0.00045046876766718924,1.0,0.3282739222049713,0.6426863269478555
303,0.00044718815479427576,1.0,0.3285333514213562,0.6426863269478555
304,0.0004438679607119411,1.0,0.3287617266178131,0.6427256936296217
305,0.00044062305823899806,1.0,0.32889342308044434,0.6427256936296217
306,0.00043749017640948296,1.0,0.32904714345932007,0.6427256936296217
307,0.0004343316541053355,1.0,0.3291383981704712,0.6427256936296217
308,0.00043116341112181544,1.0,0.32919177412986755,0.6427256936296217
309,0.0004281196161173284,1.0,0.32935962080955505,0.6432395316434598
310,0.00042505189776420593,1.0,0.32955169677734375,0.6432395316434598
311,0.00042204029159620404,1.0,0.32967081665992737,0.6432395316434598
312,0.0004189842729829252,1.0,0.3297443985939026,0.6427256936296217
313,0.00041601737029850483,1.0,0.32989197969436646,0.6432395316434598
314,0.00041310940287075937,1.0,0.33006200194358826,0.6432395316434598
315,0.000410195323638618,1.0,0.33020612597465515,0.6432395316434598
316,0.0004073144227731973,1.0,0.33031460642814636,0.6432395316434598
317,0.0004044754314236343,1.0,0.3303404152393341,0.6432274304333387
318,0.0004016385064460337,1.0,0.3304223120212555,0.6432274304333387
319,0.00039884436409920454,1.0,0.3305951654911041,0.6432274304333387
320,0.0003961158508900553,1.0,0.33080288767814636,0.6432274304333387
321,0.00039336003828793764,1.0,0.33092692494392395,0.6432274304333387
322,0.0003906525089405477,1.0,0.33105915784835815,0.6432274304333387
323,0.0003879647410940379,1.0,0.3312058448791504,0.6432274304333387
324,0.00038532319013029337,1.0,0.33138346672058105,0.6432274304333387
325,0.00038269066135399044,1.0,0.3316124975681305,0.6432274304333387
326,0.0003800736740231514,1.0,0.33178964257240295,0.6432274304333387
327,0.0003774822107516229,1.0,0.33189690113067627,0.6432274304333387
328,0.0003749768657144159,1.0,0.3320729434490204,0.6432274304333387
329,0.00037241974496282637,1.0,0.3322433531284332,0.6432274304333387
330,0.0003698955406434834,1.0,0.3323756754398346,0.6432274304333387
331,0.0003674242179840803,1.0,0.33248192071914673,0.6432274304333387
332,0.0003649616555776447,1.0,0.3325308859348297,0.6432274304333387
333,0.0003625207464210689,1.0,0.3325752019882202,0.6443385415444499
334,0.0003601304197218269,1.0,0.3327108919620514,0.6443385415444499
335,0.00035776564618572593,1.0,0.33292853832244873,0.6443385415444499
336,0.00035534703056328,1.0,0.33308422565460205,0.6443385415444499
337,0.0003530418034642935,1.0,0.3332282602787018,0.6443385415444499
338,0.00035071911406703293,1.0,0.33341729640960693,0.6443385415444499
339,0.00034845026675611734,1.0,0.33359113335609436,0.6443398353394092
340,0.0003461516462266445,1.0,0.33368197083473206,0.6443398353394092
341,0.00034387080813758075,1.0,0.3338007628917694,0.6443398353394092
342,0.000341673381626606,1.0,0.33396416902542114,0.6443398353394092
343,0.00033946233452297747,1.0,0.3340762257575989,0.6443398353394092
344,0.0003372506471350789,1.0,0.3341498374938965,0.6443398353394092
345,0.00033509416971355677,1.0,0.3342928886413574,0.6443398353394092
346,0.00033293693559244275,1.0,0.33442234992980957,0.6443398353394092
347,0.0003308401210233569,1.0,0.3346134126186371,0.6443398353394092
348,0.000328690221067518,1.0,0.33479219675064087,0.6443398353394092
349,0.0003265919804107398,1.0,0.33491697907447815,0.6443398353394092
350,0.00032453564926981926,1.0,0.33496516942977905,0.6443398353394092
351,0.0003224893589504063,1.0,0.33509767055511475,0.6443398353394092
352,0.00032045799889601767,1.0,0.3352586627006531,0.6443398353394092
353,0.0003184300730936229,1.0,0.3353688418865204,0.6443398353394092
354,0.0003164098598062992,1.0,0.3355345129966736,0.6443398353394092
355,0.00031446170760318637,1.0,0.33574214577674866,0.6443398353394092
356,0.0003125039511360228,1.0,0.33587032556533813,0.6443398353394092
357,0.00031053577549755573,1.0,0.33598411083221436,0.6443398353394092
358,0.0003086405049543828,1.0,0.33605119585990906,0.6443398353394092
359,0.00030673868604935706,1.0,0.3361393213272095,0.6443398353394092
360,0.000304811866953969,1.0,0.3362196981906891,0.6443398353394092
361,0.0003029395593330264,1.0,0.3363668620586395,0.6443398353394092
362,0.00030107656493782997,1.0,0.3365103304386139,0.6443398353394092
363,0.00029922850080765784,1.0,0.3366300165653229,0.6443398353394092
364,0.00029738969169557095,1.0,0.3367256224155426,0.6443398353394092
365,0.00029558740789070725,1.0,0.3369153141975403,0.6443398353394092
366,0.0002937983372248709,1.0,0.33715343475341797,0.6443398353394092
367,0.00029202745645307004,1.0,0.33734819293022156,0.6443398353394092
368,0.00029021577211096883,1.0,0.3374568521976471,0.6443398353394092
369,0.0002884923596866429,1.0,0.3376055657863617,0.6443398353394092
370,0.00028675151406787336,1.0,0.3377339541912079,0.6443398353394092
371,0.0002850280434358865,1.0,0.33781707286834717,0.6443398353394092
372,0.0002833360049407929,1.0,0.33790144324302673,0.6443398353394092
373,0.00028159903013147414,1.0,0.33796849846839905,0.6442890604362721
374,0.00027993146795779467,1.0,0.3380928933620453,0.6442890604362721
375,0.00027831271290779114,1.0,0.33822882175445557,0.6442890604362721
376,0.00027660548221319914,1.0,0.33833181858062744,0.6442890604362721
377,0.00027496437542140484,1.0,0.3384637236595154,0.6442890604362721
378,0.0002733283909037709,1.0,0.3385615348815918,0.643361439451443
379,0.00027172622503712773,1.0,0.33868229389190674,0.6442890604362721
380,0.00027012714417651296,1.0,0.3388092815876007,0.6442890604362721
381,0.0002685266954358667,1.0,0.3389202654361725,0.643361439451443
382,0.0002669460664037615,1.0,0.33907338976860046,0.643361439451443
383,0.00026540685212239623,1.0,0.339226096868515,0.643361439451443
384,0.0002638429868966341,1.0,0.33928823471069336,0.643361439451443
385,0.0002623016480356455,1.0,0.33930954337120056,0.643361439451443
386,0.0002607915084809065,1.0,0.3393702208995819,0.643361439451443
387,0.0002592641394585371,1.0,0.3395119607448578,0.643361439451443
388,0.0002577996929176152,1.0,0.3397517502307892,0.643361439451443
389,0.00025628539151512086,1.0,0.33996737003326416,0.643361439451443
390,0.0002548235934227705,1.0,0.34009692072868347,0.643361439451443
391,0.0002533518709242344,1.0,0.34022483229637146,0.643361439451443
392,0.0002519036643207073,1.0,0.34027233719825745,0.643361439451443
393,0.00025044369976967573,1.0,0.34031394124031067,0.643361439451443
394,0.0002490170008968562,1.0,0.3403744697570801,0.643361439451443
395,0.00024763005785644054,1.0,0.3404853641986847,0.643361439451443
396,0.0002462036209180951,1.0,0.3406166136264801,0.643361439451443
397,0.0002448342856951058,1.0,0.3407893776893616,0.6440022552096208
398,0.00024345646670553833,1.0,0.34098273515701294,0.6440022552096208
399,0.00024207191017922014,1.0,0.34120938181877136,0.6440022552096208
400,0.00024071875668596476,1.0,0.3414154350757599,0.6440022552096208
401,0.00023934399359859526,1.0,0.34151625633239746,0.6440022552096208
402,0.00023802375653758645,1.0,0.34164875745773315,0.6440022552096208
403,0.0002366916451137513,1.0,0.3417796492576599,0.6440022552096208
404,0.00023535275249741971,1.0,0.341892272233963,0.6440022552096208
405,0.00023405763204209507,1.0,0.3420233726501465,0.6440022552096208
406,0.00023277400759980083,1.0,0.34218543767929077,0.6440022552096208
407,0.00023147747560869902,1.0,0.3423018753528595,0.6440022552096208
408,0.00023018222418613732,1.0,0.3422932028770447,0.6440022552096208
409,0.0002289200492668897,1.0,0.3423195779323578,0.6440022552096208
410,0.00022765956236980855,1.0,0.342438668012619,0.6440022552096208
411,0.00022641889518126845,1.0,0.3426075577735901,0.6440022552096208
412,0.0002251788100693375,1.0,0.3427676260471344,0.6440022552096208
413,0.00022395176347345114,1.0,0.34287047386169434,0.6440022552096208
414,0.00022271368652582169,1.0,0.3429393470287323,0.6440022552096208
415,0.00022153891040943563,1.0,0.3430618345737457,0.6440022552096208
416,0.00022032094420865178,1.0,0.3432208299636841,0.6440022552096208
417,0.0002191265521105379,1.0,0.3433666229248047,0.6440022552096208
418,0.00021795957582071424,1.0,0.34352046251296997,0.6440022552096208
419,0.00021675965399481356,1.0,0.3436863422393799,0.6440022552096208
420,0.00021562284382525831,1.0,0.34387102723121643,0.6440022552096208
421,0.00021444796584546566,1.0,0.3439612090587616,0.6440022552096208
422,0.00021330651361495256,1.0,0.34401214122772217,0.6440022552096208
423,0.00021216484310571104,1.0,0.344083696603775,0.6440022552096208
424,0.0002110455825459212,1.0,0.344170480966568,0.6440022552096208
425,0.00020989605400245637,1.0,0.34423819184303284,0.6440022552096208
426,0.00020878235227428377,1.0,0.3443264067173004,0.6440022552096208
427,0.00020768941612914205,1.0,0.3444490432739258,0.6440022552096208
428,0.00020659490837715566,1.0,0.3445528745651245,0.6440022552096208
429,0.00020551045599859208,1.0,0.3446643650531769,0.6440022552096208
430,0.00020441593369469047,1.0,0.34479591250419617,0.6440022552096208
431,0.00020335712179075927,1.0,0.34494489431381226,0.6440022552096208
432,0.0002022804692387581,1.0,0.345060259103775,0.6440022552096208
433,0.00020124697766732424,1.0,0.34512966871261597,0.6440022552096208
434,0.0002001349930651486,1.0,0.34511783719062805,0.6440022552096208
435,0.00019905931549146771,1.0,0.3451445996761322,0.6440022552096208
436,0.00019799034635070711,1.0,0.3452133536338806,0.6440022552096208
437,0.00019687906024046242,1.0,0.3452981412410736,0.6440022552096208
438,0.00019581399101298302,1.0,0.34545958042144775,0.6440022552096208
439,0.00019476603483781219,1.0,0.3456355631351471,0.6440022552096208
440,0.00019370237714610994,1.0,0.3457523286342621,0.6440022552096208
441,0.00019263711874373257,1.0,0.3458341360092163,0.6440022552096208
442,0.00019160695956088603,1.0,0.345964640378952,0.6440022552096208
443,0.0001906045654322952,1.0,0.3461540937423706,0.6440022552096208
444,0.00018957209249492735,1.0,0.3463190495967865,0.6440022552096208
445,0.00018854935478884727,1.0,0.3464182913303375,0.6440022552096208
446,0.0001875606831163168,1.0,0.3465047776699066,0.6440022552096208
447,0.00018655610620044172,1.0,0.34661558270454407,0.6440022552096208
448,0.00018558715237304568,1.0,0.34675097465515137,0.6440022552096208
449,0.00018461539002601057,1.0,0.34686294198036194,0.6440022552096208
450,0.0001836304145399481,1.0,0.3469032645225525,0.6440022552096208
451,0.0001826747611630708,1.0,0.3470207750797272,0.6440022552096208
452,0.000181729017640464,1.0,0.3472154140472412,0.642150403357769
453,0.0001807762309908867,1.0,0.3473655879497528,0.6421766304453222
454,0.0001798237208276987,1.0,0.34753015637397766,0.6421766304453222
455,0.00017891006427817047,1.0,0.34773099422454834,0.6421766304453222
456,0.00017799955094233155,1.0,0.34788399934768677,0.6421766304453222
457,0.00017706937796901911,1.0,0.34799593687057495,0.6421766304453222
458,0.00017616400145925581,1.0,0.34806784987449646,0.6421766304453222
459,0.00017526977171655744,1.0,0.3480737507343292,0.6421766304453222
460,0.00017437773931305856,1.0,0.3481229841709137,0.6421766304453222
461,0.00017348455730825663,1.0,0.3482532203197479,0.6421766304453222
462,0.00017260859021916986,1.0,0.34841659665107727,0.6421766304453222
463,0.00017173975356854498,1.0,0.34853535890579224,0.6421766304453222
464,0.00017087611195165664,1.0,0.34862086176872253,0.6421766304453222
465,0.00017001040396280587,1.0,0.3486868143081665,0.6421642847663098
466,0.00016916185268200934,1.0,0.34882453083992004,0.6421642847663098
467,0.0001683011360000819,1.0,0.3489335775375366,0.6421642847663098
468,0.0001674662489676848,1.0,0.34907588362693787,0.6421642847663098
469,0.00016662436246406287,1.0,0.349164217710495,0.6421642847663098
470,0.00016579937073402107,1.0,0.3492252230644226,0.6421642847663098
471,0.00016497902106493711,1.0,0.3493160903453827,0.6421642847663098
472,0.00016415497520938516,1.0,0.3493875563144684,0.6421642847663098
473,0.00016333659004885703,1.0,0.3494392931461334,0.6421642847663098
474,0.0001625455915927887,1.0,0.34955668449401855,0.6421642847663098
475,0.0001617504021851346,1.0,0.3497571647167206,0.6421642847663098
476,0.00016094990132842213,1.0,0.34987977147102356,0.6421642847663098
477,0.00016015137953218073,1.0,0.3499169647693634,0.6421642847663098
478,0.00015936642012093216,1.0,0.3499886393547058,0.6421642847663098
479,0.0001585919235367328,1.0,0.35011032223701477,0.6421642847663098
480,0.00015781648107804358,1.0,0.3502262532711029,0.6421642847663098
481,0.00015704918769188225,1.0,0.35034170746803284,0.6421642847663098
482,0.00015629710105713457,1.0,0.3504640460014343,0.6421642847663098
483,0.00015553456614725292,1.0,0.3505389094352722,0.6421766304453222
484,0.00015477596025448292,1.0,0.350591242313385,0.6421766304453222
485,0.00015403213910758495,1.0,0.3506513237953186,0.6421766304453222
486,0.00015328674635384232,1.0,0.35071033239364624,0.6421766304453222
487,0.00015255471225827932,1.0,0.35078462958335876,0.6421766304453222
488,0.00015183472714852542,1.0,0.3508661091327667,0.6421766304453222
489,0.0001510926231276244,1.0,0.35090968012809753,0.6421766304453222
490,0.00015037099365144968,1.0,0.3509778082370758,0.6421766304453222
491,0.00014965627633500844,1.0,0.35109901428222656,0.6421766304453222
492,0.00014894882042426616,1.0,0.35121801495552063,0.6421766304453222
493,0.00014822970842942595,1.0,0.35133346915245056,0.6421766304453222
494,0.00014752573042642325,1.0,0.35142698884010315,0.6421766304453222
495,0.0001468379341531545,1.0,0.35151350498199463,0.6421766304453222
496,0.00014614660176448524,1.0,0.3516494035720825,0.6421766304453222
497,0.0001454509183531627,1.0,0.35179799795150757,0.6421766304453222
498,0.00014477092190645635,1.0,0.3519676625728607,0.6421766304453222
499,0.00014409137656912208,1.0,0.35218778252601624,0.6421766304453222
500,0.00014341084170155227,1.0,0.3523384928703308,0.6421766304453222
501,0.00014273902343120426,1.0,0.35244449973106384,0.6421766304453222
502,0.00014208510401658714,1.0,0.35252872109413147,0.6421766304453222
503,0.00014141554129309952,1.0,0.35258644819259644,0.6421766304453222
504,0.0001407652162015438,1.0,0.3526693880558014,0.6421766304453222
505,0.0001400933542754501,1.0,0.35275718569755554,0.6421766304453222
506,0.0001394604769302532,1.0,0.35290002822875977,0.6421766304453222
507,0.0001388111268170178,1.0,0.3530074656009674,0.6421766304453222
508,0.00013816119462717324,1.0,0.353063702583313,0.6421766304453222
509,0.00013752539234701544,1.0,0.35314053297042847,0.6421766304453222
510,0.0001368965022265911,1.0,0.3532383143901825,0.6421766304453222
511,0.00013626503641717136,1.0,0.3533748686313629,0.6421766304453222
512,0.00013564359687734395,1.0,0.353555828332901,0.6421766304453222
513,0.00013500827481038868,1.0,0.35364678502082825,0.6421766304453222
514,0.00013440512702800333,1.0,0.35369426012039185,0.6421766304453222
515,0.00013378949370235205,1.0,0.35374364256858826,0.6421766304453222
516,0.00013317010598257184,1.0,0.35380688309669495,0.6421766304453222
517,0.00013256499369163066,1.0,0.35393109917640686,0.6421766304453222
518,0.00013197242515161633,1.0,0.35403114557266235,0.6421766304453222
519,0.00013135801418684423,1.0,0.354087233543396,0.6421766304453222
520,0.00013075955212116241,1.0,0.35411205887794495,0.6421766304453222
521,0.0001301740703638643,1.0,0.3541814982891083,0.6421766304453222
522,0.00012957699073012918,1.0,0.3542851507663727,0.6421766304453222
523,0.0001289954234380275,1.0,0.3543871343135834,0.6421766304453222
524,0.0001284093887079507,1.0,0.35447874665260315,0.6421766304453222
525,0.0001278306299354881,1.0,0.35458189249038696,0.6421766304453222
526,0.00012725419946946204,1.0,0.3546503484249115,0.6421766304453222
527,0.00012668361887335777,1.0,0.354757696390152,0.6421766304453222
528,0.0001261287252418697,1.0,0.3548819124698639,0.6421766304453222
529,0.000125550533994101,1.0,0.35495805740356445,0.6421766304453222
530,0.0001249898923560977,1.0,0.3550635874271393,0.6421766304453222
531,0.00012443885498214513,1.0,0.3551979064941406,0.6421766304453222
532,0.0001238854310940951,1.0,0.35529494285583496,0.6421766304453222
533,0.00012332358164712787,1.0,0.3553682863712311,0.6421766304453222
534,0.00012277200585231185,1.0,0.35542032122612,0.6421766304453222
535,0.0001222396967932582,1.0,0.3555004596710205,0.6421766304453222
536,0.00012170095578767359,1.0,0.35560697317123413,0.6421766304453222
537,0.00012115364370401949,1.0,0.35575178265571594,0.6421766304453222
538,0.0001206224478664808,1.0,0.3558897078037262,0.6421766304453222
539,0.00012009797501377761,1.0,0.3560086786746979,0.6421766304453222
540,0.00011957221431657672,1.0,0.3561459183692932,0.6421766304453222
541,0.00011903680569957942,1.0,0.3562755286693573,0.6421766304453222
542,0.00011852294119307771,1.0,0.35639697313308716,0.6421766304453222
543,0.00011800826177932322,1.0,0.35651519894599915,0.6421766304453222
544,0.00011748615361284465,1.0,0.3566085398197174,0.6421766304453222
545,0.00011698096932377666,1.0,0.3567330837249756,0.6421766304453222
546,0.00011646918574115261,1.0,0.35681644082069397,0.6421766304453222
547,0.0001159637831733562,1.0,0.35685259103775024,0.6421766304453222
548,0.00011545823508640751,1.0,0.3569169342517853,0.6421766304453222
549,0.00011494847422000021,1.0,0.35701024532318115,0.6421766304453222
550,0.00011446024291217327,1.0,0.35713186860084534,0.6421766304453222
551,0.00011396630725357682,1.0,0.3572137951850891,0.6421766304453222
552,0.00011346786050125957,1.0,0.357290655374527,0.6421766304453222
553,0.00011298171011731029,1.0,0.3574365973472595,0.6421766304453222
554,0.00011249643284827471,1.0,0.35757961869239807,0.6421766304453222
555,0.00011200072185602039,1.0,0.3576813340187073,0.6421766304453222
556,0.00011152119259350002,1.0,0.3577815592288971,0.6421766304453222
557,0.00011105361772933975,1.0,0.3579058349132538,0.6421766304453222
558,0.00011057218216592446,1.0,0.35803115367889404,0.6421766304453222
559,0.00011010855814674869,1.0,0.3581439256668091,0.6421766304453222
560,0.00010963919339701533,1.0,0.35820427536964417,0.6421766304453222
561,0.00010916426253970712,1.0,0.35825327038764954,0.6421766304453222
562,0.00010870228288695216,1.0,0.35828959941864014,0.6421766304453222
563,0.00010824095807038248,1.0,0.3583451211452484,0.6421766304453222
564,0.00010778255091281608,1.0,0.358462929725647,0.6421766304453222
565,0.00010732038936112076,1.0,0.3585447371006012,0.6421766304453222
566,0.00010687054600566626,1.0,0.35862666368484497,0.6421766304453222
567,0.00010642351844580844,1.0,0.3587211072444916,0.6421766304453222
568,0.00010597964865155518,1.0,0.35872167348861694,0.6421766304453222
569,0.00010553278116276488,1.0,0.3587932884693146,0.6421766304453222
570,0.00010508410923648626,1.0,0.3589235544204712,0.6421766304453222
571,0.00010464453953318298,1.0,0.35907354950904846,0.6421766304453222
572,0.00010420959733892232,1.0,0.35920342803001404,0.6421766304453222
573,0.00010376608406659216,1.0,0.359315425157547,0.6421766304453222
574,0.00010333639511372894,1.0,0.35943660140037537,0.6421766304453222
575,0.00010290024511050433,1.0,0.3595210313796997,0.6421766304453222
576,0.00010248344187857583,1.0,0.35958483815193176,0.6421766304453222
577,0.00010204747377429157,1.0,0.35964471101760864,0.6421766304453222
578,0.0001016257083392702,1.0,0.3597402572631836,0.6421766304453222
579,0.00010121153900399804,1.0,0.35986849665641785,0.6421766304453222
580,0.00010078868945129216,1.0,0.3600037395954132,0.6421766304453222
581,0.00010037281026598066,1.0,0.3601395785808563,0.6421766304453222
582,9.996406151913106e-05,1.0,0.36025571823120117,0.6421766304453222
583,9.955226414604113e-05,1.0,0.360324889421463,0.6421766304453222
584,9.913377289194614e-05,1.0,0.3603877127170563,0.6421766304453222
585,9.873279486782849e-05,1.0,0.36050623655319214,0.6421766304453222
586,9.832634532358497e-05,1.0,0.3606089949607849,0.6421766304453222
587,9.793149365577847e-05,1.0,0.36069151759147644,0.6421766304453222
588,9.751832112669945e-05,1.0,0.36076655983924866,0.6421337261548933
589,9.712713654153049e-05,1.0,0.3608454465866089,0.6421337261548933
590,9.673153545008972e-05,1.0,0.3608948290348053,0.6421337261548933
591,9.632940054871142e-05,1.0,0.36093345284461975,0.6421337261548933
592,9.594637958798558e-05,1.0,0.36100512742996216,0.6421337261548933
593,9.55509312916547e-05,1.0,0.36110010743141174,0.6421337261548933
594,9.516814316157252e-05,1.0,0.3611989915370941,0.6421337261548933
595,9.478277206653729e-05,1.0,0.36127805709838867,0.6421337261548933
596,9.439101268071681e-05,1.0,0.3613380789756775,0.6421337261548933
597,9.401695569977164e-05,1.0,0.3614230155944824,0.6421337261548933
598,9.363230492454022e-05,1.0,0.3615530729293823,0.6421337261548933
599,9.325542487204075e-05,1.0,0.36166825890541077,0.6421337261548933
600,9.287353896070272e-05,1.0,0.3617575764656067,0.6421337261548933
601,9.250745642930269e-05,1.0,0.3619216978549957,0.6421337261548933
602,9.213214798364788e-05,1.0,0.36205628514289856,0.6421337261548933
603,9.176564344670624e-05,1.0,0.3621085584163666,0.6421337261548933
604,9.139112808043137e-05,1.0,0.36212649941444397,0.6421337261548933
605,9.102617332246155e-05,1.0,0.36212384700775146,0.6421337261548933
606,9.066653001355007e-05,1.0,0.36216723918914795,0.6421337261548933
607,9.02988322195597e-05,1.0,0.36221733689308167,0.6421337261548933
608,8.99481528904289e-05,1.0,0.36225733160972595,0.6421337261548933
609,8.95819830475375e-05,1.0,0.36231961846351624,0.6421337261548933
610,8.922793495003134e-05,1.0,0.3624545931816101,0.6421337261548933
611,8.887580770533532e-05,1.0,0.3626103699207306,0.6421337261548933
612,8.8519424025435e-05,1.0,0.3627059757709503,0.6421337261548933
613,8.816867193672806e-05,1.0,0.36280760169029236,0.6421337261548933
614,8.782481017988175e-05,1.0,0.36294281482696533,0.6421337261548933
615,8.747790707275271e-05,1.0,0.3630794286727905,0.6421337261548933
616,8.712956332601607e-05,1.0,0.3632407784461975,0.6421337261548933
617,8.678682206664234e-05,1.0,0.36333930492401123,0.6421337261548933
618,8.64423782331869e-05,1.0,0.36339107155799866,0.6421337261548933
619,8.610674558440223e-05,1.0,0.3634656071662903,0.6421337261548933
620,8.576648542657495e-05,1.0,0.36352699995040894,0.6421337261548933
621,8.543553849449381e-05,1.0,0.36361223459243774,0.6421337261548933
622,8.510235056746751e-05,1.0,0.36370721459388733,0.6421337261548933
623,8.477234950987622e-05,1.0,0.3637935519218445,0.6421337261548933
624,8.443265687674284e-05,1.0,0.3638666868209839,0.6421337261548933
625,8.411055023316294e-05,1.0,0.3639034330844879,0.6421337261548933
626,8.378140046261251e-05,1.0,0.3639580309391022,0.6421337261548933
627,8.345401147380471e-05,1.0,0.3640132248401642,0.6421337261548933
628,8.313055150210857e-05,1.0,0.3640780746936798,0.6421337261548933
629,8.280803740490228e-05,1.0,0.36414119601249695,0.6421337261548933
630,8.249412348959595e-05,1.0,0.3642398416996002,0.6421337261548933
631,8.216807327698916e-05,1.0,0.3643569052219391,0.6421337261548933
632,8.184967009583488e-05,1.0,0.364486962556839,0.6421337261548933
633,8.153427916113287e-05,1.0,0.3645961284637451,0.6421337261548933
634,8.122677536448464e-05,1.0,0.3647240400314331,0.6421337261548933
635,8.090979827102274e-05,1.0,0.3648619055747986,0.6421337261548933
636,8.059263200266287e-05,1.0,0.3649672567844391,0.6421337261548933
637,8.028637967072427e-05,1.0,0.36506107449531555,0.6421337261548933
638,7.998524233698845e-05,1.0,0.36516132950782776,0.6421337261548933
639,7.967063720570877e-05,1.0,0.365229994058609,0.6421337261548933
640,7.936710608191788e-05,1.0,0.36529025435447693,0.6421337261548933
641,7.906258542789146e-05,1.0,0.3653378188610077,0.6421337261548933
642,7.876257586758584e-05,1.0,0.36541011929512024,0.6421337261548933
643,7.846005610190332e-05,1.0,0.3655363917350769,0.6421337261548933
644,7.815915159881115e-05,1.0,0.36565160751342773,0.6421337261548933
645,7.786660717101768e-05,1.0,0.36578428745269775,0.6421337261548933
646,7.756834384053946e-05,1.0,0.36585891246795654,0.6421337261548933
647,7.727213960606605e-05,1.0,0.36592671275138855,0.6421337261548933
648,7.697222463320941e-05,1.0,0.3660081624984741,0.6421337261548933
649,7.669004844501615e-05,1.0,0.36609476804733276,0.6421337261548933
650,7.639788964297622e-05,1.0,0.36617594957351685,0.6421337261548933
651,7.610812463099137e-05,1.0,0.3662377595901489,0.6421337261548933
652,7.582080434076488e-05,1.0,0.36625319719314575,0.6421337261548933
653,7.553321484010667e-05,1.0,0.3662952780723572,0.6421337261548933
654,7.525198452640325e-05,1.0,0.36641913652420044,0.6430720552819236
655,7.497091428376734e-05,1.0,0.3665666878223419,0.6430720552819236
656,7.468569674529135e-05,1.0,0.36666467785835266,0.6430720552819236
657,7.440753688570112e-05,1.0,0.3667895495891571,0.6430720552819236
658,7.412787817884237e-05,1.0,0.36690035462379456,0.6430720552819236
659,7.385120261460543e-05,1.0,0.3669964373111725,0.6430720552819236
660,7.35719659132883e-05,1.0,0.3670737147331238,0.6430720552819236
661,7.329470827244222e-05,1.0,0.36712023615837097,0.6430720552819236
662,7.302498852368444e-05,1.0,0.36716461181640625,0.6430720552819236
663,7.274821837199852e-05,1.0,0.3672281801700592,0.6430720552819236
664,7.24799174349755e-05,1.0,0.3673308789730072,0.6430720552819236
665,7.220784755190834e-05,1.0,0.3674003779888153,0.6430720552819236
666,7.194170029833913e-05,1.0,0.36749860644340515,0.6430458281943702
667,7.167203875724226e-05,1.0,0.3675866723060608,0.6430458281943702
668,7.140570960473269e-05,1.0,0.36766740679740906,0.6430458281943702
669,7.11417815182358e-05,1.0,0.3677712380886078,0.6430458281943702
670,7.087632548063993e-05,1.0,0.3679008185863495,0.6430458281943702
671,7.061516953399405e-05,1.0,0.36798036098480225,0.6430458281943702
672,7.035271119093522e-05,1.0,0.36804649233818054,0.6430458281943702
673,7.009616092545912e-05,1.0,0.36811986565589905,0.6430458281943702
674,6.983034108998254e-05,1.0,0.36819472908973694,0.6430458281943702
675,6.957855657674372e-05,1.0,0.36831963062286377,0.6430458281943702
676,6.931636016815901e-05,1.0,0.36842384934425354,0.6430458281943702
677,6.907143688295037e-05,1.0,0.36851587891578674,0.6430458281943702
678,6.881372246425599e-05,1.0,0.36857813596725464,0.6430458281943702
679,6.856331310700625e-05,1.0,0.36866143345832825,0.6430458281943702
680,6.831491191405803e-05,1.0,0.36873507499694824,0.6430458281943702
681,6.806303281337023e-05,1.0,0.36882761120796204,0.6430458281943702
682,6.781626143492758e-05,1.0,0.3689502775669098,0.6430458281943702
683,6.7567263613455e-05,1.0,0.36905989050865173,0.6430458281943702
684,6.731701432727277e-05,1.0,0.36915913224220276,0.6430884304938158
685,6.70735098537989e-05,1.0,0.3692471981048584,0.6430884304938158
686,6.682686216663569e-05,1.0,0.3693283200263977,0.6430884304938158
687,6.658818165306002e-05,1.0,0.369424968957901,0.6430884304938158
688,6.634558667428792e-05,1.0,0.36950457096099854,0.6430860566629276
689,6.610414857277647e-05,1.0,0.3695760667324066,0.6430860566629276
690,6.586602830793709e-05,1.0,0.3696373999118805,0.6430860566629276
691,6.562645285157487e-05,1.0,0.36970317363739014,0.6430860566629276
692,6.539142486872151e-05,1.0,0.3697960078716278,0.6430860566629276
693,6.51580048725009e-05,1.0,0.36988702416419983,0.6430860566629276
694,6.492438114946708e-05,1.0,0.37002089619636536,0.6430860566629276
695,6.469407526310533e-05,1.0,0.3701602518558502,0.6430860566629276
696,6.445527105825022e-05,1.0,0.37028926610946655,0.6430860566629276
697,6.422572914743796e-05,1.0,0.3704129755496979,0.6430860566629276
698,6.399360427167267e-05,1.0,0.37047091126441956,0.6430860566629276
699,6.37618504697457e-05,1.0,0.37050819396972656,0.6430860566629276
700,6.35308533674106e-05,1.0,0.3705548644065857,0.6430860566629276
701,6.330265023279935e-05,1.0,0.3705883026123047,0.6430860566629276
702,6.307837611529976e-05,1.0,0.3706352710723877,0.6430860566629276
703,6.285175186349079e-05,1.0,0.37067052721977234,0.6430860566629276
704,6.262864189920947e-05,1.0,0.3707227110862732,0.6430860566629276
705,6.240400398382917e-05,1.0,0.3707844018936157,0.6430860566629276
706,6.218146882019937e-05,1.0,0.3708493113517761,0.643043454363482
707,6.196288450155407e-05,1.0,0.3708994686603546,0.643043454363482
708,6.173763540573418e-05,1.0,0.3709285855293274,0.643043454363482
709,6.151809066068381e-05,1.0,0.37095868587493896,0.643043454363482
710,6.129805842647329e-05,1.0,0.37101277709007263,0.643043454363482
711,6.108415254857391e-05,1.0,0.371113657951355,0.643043454363482
712,6.086665598559193e-05,1.0,0.37121060490608215,0.643043454363482
713,6.065173874958418e-05,1.0,0.3713172972202301,0.643043454363482
714,6.043564644642174e-05,1.0,0.3714343309402466,0.643043454363482
715,6.022102024871856e-05,1.0,0.37157607078552246,0.643043454363482
716,6.0007208958268166e-05,1.0,0.3716845214366913,0.6454008714777425
717,5.9796493587782606e-05,1.0,0.37176957726478577,0.6454008714777425
718,5.95860110479407e-05,1.0,0.371872216463089,0.6454008714777425
719,5.9371690440457314e-05,1.0,0.37200888991355896,0.6454008714777425
720,5.916727241128683e-05,1.0,0.3721503019332886,0.6454008714777425
721,5.895502908970229e-05,1.0,0.3722342252731323,0.6454008714777425
722,5.8745001297211275e-05,1.0,0.37229064106941223,0.6454008714777425
723,5.8538877055980265e-05,1.0,0.3723790645599365,0.6454008714777425
724,5.8335630455985665e-05,1.0,0.3724786043167114,0.6454008714777425
725,5.812912422697991e-05,1.0,0.3725217580795288,0.6454008714777425
726,5.7925361033994704e-05,1.0,0.3725694715976715,0.6454008714777425
727,5.77236496610567e-05,1.0,0.37262746691703796,0.6454008714777425
728,5.7520017435308546e-05,1.0,0.37269386649131775,0.6453582691782969
729,5.732093268306926e-05,1.0,0.37278318405151367,0.6453582691782969
730,5.712185156880878e-05,1.0,0.3728531301021576,0.6453582691782969
731,5.69187686778605e-05,1.0,0.37289366126060486,0.6453582691782969
732,5.67267561564222e-05,1.0,0.37296798825263977,0.6453582691782969
733,5.652020627167076e-05,1.0,0.37301838397979736,0.6453582691782969
734,5.632315878756344e-05,1.0,0.3731021583080292,0.6453582691782969
735,5.613084067590535e-05,1.0,0.3732351064682007,0.6453582691782969
736,5.593579771812074e-05,1.0,0.3733583688735962,0.6454008714777425
737,5.5737498769303784e-05,1.0,0.37343984842300415,0.6454008714777425
738,5.554821836994961e-05,1.0,0.37356534600257874,0.6454008714777425
739,5.5354747019009665e-05,1.0,0.373672753572464,0.6454008714777425
740,5.5163283832371235e-05,1.0,0.37378761172294617,0.6454008714777425
741,5.496980156749487e-05,1.0,0.37389129400253296,0.6454008714777425
742,5.478033926920034e-05,1.0,0.37397485971450806,0.6454008714777425
743,5.458956729853526e-05,1.0,0.3740546405315399,0.6454008714777425
744,5.4400832596002147e-05,1.0,0.3741147816181183,0.6454008714777425
745,5.421165406005457e-05,1.0,0.37421053647994995,0.6454008714777425
746,5.402799797593616e-05,1.0,0.3743131160736084,0.6454008714777425
747,5.383966345107183e-05,1.0,0.374407559633255,0.6454008714777425
748,5.3656887757824734e-05,1.0,0.3745012879371643,0.6454008714777425
749,5.3467949328478426e-05,1.0,0.3745850622653961,0.6454008714777425
750,5.3287669288692996e-05,1.0,0.37465667724609375,0.6454008714777425
751,5.3103474783711135e-05,1.0,0.3747508227825165,0.6362162836641224
752,5.2920768212061375e-05,1.0,0.37484481930732727,0.6362162836641224
753,5.2741052058991045e-05,1.0,0.37498441338539124,0.6362179787230258
754,5.2555482398020104e-05,1.0,0.3751150965690613,0.6362179787230258
755,5.237841833150014e-05,1.0,0.37522363662719727,0.6362179787230258
756,5.2201263315510005e-05,1.0,0.37533512711524963,0.6362179787230258
757,5.202280590310693e-05,1.0,0.3753894865512848,0.6362179787230258
758,5.1842129323631525e-05,1.0,0.37546131014823914,0.6362179787230258
759,5.166866321815178e-05,1.0,0.3755630552768707,0.6362179787230258
760,5.149278149474412e-05,1.0,0.3756515681743622,0.6362179787230258
761,5.131899524712935e-05,1.0,0.37572187185287476,0.6362179787230258
762,5.1141902076778933e-05,1.0,0.3757811188697815,0.6362179787230258
763,5.0963997637154534e-05,1.0,0.3758431375026703,0.6362179787230258
764,5.079409675090574e-05,1.0,0.37591615319252014,0.6362179787230258
765,5.061974661657587e-05,1.0,0.37599512934684753,0.6362179787230258
766,5.044841964263469e-05,1.0,0.3760816156864166,0.6362179787230258
767,5.027794395573437e-05,1.0,0.3762032389640808,0.6362179787230258
768,5.0106616981793195e-05,1.0,0.3762843906879425,0.6362179787230258
769,4.9930917157325894e-05,1.0,0.37635233998298645,0.6362179787230258
770,4.976534182787873e-05,1.0,0.3764400780200958,0.6362179787230258
771,4.960048318025656e-05,1.0,0.3765222132205963,0.6362179787230258
772,4.942919622408226e-05,1.0,0.37655267119407654,0.6362179787230258
773,4.9265610869042575e-05,1.0,0.3766152560710907,0.6362179787230258
774,4.9098081944976e-05,1.0,0.3767109513282776,0.6362179787230258
775,4.89343874505721e-05,1.0,0.3767918050289154,0.6362179787230258
776,4.8770467401482165e-05,1.0,0.37685203552246094,0.6362179787230258
777,4.860152330365963e-05,1.0,0.3769368827342987,0.6362179787230258
778,4.844231079914607e-05,1.0,0.37707075476646423,0.6362179787230258
779,4.8282752686645836e-05,1.0,0.3771677315235138,0.6432174239326982
780,4.811504186363891e-05,1.0,0.37721189856529236,0.6432174239326982
781,4.795512359123677e-05,1.0,0.3772815465927124,0.6432174239326982
782,4.779618393513374e-05,1.0,0.37735357880592346,0.6432174239326982
783,4.763280594488606e-05,1.0,0.3774081766605377,0.6432174239326982
784,4.7475135943386704e-05,1.0,0.3774975836277008,0.6432174239326982
785,4.731743683805689e-05,1.0,0.3776172995567322,0.6432174239326982
786,4.715553222922608e-05,1.0,0.37767961621284485,0.6432174239326982
787,4.6999004553072155e-05,1.0,0.3777315020561218,0.6432174239326982
788,4.683978113462217e-05,1.0,0.3778020441532135,0.6432174239326982
789,4.668327892431989e-05,1.0,0.37788453698158264,0.6432174239326982
790,4.652814459404908e-05,1.0,0.3779968321323395,0.6432174239326982
791,4.637338861357421e-05,1.0,0.37808677554130554,0.6432174239326982
792,4.622117194230668e-05,1.0,0.37815791368484497,0.6432174239326982
793,4.6068184019532055e-05,1.0,0.37821900844573975,0.6432174239326982
794,4.591565084410831e-05,1.0,0.3782989978790283,0.6432174239326982
795,4.5766453695250675e-05,1.0,0.3784107267856598,0.6432174239326982
796,4.561391688184813e-05,1.0,0.3784743845462799,0.6432174239326982
797,4.545945557765663e-05,1.0,0.378515362739563,0.6432174239326982
798,4.5309599954634905e-05,1.0,0.3785645365715027,0.6432174239326982
799,4.515929686021991e-05,1.0,0.3786286413669586,0.6432174239326982
800,4.501235162024386e-05,1.0,0.3786983788013458,0.6432174239326982
801,4.486219404498115e-05,1.0,0.37876975536346436,0.6432174239326982
802,4.471539432415739e-05,1.0,0.37885403633117676,0.6432174239326982
803,4.4564389099832624e-05,1.0,0.3789609968662262,0.6432174239326982
804,4.4419670302886516e-05,1.0,0.37905994057655334,0.6432174239326982
805,4.427526073413901e-05,1.0,0.37916624546051025,0.6432174239326982
806,4.412831913214177e-05,1.0,0.3792734146118164,0.6432174239326982
807,4.398414239403792e-05,1.0,0.37937411665916443,0.6432174239326982
808,4.383861960377544e-05,1.0,0.3794540464878082,0.6432174239326982
809,4.36950649600476e-05,1.0,0.37954944372177124,0.6432174239326982
810,4.3555388401728123e-05,1.0,0.3796166181564331,0.6432174239326982
811,4.3410545913502574e-05,1.0,0.3796948492527008,0.6432174239326982
812,4.327279748395085e-05,1.0,0.3797992765903473,0.6432174239326982
813,4.3127816752530634e-05,1.0,0.3798553943634033,0.6432174239326982
814,4.298522253520787e-05,1.0,0.3799201250076294,0.6432174239326982
815,4.284736860427074e-05,1.0,0.37999945878982544,0.6432174239326982
816,4.270928184268996e-05,1.0,0.3800930082798004,0.6293285350438093
817,4.256874672137201e-05,1.0,0.38016390800476074,0.6293285350438093
818,4.242590512149036e-05,1.0,0.38020771741867065,0.6293285350438093
819,4.229257319821045e-05,1.0,0.38029855489730835,0.6293285350438093
820,4.2157531424891204e-05,1.0,0.38041311502456665,0.6293285350438093
821,4.2018953536171466e-05,1.0,0.380502849817276,0.6293285350438093
822,4.18814888689667e-05,1.0,0.38056516647338867,0.6293285350438093
823,4.1745959606487304e-05,1.0,0.3806566596031189,0.6292599285959612
824,4.161128890700638e-05,1.0,0.38075241446495056,0.6293285350438093
825,4.1477702325209975e-05,1.0,0.38082054257392883,0.6292599285959612
826,4.1343504562973976e-05,1.0,0.3808881938457489,0.6292599285959612
827,4.1211947973351926e-05,1.0,0.3809591829776764,0.6293285350438093
828,4.107344648218714e-05,1.0,0.3810133635997772,0.6293285350438093
829,4.0945731598185375e-05,1.0,0.38107234239578247,0.6292599285959612
830,4.0812810766510665e-05,1.0,0.3811483681201935,0.6292599285959612
831,4.068609996465966e-05,1.0,0.38124221563339233,0.6292599285959612
832,4.054784949403256e-05,1.0,0.381293922662735,0.6292599285959612
833,4.042158252559602e-05,1.0,0.3813970386981964,0.6292599285959612
834,4.029140472994186e-05,1.0,0.3815293312072754,0.6292599285959612
835,4.016093589598313e-05,1.0,0.3816138505935669,0.6292599285959612
836,4.003360663773492e-05,1.0,0.38169240951538086,0.6292599285959612
837,3.990434925071895e-05,1.0,0.3817901909351349,0.6292599285959612
838,3.9781407394912094e-05,1.0,0.3818652331829071,0.6292599285959612
839,3.964904317399487e-05,1.0,0.3819407820701599,0.6292599285959612
840,3.952335100620985e-05,1.0,0.3820294439792633,0.6292522573931609
841,3.939662565244362e-05,1.0,0.38209477066993713,0.6292128907113947
842,3.927621219190769e-05,1.0,0.3821648955345154,0.6292128907113947
843,3.914464105037041e-05,1.0,0.38225334882736206,0.6292128907113947
844,3.9020269468892366e-05,1.0,0.38234466314315796,0.6292128907113947
845,3.8900998333701864e-05,1.0,0.3824359178543091,0.6292522573931609
846,3.877173730870709e-05,1.0,0.3824998438358307,0.6292128907113947
847,3.865078542730771e-05,1.0,0.3825756311416626,0.6292128907113947
848,3.852898225886747e-05,1.0,0.3826543092727661,0.6292128907113947
849,3.840432327706367e-05,1.0,0.382735937833786,0.6292128907113947
850,3.828053377219476e-05,1.0,0.38280555605888367,0.6292128907113947
851,3.816102253040299e-05,1.0,0.38290295004844666,0.6292128907113947
852,3.80412457161583e-05,1.0,0.3829940855503082,0.6292522573931609
853,3.791856943280436e-05,1.0,0.3830561935901642,0.6292522573931609
854,3.7803780287504196e-05,1.0,0.38311395049095154,0.6292128907113947
855,3.768289025174454e-05,1.0,0.38318198919296265,0.6292128907113947
856,3.756550722755492e-05,1.0,0.38326287269592285,0.6292128907113947
857,3.744251444004476e-05,1.0,0.38333284854888916,0.6292522573931609
858,3.7327401514630765e-05,1.0,0.3834097385406494,0.6292522573931609
859,3.7213118048384786e-05,1.0,0.38348475098609924,0.6292128907113947
860,3.7094047002028674e-05,1.0,0.38351431488990784,0.6292128907113947
861,3.697421925608069e-05,1.0,0.38358762860298157,0.6292128907113947
862,3.686093259602785e-05,1.0,0.3836972117424011,0.6292128907113947
863,3.6745557736139745e-05,1.0,0.3838331997394562,0.6292128907113947
864,3.6630823160521686e-05,1.0,0.38394680619239807,0.6292522573931609
865,3.651269798865542e-05,1.0,0.38400378823280334,0.6292128907113947
866,3.6400771932676435e-05,1.0,0.3840586245059967,0.6292128907113947
867,3.6286175600253046e-05,1.0,0.3841414153575897,0.6292128907113947
868,3.6178098525851965e-05,1.0,0.3842509686946869,0.6292128907113947
869,3.6061501305084676e-05,1.0,0.3842839300632477,0.6292128907113947
870,3.5947807191405445e-05,1.0,0.38433635234832764,0.6292128907113947
871,3.583601210266352e-05,1.0,0.384409099817276,0.6292128907113947
872,3.571928755263798e-05,1.0,0.38450101017951965,0.6292128907113947
873,3.560918412404135e-05,1.0,0.3845743238925934,0.6292128907113947
874,3.5498058423399925e-05,1.0,0.38463351130485535,0.6292128907113947
875,3.5387216485105455e-05,1.0,0.3847149610519409,0.6292128907113947
876,3.527561784721911e-05,1.0,0.384775310754776,0.6292128907113947
877,3.5170185583410785e-05,1.0,0.3848394751548767,0.6292128907113947
878,3.50575937773101e-05,1.0,0.38491442799568176,0.6292128907113947
879,3.494979682727717e-05,1.0,0.3849915564060211,0.6292128907113947
880,3.484005719656125e-05,1.0,0.38507792353630066,0.6292128907113947
881,3.4734646760625765e-05,1.0,0.3851868808269501,0.6292128907113947
882,3.462715903879143e-05,1.0,0.38528871536254883,0.6292128907113947
883,3.4520504414103925e-05,1.0,0.38537392020225525,0.6292128907113947
884,3.4415705158608034e-05,1.0,0.38547125458717346,0.6292128907113947
885,3.430628567002714e-05,1.0,0.3855314552783966,0.6292128907113947
886,3.420134089537896e-05,1.0,0.38559260964393616,0.6292128907113947
887,3.40965561917983e-05,1.0,0.3856421411037445,0.6292128907113947
888,3.398773696972057e-05,1.0,0.38572755455970764,0.6292128907113947
889,3.3887823519762605e-05,1.0,0.3858148157596588,0.6292128907113947
890,3.377877874299884e-05,1.0,0.3858749568462372,0.6292128907113947
891,3.367710451129824e-05,1.0,0.3859502077102661,0.6292128907113947
892,3.357309105922468e-05,1.0,0.3860185444355011,0.6292128907113947
893,3.346401354065165e-05,1.0,0.386083722114563,0.6292128907113947
894,3.336242298246361e-05,1.0,0.38612493872642517,0.6292128907113947
895,3.326321893837303e-05,1.0,0.38620027899742126,0.6292128907113947
896,3.316016955068335e-05,1.0,0.38628220558166504,0.6292128907113947
897,3.30548282363452e-05,1.0,0.38633623719215393,0.6292128907113947
898,3.295606802566908e-05,1.0,0.3863945007324219,0.6292128907113947
899,3.285195998614654e-05,1.0,0.3864668309688568,0.6292128907113947
900,3.275499329902232e-05,1.0,0.38653257489204407,0.6292128907113947
901,3.2651681976858526e-05,1.0,0.38660430908203125,0.6292128907113947
902,3.255195406381972e-05,1.0,0.38669875264167786,0.6292128907113947
903,3.2450589060317725e-05,1.0,0.38681837916374207,0.6291804020824149
904,3.235198892070912e-05,1.0,0.3869081437587738,0.6291804020824149
905,3.2251307857222855e-05,1.0,0.38695770502090454,0.6291804020824149
906,3.2155152439372614e-05,1.0,0.3870496153831482,0.6291804020824149
907,3.205637040082365e-05,1.0,0.3871361315250397,0.6291804020824149
908,3.195676617906429e-05,1.0,0.3872336745262146,0.6291804020824149
909,3.185725654475391e-05,1.0,0.38732731342315674,0.6291804020824149
910,3.176010068273172e-05,1.0,0.38736334443092346,0.6291804020824149
911,3.166876922477968e-05,1.0,0.38744115829467773,0.6291804020824149
912,3.156991442665458e-05,1.0,0.387514591217041,0.6292197687641811
913,3.147043025819585e-05,1.0,0.3875901997089386,0.6292197687641811
914,3.13732962240465e-05,1.0,0.3876676857471466,0.6292197687641811
915,3.1275656510842964e-05,1.0,0.3877786695957184,0.6292197687641811
916,3.118146560154855e-05,1.0,0.3878755569458008,0.6292197687641811
917,3.108601595158689e-05,1.0,0.38796013593673706,0.6292197687641811
918,3.099428431596607e-05,1.0,0.3880462050437927,0.6291804020824149
919,3.090170866926201e-05,1.0,0.38811370730400085,0.6292221601017997
920,3.0805302230874076e-05,1.0,0.38817843794822693,0.6292221601017997
921,3.070917591685429e-05,1.0,0.3882036507129669,0.6292221601017997
922,3.061707320739515e-05,1.0,0.3882364332675934,0.6291827934200335
923,3.0525989132001996e-05,1.0,0.3883439302444458,0.6291827934200335
924,3.0433286156039685e-05,1.0,0.38845911622047424,0.6292221601017997
925,3.0339228032971732e-05,1.0,0.3885404169559479,0.6292221601017997
926,3.0250794225139543e-05,1.0,0.38863226771354675,0.6292221601017997
927,3.0157723813317716e-05,1.0,0.3887297213077545,0.6292221601017997
928,3.0062954465392977e-05,1.0,0.3887825012207031,0.6292221601017997
929,2.9972539778100327e-05,1.0,0.38884031772613525,0.6292221601017997
930,2.9881584850954823e-05,1.0,0.3888908326625824,0.6292221601017997
931,2.979081909870729e-05,1.0,0.38889625668525696,0.6292221601017997
932,2.9705646738875657e-05,1.0,0.3889369070529938,0.6292221601017997
933,2.961144309665542e-05,1.0,0.3889962136745453,0.6291827934200335
934,2.9523651392082684e-05,1.0,0.3890431821346283,0.6291827934200335
935,2.943472827610094e-05,1.0,0.389149010181427,0.6292221601017997
936,2.9345812436076812e-05,1.0,0.38927391171455383,0.6292221601017997
937,2.9254753826535307e-05,1.0,0.38935190439224243,0.6292221601017997
938,2.9168859327910468e-05,1.0,0.38943353295326233,0.6292221601017997
939,2.908042006311007e-05,1.0,0.38951459527015686,0.6292221601017997
940,2.899532591982279e-05,1.0,0.38960710167884827,0.6292186483726243
941,2.8905149520142004e-05,1.0,0.38967543840408325,0.6292221601017997
942,2.8820122679462656e-05,1.0,0.38972795009613037,0.6292100588916787
943,2.8730737540172413e-05,1.0,0.389813095331192,0.6292100588916787
944,2.864766793209128e-05,1.0,0.3899100720882416,0.6292065471625032
945,2.856523497030139e-05,1.0,0.3899660110473633,0.6292100588916787
946,2.84760826616548e-05,1.0,0.3900504410266876,0.6292100588916787
947,2.8387086786096916e-05,1.0,0.3901123106479645,0.6292065471625032
948,2.8306341846473515e-05,1.0,0.3901980221271515,0.6292065471625032
949,2.821932139340788e-05,1.0,0.3902815282344818,0.6292065471625032
950,2.8135040338383988e-05,1.0,0.39035719633102417,0.6292065471625032
951,2.8048983949702233e-05,1.0,0.39041903614997864,0.6291671804807372
952,2.7965637855231762e-05,1.0,0.39049121737480164,0.6291671804807372
953,2.7882360882358626e-05,1.0,0.39054691791534424,0.6291671804807372
954,2.7800600946648046e-05,1.0,0.3906027674674988,0.6291671804807372
955,2.7715808755601756e-05,1.0,0.39064398407936096,0.6291671804807372
956,2.763597331068013e-05,1.0,0.39069119095802307,0.6291671804807372
957,2.7555663109524176e-05,1.0,0.39078256487846375,0.6291671804807372
958,2.747357211774215e-05,1.0,0.3908848166465759,0.6291671804807372
959,2.738816328928806e-05,1.0,0.39096736907958984,0.6291671804807372
960,2.7308309654472396e-05,1.0,0.391065388917923,0.6291671804807372
961,2.7223795768804848e-05,1.0,0.3911493420600891,0.6291671804807372
962,2.714416041271761e-05,1.0,0.3912273645401001,0.6291671804807372
963,2.7064146706834435e-05,1.0,0.3913027346134186,0.6291671804807372
964,2.6987629098584875e-05,1.0,0.39134493470191956,0.6291671804807372
965,2.6906549464911222e-05,1.0,0.3914012908935547,0.6291671804807372
966,2.6825113309314474e-05,1.0,0.39148521423339844,0.6291671804807372
967,2.6748135496745817e-05,1.0,0.3915375769138336,0.6291671804807372
968,2.6667754355003126e-05,1.0,0.39159807562828064,0.6291671804807372
969,2.658441007952206e-05,1.0,0.3916482925415039,0.6291671804807372
970,2.6505334972171113e-05,1.0,0.3917120695114136,0.6302125493702184
971,2.6425746909808367e-05,1.0,0.3917802572250366,0.6302125493702184
972,2.634683551150374e-05,1.0,0.3918933570384979,0.6302125493702184
973,2.6272602553945035e-05,1.0,0.3919888734817505,0.6302125493702184
974,2.6194806196144782e-05,1.0,0.392062783241272,0.6302125493702184
975,2.611792297102511e-05,1.0,0.39213407039642334,0.6302125493702184
976,2.6040881493827328e-05,1.0,0.3922077417373657,0.6302125493702184
977,2.5960562197724357e-05,1.0,0.3922888934612274,0.6302125493702184
978,2.588304596429225e-05,1.0,0.39236584305763245,0.6302125493702184
979,2.5809102226048708e-05,1.0,0.3924418091773987,0.6302125493702184
980,2.5734798327903263e-05,1.0,0.3925333023071289,0.6302125493702184
981,2.5659850507508963e-05,1.0,0.3926220238208771,0.6302519160519845
982,2.558651613071561e-05,1.0,0.39271116256713867,0.6302519160519845
983,2.5510484192636795e-05,1.0,0.39280158281326294,0.6302519160519845
984,2.543700611568056e-05,1.0,0.3928995132446289,0.6302519160519845
985,2.536126339691691e-05,1.0,0.3930075168609619,0.6302519160519845
986,2.5286435629823245e-05,1.0,0.39303791522979736,0.6302519160519845
987,2.5209265004377812e-05,1.0,0.39307138323783875,0.6302125493702184
988,2.5137795091723092e-05,1.0,0.39313751459121704,0.6302125493702184
989,2.5063727662200108e-05,1.0,0.39323633909225464,0.6302125493702184
990,2.499171932868194e-05,1.0,0.3932816982269287,0.6302125493702184
991,2.491816849214956e-05,1.0,0.3933372497558594,0.6302125493702184
992,2.484107608324848e-05,1.0,0.39339110255241394,0.6302125493702184
993,2.4772703909548e-05,1.0,0.3935006856918335,0.6302125493702184
994,2.469514583935961e-05,1.0,0.393583208322525,0.6302519160519845
995,2.4620938347652555e-05,1.0,0.3936766982078552,0.6302519160519845
996,2.455254980304744e-05,1.0,0.39378252625465393,0.6302519160519845
997,2.4481887521687895e-05,1.0,0.393845796585083,0.6302519160519845
998,2.441199467284605e-05,1.0,0.3938869535923004,0.6302125493702184
999,2.4344997655134648e-05,1.0,0.3939782381057739,0.6302125493702184
