,loss,recall,val_loss,val_recall
0,0.14312538504600525,0.5720000267028809,0.10958519577980042,0.5837777853012085
1,0.10757814347743988,0.5839999914169312,0.10600840300321579,0.5837777853012085
2,0.1050519123673439,0.5839999914169312,0.10376346111297607,0.5837777853012085
3,0.10292798280715942,0.5839999914169312,0.10094765573740005,0.5837777853012085
4,0.09930135309696198,0.5839999914169312,0.09675572067499161,0.5828889012336731
5,0.09435389935970306,0.5740000009536743,0.09007511287927628,0.5775555372238159
6,0.08595538139343262,0.6060000061988831,0.08021187037229538,0.7704444527626038
7,0.07559455186128616,0.7860000133514404,0.06898780912160873,0.843999981880188
8,0.06487754732370377,0.8420000076293945,0.059289123862981796,0.8500000238418579
9,0.05626615881919861,0.8539999723434448,0.05222426354885101,0.8560000061988831
10,0.05011414736509323,0.8600000143051147,0.04738624393939972,0.863111138343811
11,0.04615053907036781,0.8560000061988831,0.04428199306130409,0.8602222204208374
12,0.043349482119083405,0.8619999885559082,0.041992705315351486,0.863777756690979
13,0.0412575863301754,0.8659999966621399,0.040306441485881805,0.8633333444595337
14,0.03971756622195244,0.8659999966621399,0.03889656811952591,0.8668888807296753
15,0.038538213819265366,0.8679999709129333,0.03770068660378456,0.8688889145851135
16,0.03729071840643883,0.8700000047683716,0.03672165423631668,0.8691111207008362
17,0.03621749207377434,0.8700000047683716,0.03581690043210983,0.8722222447395325
18,0.03539391607046127,0.8759999871253967,0.03507800027728081,0.8711110949516296
19,0.03462579473853111,0.878000020980835,0.0343162976205349,0.8735555410385132
20,0.0340183824300766,0.8820000290870667,0.033835481852293015,0.8740000128746033
21,0.03341405466198921,0.8820000290870667,0.033185239881277084,0.8766666650772095
22,0.03287409618496895,0.8820000290870667,0.03271838277578354,0.8768888711929321
23,0.032395489513874054,0.8840000033378601,0.03246079757809639,0.8782222270965576
24,0.031979866325855255,0.8840000033378601,0.0320078581571579,0.8795555830001831
25,0.03164251148700714,0.8840000033378601,0.03175846487283707,0.8793333172798157
26,0.03129137307405472,0.878000020980835,0.031496692448854446,0.8782222270965576
27,0.030970023944973946,0.8820000290870667,0.03091912530362606,0.8840000033378601
28,0.03068166971206665,0.8820000290870667,0.030830392614006996,0.8804444670677185
29,0.030262555927038193,0.8840000033378601,0.03049953281879425,0.8857777714729309
30,0.030055703595280647,0.8880000114440918,0.030405476689338684,0.8831111192703247
31,0.029863307252526283,0.8840000033378601,0.029976297169923782,0.8851110935211182
32,0.029674794524908066,0.8859999775886536,0.029863566160202026,0.88355553150177
33,0.029372436925768852,0.8859999775886536,0.029593000188469887,0.8886666893959045
34,0.029098615050315857,0.8859999775886536,0.02948148176074028,0.8859999775886536
35,0.02901339717209339,0.8920000195503235,0.02957163192331791,0.8837777972221375
36,0.02904825657606125,0.8820000290870667,0.02916574478149414,0.8855555653572083
37,0.028699250891804695,0.8899999856948853,0.02931351400911808,0.8831111192703247
38,0.028486255556344986,0.8939999938011169,0.029062923043966293,0.8855555653572083
39,0.028304550796747208,0.8899999856948853,0.028869744390249252,0.8864444494247437
40,0.028150761500000954,0.8899999856948853,0.0286053866147995,0.8877778053283691
41,0.028012430295348167,0.8880000114440918,0.02861936390399933,0.8875555396080017
42,0.027748510241508484,0.8960000276565552,0.028421543538570404,0.8888888955116272
43,0.027746444568037987,0.8920000195503235,0.028282485902309418,0.8897777795791626
44,0.027595888823270798,0.9020000100135803,0.02857358194887638,0.8884444236755371
45,0.027563035488128662,0.8939999938011169,0.028413336724042892,0.8880000114440918
46,0.02725333534181118,0.8980000019073486,0.028051869943737984,0.8899999856948853
47,0.027170315384864807,0.8999999761581421,0.02810027450323105,0.8891111016273499
48,0.026999078691005707,0.8960000276565552,0.027957221493124962,0.890666663646698
49,0.027219856157898903,0.8999999761581421,0.02828114479780197,0.8871111273765564
50,0.027016151696443558,0.8999999761581421,0.027909474447369576,0.8893333077430725
51,0.026743309572339058,0.8939999938011169,0.027684668079018593,0.8922222256660461
52,0.026717398315668106,0.8980000019073486,0.02772061713039875,0.890666663646698
53,0.026719527319073677,0.8980000019073486,0.027694450691342354,0.8904444575309753
54,0.02656814455986023,0.9039999842643738,0.027666909620165825,0.8913333415985107
55,0.026381125673651695,0.8960000276565552,0.027407774701714516,0.8928889036178589
56,0.026248639449477196,0.8939999938011169,0.027547499164938927,0.8924444317817688
57,0.026192769408226013,0.9020000100135803,0.02750069834291935,0.8922222256660461
58,0.02606319822371006,0.8999999761581421,0.02727474831044674,0.8937777876853943
59,0.026020236313343048,0.9020000100135803,0.027163125574588776,0.8937777876853943
60,0.026059046387672424,0.8980000019073486,0.027015013620257378,0.895111083984375
61,0.025808952748775482,0.9039999842643738,0.027182534337043762,0.8939999938011169
62,0.025760911405086517,0.8960000276565552,0.026996055617928505,0.8964444398880005
63,0.025611385703086853,0.9020000100135803,0.02728118747472763,0.8933333158493042
64,0.025659047067165375,0.9020000100135803,0.0270644873380661,0.8962222337722778
65,0.025413095951080322,0.9020000100135803,0.026873435825109482,0.8948888778686523
66,0.025344079360365868,0.9020000100135803,0.026712464168667793,0.8993333578109741
67,0.02522404119372368,0.8999999761581421,0.027028799057006836,0.8946666717529297
68,0.025280756875872612,0.9020000100135803,0.026919472962617874,0.8975555300712585
69,0.025050535798072815,0.8999999761581421,0.026684151962399483,0.8997777700424194
70,0.02504502795636654,0.9039999842643738,0.026893291622400284,0.8960000276565552
71,0.024985231459140778,0.8999999761581421,0.0264815092086792,0.9013333320617676
72,0.024916525930166245,0.9039999842643738,0.02658769302070141,0.8995555639266968
73,0.024664388969540596,0.9039999842643738,0.02647377736866474,0.9006666541099548
74,0.02471979148685932,0.8999999761581421,0.026435060426592827,0.9006666541099548
75,0.024591876193881035,0.906000018119812,0.026353776454925537,0.9008888602256775
76,0.024540076032280922,0.9020000100135803,0.026110168546438217,0.9046666622161865
77,0.024491770192980766,0.9100000262260437,0.02626352198421955,0.9008888602256775
78,0.02426120638847351,0.9039999842643738,0.026441745460033417,0.9002222418785095
79,0.024235934019088745,0.8999999761581421,0.02598661184310913,0.9042222499847412
80,0.024034971371293068,0.9120000004768372,0.026342568919062614,0.9011111259460449
81,0.024136800318956375,0.8999999761581421,0.02600281313061714,0.9031111001968384
82,0.02397211641073227,0.9079999923706055,0.02611522004008293,0.9020000100135803
83,0.023889711126685143,0.9079999923706055,0.026227589696645737,0.8999999761581421
84,0.023928049951791763,0.9020000100135803,0.02586827613413334,0.9037777781486511
85,0.023726223036646843,0.9079999923706055,0.026272647082805634,0.9004444479942322
86,0.023640919476747513,0.9079999923706055,0.02591746114194393,0.9026666879653931
87,0.023598352447152138,0.906000018119812,0.02593904174864292,0.902222216129303
88,0.023465096950531006,0.9079999923706055,0.025798890739679337,0.9042222499847412
89,0.02336619794368744,0.9139999747276306,0.025704186409711838,0.9048888683319092
90,0.02325165830552578,0.9120000004768372,0.02568361908197403,0.9042222499847412
91,0.02315409667789936,0.9120000004768372,0.02560030110180378,0.9051111340522766
92,0.02317066118121147,0.9179999828338623,0.025439264252781868,0.9084444642066956
93,0.022980358451604843,0.9139999747276306,0.02569567784667015,0.903333306312561
94,0.022874128073453903,0.9139999747276306,0.02544112503528595,0.9053333401679993
95,0.022899996489286423,0.9139999747276306,0.025685328990221024,0.903333306312561
96,0.02271943725645542,0.9100000262260437,0.025181235745549202,0.9073333144187927
97,0.02254292741417885,0.9200000166893005,0.025657013058662415,0.9028888940811157
98,0.022502638399600983,0.9139999747276306,0.025210147723555565,0.9057777523994446
99,0.022415712475776672,0.9160000085830688,0.025523070245981216,0.9044444561004639
100,0.022313015535473824,0.9139999747276306,0.025130053982138634,0.9077777862548828
101,0.022141680121421814,0.9200000166893005,0.025077929720282555,0.9075555801391602
102,0.02207292802631855,0.9160000085830688,0.025202902033925056,0.9035555720329285
103,0.022029312327504158,0.9139999747276306,0.025083405897021294,0.9068889021873474
104,0.021842017769813538,0.9179999828338623,0.025108106434345245,0.906000018119812
105,0.021813075989484787,0.921999990940094,0.02517521381378174,0.9048888683319092
106,0.021679291501641273,0.9200000166893005,0.02508990839123726,0.9051111340522766
107,0.02150253765285015,0.9200000166893005,0.024680275470018387,0.9091110825538635
108,0.021546436473727226,0.9179999828338623,0.025113539770245552,0.9046666622161865
109,0.02125481516122818,0.9200000166893005,0.024652183055877686,0.910444438457489
110,0.021226957440376282,0.921999990940094,0.025004209950566292,0.9055555462837219
111,0.021160967648029327,0.9200000166893005,0.024585817009210587,0.9082221984863281
112,0.021134028211236,0.9179999828338623,0.024771492928266525,0.9062222242355347
113,0.02091766707599163,0.9200000166893005,0.02476765215396881,0.9064444303512573
114,0.02071509324014187,0.9200000166893005,0.024525906890630722,0.9082221984863281
115,0.020622387528419495,0.9240000247955322,0.024570990353822708,0.9077777862548828
116,0.02053503692150116,0.9200000166893005,0.024481752887368202,0.9102222323417664
117,0.020452164113521576,0.9259999990463257,0.024324381723999977,0.9084444642066956
118,0.020432105287909508,0.921999990940094,0.024780968204140663,0.9064444303512573
119,0.020247315987944603,0.9259999990463257,0.02437719516456127,0.9082221984863281
120,0.020204924046993256,0.9259999990463257,0.02421717345714569,0.9111111164093018
121,0.020098712295293808,0.9240000247955322,0.02417648211121559,0.9102222323417664
122,0.019952626898884773,0.9240000247955322,0.02429431863129139,0.9077777862548828
123,0.019923102110624313,0.9279999732971191,0.024082835763692856,0.9124444723129272
124,0.02000119909644127,0.9240000247955322,0.0241612009704113,0.9115555286407471
125,0.01956125721335411,0.9240000247955322,0.02395034022629261,0.9133333563804626
126,0.019631609320640564,0.9259999990463257,0.02408425696194172,0.9091110825538635
127,0.019529102370142937,0.9259999990463257,0.023970628157258034,0.9120000004768372
128,0.019557969644665718,0.9279999732971191,0.023884713649749756,0.9157778024673462
129,0.019411975517868996,0.9279999732971191,0.023977018892765045,0.9102222323417664
130,0.01932472363114357,0.9259999990463257,0.024075303226709366,0.9084444642066956
131,0.019212136045098305,0.921999990940094,0.023914523422718048,0.9100000262260437
132,0.019018804654479027,0.9240000247955322,0.02367565594613552,0.9117777943611145
133,0.018985500559210777,0.9300000071525574,0.023675616830587387,0.9126666784286499
134,0.018929852172732353,0.9300000071525574,0.02383066713809967,0.9106666445732117
135,0.018770573660731316,0.9279999732971191,0.023571060970425606,0.9126666784286499
136,0.01862616091966629,0.9300000071525574,0.02352600358426571,0.9131110906600952
137,0.01853162795305252,0.9300000071525574,0.02365170046687126,0.9128888845443726
138,0.018605321645736694,0.9259999990463257,0.02343609556555748,0.9184444546699524
139,0.018599489703774452,0.9279999732971191,0.023602915927767754,0.914222240447998
140,0.01835605688393116,0.9319999814033508,0.023447489365935326,0.9160000085830688
141,0.018271462991833687,0.9319999814033508,0.02364996075630188,0.9131110906600952
142,0.018241340294480324,0.9300000071525574,0.0234159454703331,0.9173333048820496
143,0.018146028742194176,0.9300000071525574,0.023437391966581345,0.9133333563804626
144,0.018239250406622887,0.9300000071525574,0.023775173351168633,0.9133333563804626
145,0.018161367624998093,0.9300000071525574,0.023293670266866684,0.9200000166893005
146,0.017942329868674278,0.9340000152587891,0.023363320156931877,0.9162222146987915
147,0.017811452969908714,0.9300000071525574,0.02341122180223465,0.9151111245155334
148,0.017786849290132523,0.9440000057220459,0.02348771132528782,0.914222240447998
149,0.017753321677446365,0.9440000057220459,0.023277170956134796,0.9166666865348816
150,0.017897846177220345,0.9300000071525574,0.023415014147758484,0.9162222146987915
151,0.017581986263394356,0.9399999976158142,0.023247648030519485,0.9182222485542297
152,0.017537986859679222,0.9340000152587891,0.02306450344622135,0.918666660785675
153,0.01750548556447029,0.9319999814033508,0.02318759635090828,0.9182222485542297
154,0.017366046085953712,0.9419999718666077,0.023106083273887634,0.9184444546699524
155,0.01743839867413044,0.9340000152587891,0.02305075153708458,0.9197777509689331
156,0.017655178904533386,0.9300000071525574,0.023394517600536346,0.9157778024673462
157,0.017402252182364464,0.9359999895095825,0.023072032257914543,0.9197777509689331
158,0.01718023605644703,0.9440000057220459,0.023016229271888733,0.9191111326217651
159,0.017213955521583557,0.9319999814033508,0.022992081940174103,0.918666660785675
160,0.0170969907194376,0.949999988079071,0.023007066920399666,0.9200000166893005
161,0.017067458480596542,0.9419999718666077,0.022935807704925537,0.9191111326217651
162,0.016890818253159523,0.9440000057220459,0.022902628406882286,0.9215555787086487
163,0.016890624538064003,0.9340000152587891,0.022982941940426826,0.9191111326217651
164,0.016881313174962997,0.9459999799728394,0.02303791046142578,0.9182222485542297
165,0.01674174703657627,0.9359999895095825,0.022816117852926254,0.9197777509689331
166,0.0167408250272274,0.9419999718666077,0.022840088233351707,0.9200000166893005
167,0.01663752645254135,0.9440000057220459,0.022901128977537155,0.9197777509689331
168,0.016798747703433037,0.9399999976158142,0.02298976294696331,0.9206666946411133
169,0.016581112518906593,0.9419999718666077,0.0227966345846653,0.9215555787086487
170,0.016537925228476524,0.9459999799728394,0.02300296537578106,0.918666660785675
171,0.016451476141810417,0.9440000057220459,0.022725777700543404,0.9213333129882812
172,0.0163766797631979,0.9440000057220459,0.022773034870624542,0.9208889007568359
173,0.016375482082366943,0.9459999799728394,0.022963952273130417,0.9197777509689331
174,0.016445733606815338,0.9459999799728394,0.022691635414958,0.9231111407279968
175,0.01644793525338173,0.949999988079071,0.02292991429567337,0.9197777509689331
176,0.01630309224128723,0.9419999718666077,0.02277553640305996,0.9217777848243713
177,0.016252005472779274,0.9440000057220459,0.02293175272643566,0.9197777509689331
178,0.01618700474500656,0.9459999799728394,0.02284098230302334,0.9202222228050232
179,0.016261804848909378,0.9459999799728394,0.02265290543437004,0.9231111407279968
180,0.016113419085741043,0.9459999799728394,0.022797981277108192,0.9202222228050232
181,0.01610933057963848,0.9440000057220459,0.022631974890828133,0.9233333468437195
182,0.01599200628697872,0.9480000138282776,0.022669630125164986,0.9217777848243713
183,0.016028713434934616,0.9440000057220459,0.022564465180039406,0.9228888750076294
184,0.015902139246463776,0.949999988079071,0.02263209968805313,0.9228888750076294
185,0.01587642729282379,0.9480000138282776,0.022601883858442307,0.9217777848243713
186,0.01580026187002659,0.9440000057220459,0.022537946701049805,0.9231111407279968
187,0.0157349593937397,0.9580000042915344,0.022511804476380348,0.9231111407279968
188,0.01575099118053913,0.9480000138282776,0.02271704375743866,0.9208889007568359
189,0.015627238899469376,0.949999988079071,0.022463329136371613,0.9222221970558167
190,0.01560147199779749,0.9459999799728394,0.02253453992307186,0.921999990940094
191,0.015497701242566109,0.9480000138282776,0.02247791737318039,0.9224444627761841
192,0.01551060937345028,0.9520000219345093,0.022455094382166862,0.9222221970558167
193,0.015873750671744347,0.9539999961853027,0.02255145274102688,0.9213333129882812
194,0.01542824599891901,0.9520000219345093,0.022566987201571465,0.9211111068725586
195,0.015449241735041142,0.9520000219345093,0.022522421553730965,0.9226666688919067
196,0.01528226863592863,0.949999988079071,0.022465424612164497,0.9215555787086487
197,0.01528987567871809,0.9480000138282776,0.02234167605638504,0.9233333468437195
198,0.015183255076408386,0.949999988079071,0.022533245384693146,0.9211111068725586
199,0.01514415629208088,0.9539999961853027,0.022443430498242378,0.9217777848243713
200,0.015074093826115131,0.9520000219345093,0.022406427189707756,0.9222221970558167
201,0.01503017172217369,0.9559999704360962,0.02231193333864212,0.9217777848243713
202,0.014966635033488274,0.9459999799728394,0.022527845576405525,0.9208889007568359
203,0.014865981414914131,0.949999988079071,0.022393224760890007,0.9211111068725586
204,0.014761218801140785,0.9520000219345093,0.022388853132724762,0.9224444627761841
205,0.014770044945180416,0.9520000219345093,0.022230112925171852,0.9228888750076294
206,0.014691156335175037,0.9559999704360962,0.022387610748410225,0.9211111068725586
207,0.014643759466707706,0.9539999961853027,0.02250097692012787,0.9195555448532104
208,0.014787651598453522,0.9520000219345093,0.022372908890247345,0.9228888750076294
209,0.014627640135586262,0.9559999704360962,0.022301021963357925,0.9235555529594421
210,0.014482230879366398,0.9559999704360962,0.022253353148698807,0.9237777590751648
211,0.014625750482082367,0.9580000042915344,0.022254841402173042,0.9233333468437195
212,0.014516381546854973,0.9539999961853027,0.02223595790565014,0.9226666688919067
213,0.014347405172884464,0.9620000123977661,0.022302426397800446,0.9231111407279968
214,0.014335201121866703,0.9559999704360962,0.022237803786993027,0.9228888750076294
215,0.01426001824438572,0.9599999785423279,0.022238006815314293,0.9235555529594421
216,0.014158885926008224,0.9580000042915344,0.0221864003688097,0.9235555529594421
217,0.014293724671006203,0.9580000042915344,0.022099681198596954,0.9237777590751648
218,0.014081437140703201,0.9620000123977661,0.022174188867211342,0.9235555529594421
219,0.014067810960114002,0.9599999785423279,0.022325266152620316,0.9226666688919067
220,0.014108069241046906,0.9599999785423279,0.022199206054210663,0.9233333468437195
221,0.014109994284808636,0.9580000042915344,0.022268664091825485,0.9224444627761841
222,0.01414957083761692,0.9620000123977661,0.022270092740654945,0.9224444627761841
223,0.014008155092597008,0.9620000123977661,0.022280002012848854,0.921999990940094
224,0.013949218206107616,0.9599999785423279,0.02215978130698204,0.9237777590751648
225,0.013926872052252293,0.9599999785423279,0.022169513627886772,0.9244444370269775
226,0.0139702707529068,0.9599999785423279,0.0223550982773304,0.921999990940094
227,0.01373042818158865,0.9620000123977661,0.022114375606179237,0.9246666431427002
228,0.013868117704987526,0.9599999785423279,0.022104639559984207,0.9244444370269775
229,0.013946088962256908,0.9620000123977661,0.022250967100262642,0.9217777848243713
230,0.013798430562019348,0.9639999866485596,0.02223442681133747,0.9222221970558167
231,0.013612751848995686,0.9620000123977661,0.02210731990635395,0.9235555529594421
232,0.013782703317701817,0.9620000123977661,0.02225467376410961,0.9222221970558167
233,0.013685292564332485,0.9620000123977661,0.0221122894436121,0.9235555529594421
234,0.013640070334076881,0.9620000123977661,0.022421153262257576,0.9208889007568359
235,0.013653851114213467,0.9639999866485596,0.022142959758639336,0.9233333468437195
236,0.013598722405731678,0.9639999866485596,0.022158274427056313,0.9226666688919067
237,0.013835390098392963,0.9539999961853027,0.02217674069106579,0.9233333468437195
238,0.01337657030671835,0.9639999866485596,0.022060008719563484,0.9237777590751648
239,0.013413936831057072,0.9620000123977661,0.02211219258606434,0.9242222309112549
240,0.013376765884459019,0.9639999866485596,0.02212461270391941,0.9242222309112549
241,0.013349092565476894,0.9620000123977661,0.0221552811563015,0.9235555529594421
242,0.013300905004143715,0.9620000123977661,0.02203710936009884,0.9246666431427002
243,0.013303072191774845,0.9639999866485596,0.02207721583545208,0.9235555529594421
244,0.013235148973762989,0.9639999866485596,0.022130299359560013,0.9233333468437195
245,0.013339545577764511,0.9599999785423279,0.022059615701436996,0.9248889088630676
246,0.013220123015344143,0.9639999866485596,0.022258540615439415,0.921999990940094
247,0.01307718362659216,0.9620000123977661,0.02212252840399742,0.9233333468437195
248,0.013065011240541935,0.9620000123977661,0.022122791036963463,0.9231111407279968
249,0.013113888911902905,0.9639999866485596,0.022203421220183372,0.921999990940094
250,0.013095102272927761,0.9620000123977661,0.02202817052602768,0.9251111149787903
251,0.013007893227040768,0.9639999866485596,0.022158734500408173,0.9228888750076294
252,0.013161716982722282,0.9580000042915344,0.02209434099495411,0.9244444370269775
253,0.012951232492923737,0.9620000123977661,0.022008633241057396,0.9251111149787903
254,0.0129772974178195,0.9620000123977661,0.022008413448929787,0.9253333210945129
255,0.012931245379149914,0.9620000123977661,0.02225036919116974,0.9217777848243713
256,0.012946278788149357,0.9620000123977661,0.022008953616023064,0.9253333210945129
257,0.012888854369521141,0.9639999866485596,0.022235197946429253,0.9213333129882812
258,0.013080346398055553,0.9599999785423279,0.022037332877516747,0.9240000247955322
259,0.012779094278812408,0.9620000123977661,0.0221966914832592,0.9235555529594421
260,0.012746477499604225,0.9620000123977661,0.022082936018705368,0.9228888750076294
261,0.012787687592208385,0.9620000123977661,0.02201651781797409,0.9246666431427002
262,0.012882807292044163,0.9620000123977661,0.02229294180870056,0.9231111407279968
263,0.012643477879464626,0.9620000123977661,0.02207532338798046,0.9242222309112549
264,0.012972752563655376,0.9620000123977661,0.0222804993391037,0.9211111068725586
265,0.012704993598163128,0.9639999866485596,0.022169329226017,0.9224444627761841
266,0.012680953368544579,0.9620000123977661,0.022207386791706085,0.9226666688919067
267,0.012602436356246471,0.9620000123977661,0.0221719928085804,0.9235555529594421
268,0.012640458531677723,0.9639999866485596,0.022213879972696304,0.9231111407279968
269,0.012642575427889824,0.9660000205039978,0.022067280486226082,0.9242222309112549
270,0.012537040747702122,0.9620000123977661,0.022127117961645126,0.9240000247955322
271,0.012523060664534569,0.9660000205039978,0.02207893691956997,0.9246666431427002
272,0.01253131590783596,0.9660000205039978,0.022154569625854492,0.9231111407279968
273,0.012461109086871147,0.9639999866485596,0.022174762561917305,0.9226666688919067
274,0.012469074688851833,0.9620000123977661,0.022083502262830734,0.9248889088630676
275,0.012379400432109833,0.9660000205039978,0.022122681140899658,0.9240000247955322
276,0.01238760631531477,0.9660000205039978,0.02204950526356697,0.9251111149787903
277,0.012463854625821114,0.9639999866485596,0.022002285346388817,0.925777792930603
278,0.012330520898103714,0.9660000205039978,0.022070741280913353,0.9244444370269775
279,0.01233062893152237,0.9660000205039978,0.022117039188742638,0.9226666688919067
280,0.012544472701847553,0.9620000123977661,0.0220499187707901,0.9244444370269775
281,0.01232768315821886,0.9660000205039978,0.02213820442557335,0.9237777590751648
282,0.012326587922871113,0.9639999866485596,0.022157225757837296,0.9244444370269775
283,0.012341584078967571,0.9660000205039978,0.022152889519929886,0.9231111407279968
284,0.012333712540566921,0.9639999866485596,0.022341294214129448,0.9228888750076294
285,0.012224411591887474,0.9639999866485596,0.022051185369491577,0.9242222309112549
286,0.01227080263197422,0.9660000205039978,0.022053902968764305,0.9244444370269775
287,0.012257165275514126,0.9639999866485596,0.02202148549258709,0.925777792930603
288,0.01211611833423376,0.9660000205039978,0.02214021049439907,0.9233333468437195
289,0.012208118103444576,0.9639999866485596,0.022098910063505173,0.925777792930603
290,0.012064122594892979,0.9660000205039978,0.022149793803691864,0.9251111149787903
291,0.012102075852453709,0.9639999866485596,0.022130317986011505,0.9246666431427002
292,0.012048310600221157,0.9660000205039978,0.022177016362547874,0.9240000247955322
293,0.012002434581518173,0.9660000205039978,0.02216283231973648,0.9251111149787903
294,0.012114324606955051,0.9660000205039978,0.02221609838306904,0.9233333468437195
295,0.01196711603552103,0.9639999866485596,0.022191351279616356,0.9248889088630676
296,0.011975199915468693,0.9660000205039978,0.022145770490169525,0.9246666431427002
297,0.011916393414139748,0.9639999866485596,0.022074339911341667,0.9244444370269775
298,0.012129574082791805,0.9660000205039978,0.022142985835671425,0.9242222309112549
299,0.012033472768962383,0.9660000205039978,0.022163640707731247,0.9244444370269775
300,0.011889660730957985,0.9639999866485596,0.022046610713005066,0.9246666431427002
301,0.011920491233468056,0.9660000205039978,0.022191647440195084,0.9235555529594421
302,0.011928466148674488,0.9639999866485596,0.02223205752670765,0.9244444370269775
303,0.01188849937170744,0.9660000205039978,0.021991169080138206,0.925777792930603
304,0.011808573268353939,0.9660000205039978,0.022161278873682022,0.9242222309112549
305,0.011916649527847767,0.9660000205039978,0.022062081843614578,0.9248889088630676
306,0.011847274377942085,0.9639999866485596,0.022136857733130455,0.9248889088630676
307,0.01195297297090292,0.9660000205039978,0.022218020632863045,0.9242222309112549
308,0.01178938988596201,0.9660000205039978,0.02204827591776848,0.9255555272102356
309,0.011818860657513142,0.9660000205039978,0.022128885611891747,0.9244444370269775
310,0.011894403956830502,0.9660000205039978,0.02220800891518593,0.9246666431427002
311,0.011758454144001007,0.9660000205039978,0.022067612037062645,0.9251111149787903
312,0.011846206150949001,0.9660000205039978,0.022172601893544197,0.9235555529594421
313,0.011688399128615856,0.9639999866485596,0.02220282517373562,0.9248889088630676
314,0.011742288246750832,0.9660000205039978,0.02208743430674076,0.9251111149787903
315,0.011865056119859219,0.9660000205039978,0.022258874028921127,0.9248889088630676
316,0.011736955493688583,0.9660000205039978,0.02201758325099945,0.9253333210945129
317,0.011667429469525814,0.9660000205039978,0.022136908024549484,0.9253333210945129
318,0.011645526625216007,0.9660000205039978,0.022091224789619446,0.9253333210945129
319,0.011627337895333767,0.9660000205039978,0.02215447835624218,0.9244444370269775
320,0.0115508409217,0.9660000205039978,0.02208288386464119,0.9251111149787903
321,0.011693300679326057,0.9660000205039978,0.022155700251460075,0.9251111149787903
322,0.011649384163320065,0.9660000205039978,0.022159775719046593,0.9253333210945129
323,0.011578578501939774,0.9660000205039978,0.022212449461221695,0.9242222309112549
324,0.01151245180517435,0.9660000205039978,0.022233733907341957,0.9248889088630676
325,0.011550475843250751,0.9660000205039978,0.022273065522313118,0.9244444370269775
326,0.011526673100888729,0.9660000205039978,0.02222411334514618,0.9246666431427002
327,0.011523018591105938,0.9660000205039978,0.022234702482819557,0.9251111149787903
328,0.011424836702644825,0.9660000205039978,0.022115962579846382,0.9251111149787903
329,0.011406393721699715,0.9660000205039978,0.022237587720155716,0.9246666431427002
330,0.011382538825273514,0.9660000205039978,0.02209649421274662,0.9253333210945129
331,0.011433789506554604,0.9660000205039978,0.02225523069500923,0.9246666431427002
332,0.01138090156018734,0.9660000205039978,0.022184187546372414,0.9251111149787903
333,0.011493382975459099,0.9660000205039978,0.022199396044015884,0.9244444370269775
334,0.01134185679256916,0.9660000205039978,0.02217414230108261,0.9253333210945129
335,0.011398473754525185,0.9660000205039978,0.02205727994441986,0.9248889088630676
336,0.01152300089597702,0.9660000205039978,0.022318407893180847,0.9244444370269775
337,0.011325908824801445,0.9660000205039978,0.022247301414608955,0.9251111149787903
338,0.011380611918866634,0.9660000205039978,0.02220090478658676,0.9251111149787903
339,0.0113548394292593,0.9660000205039978,0.022163817659020424,0.9231111407279968
340,0.011252732016146183,0.9660000205039978,0.022357143461704254,0.9240000247955322
341,0.011317363940179348,0.9660000205039978,0.022099392488598824,0.925777792930603
342,0.011331804096698761,0.9660000205039978,0.022069498896598816,0.9259999990463257
343,0.011264096945524216,0.9639999866485596,0.022310897707939148,0.9242222309112549
344,0.01120024174451828,0.9660000205039978,0.022146260365843773,0.9255555272102356
345,0.011255869641900063,0.9660000205039978,0.022247618064284325,0.9237777590751648
346,0.011296925134956837,0.9660000205039978,0.02216298319399357,0.9240000247955322
347,0.0112968934699893,0.9660000205039978,0.02211616560816765,0.9266666769981384
348,0.0112014664337039,0.9660000205039978,0.022254178300499916,0.9246666431427002
349,0.011191153898835182,0.9660000205039978,0.02223421260714531,0.9251111149787903
350,0.011173774488270283,0.9660000205039978,0.022337371483445168,0.9242222309112549
351,0.011149316094815731,0.9660000205039978,0.022235482931137085,0.9248889088630676
352,0.011112895794212818,0.9660000205039978,0.02209589257836342,0.9255555272102356
353,0.011132939718663692,0.9660000205039978,0.022285204380750656,0.9244444370269775
354,0.011063492856919765,0.9660000205039978,0.02222202904522419,0.9251111149787903
355,0.01107854675501585,0.9660000205039978,0.02237231470644474,0.9237777590751648
356,0.011147432029247284,0.9660000205039978,0.022165654227137566,0.9251111149787903
357,0.011076102033257484,0.9660000205039978,0.022348958998918533,0.9246666431427002
358,0.011035729199647903,0.9660000205039978,0.02216951735317707,0.9244444370269775
359,0.011108046397566795,0.9660000205039978,0.022315846756100655,0.9251111149787903
360,0.01100070308893919,0.9660000205039978,0.02228928543627262,0.9251111149787903
361,0.011015341617166996,0.9660000205039978,0.02222144789993763,0.9251111149787903
362,0.010966465808451176,0.9660000205039978,0.022279808297753334,0.9248889088630676
363,0.01103226374834776,0.9660000205039978,0.02231992781162262,0.9240000247955322
364,0.01104109175503254,0.9660000205039978,0.022398218512535095,0.9235555529594421
365,0.010979664511978626,0.9660000205039978,0.022320471704006195,0.9251111149787903
366,0.010912574827671051,0.9660000205039978,0.022238509729504585,0.9248889088630676
367,0.01103615015745163,0.9660000205039978,0.022393150255084038,0.9235555529594421
368,0.01092423778027296,0.9660000205039978,0.02230958640575409,0.9251111149787903
369,0.010929216630756855,0.9660000205039978,0.022407030686736107,0.9233333468437195
370,0.010999893769621849,0.9660000205039978,0.022230012342333794,0.9253333210945129
371,0.010893678292632103,0.9660000205039978,0.022254278883337975,0.925777792930603
372,0.010985609143972397,0.9660000205039978,0.022396264597773552,0.9242222309112549
373,0.010843636468052864,0.9660000205039978,0.022193755954504013,0.9255555272102356
374,0.010841450653970242,0.9660000205039978,0.022301075980067253,0.9251111149787903
375,0.010891111567616463,0.9639999866485596,0.022624624893069267,0.9244444370269775
376,0.010848283767700195,0.9660000205039978,0.02234766259789467,0.9251111149787903
377,0.010862275026738644,0.9660000205039978,0.02236587554216385,0.9237777590751648
378,0.010820046998560429,0.9660000205039978,0.022256752476096153,0.925777792930603
379,0.01079874113202095,0.9660000205039978,0.022317461669445038,0.9248889088630676
380,0.01076460350304842,0.9660000205039978,0.022312665358185768,0.925777792930603
381,0.010828936472535133,0.9660000205039978,0.022355051711201668,0.9253333210945129
382,0.01086145918816328,0.9660000205039978,0.02231488935649395,0.9244444370269775
383,0.010735467076301575,0.9660000205039978,0.022432580590248108,0.9246666431427002
384,0.01074657030403614,0.9660000205039978,0.022282475605607033,0.9253333210945129
385,0.01073070615530014,0.9660000205039978,0.0223190076649189,0.9246666431427002
386,0.010773412883281708,0.9660000205039978,0.02230714075267315,0.9253333210945129
387,0.010710380040109158,0.9660000205039978,0.02229401469230652,0.925777792930603
388,0.010702052153646946,0.9660000205039978,0.022353045642375946,0.925777792930603
389,0.01074584573507309,0.9660000205039978,0.0222456231713295,0.9246666431427002
390,0.010632219724357128,0.9660000205039978,0.022393902763724327,0.925777792930603
391,0.010802816599607468,0.9660000205039978,0.02231212519109249,0.925777792930603
392,0.010749910958111286,0.9679999947547913,0.022567493841052055,0.9244444370269775
393,0.01069713570177555,0.9679999947547913,0.022164424881339073,0.9262222051620483
394,0.0106719471514225,0.9660000205039978,0.022240646183490753,0.9253333210945129
395,0.010623575188219547,0.9660000205039978,0.022332577034831047,0.9248889088630676
396,0.010687721893191338,0.9679999947547913,0.022190429270267487,0.9253333210945129
397,0.01069235522300005,0.9660000205039978,0.0224011093378067,0.925777792930603
398,0.010647695511579514,0.9660000205039978,0.022488480433821678,0.9251111149787903
399,0.010654931887984276,0.9700000286102295,0.022417109459638596,0.9255555272102356
400,0.01075248047709465,0.9639999866485596,0.022263849154114723,0.9248889088630676
401,0.010668798349797726,0.9660000205039978,0.02226947247982025,0.9253333210945129
402,0.010560073889791965,0.9660000205039978,0.022472746670246124,0.9253333210945129
403,0.010523070581257343,0.9660000205039978,0.022299183532595634,0.925777792930603
404,0.01058180257678032,0.9660000205039978,0.022454816848039627,0.9251111149787903
405,0.010548094287514687,0.9660000205039978,0.022199993953108788,0.9259999990463257
406,0.010527698323130608,0.9660000205039978,0.022470317780971527,0.9253333210945129
407,0.010506367310881615,0.9660000205039978,0.0223042331635952,0.9253333210945129
408,0.010509034618735313,0.9660000205039978,0.022294528782367706,0.9251111149787903
409,0.01049195695668459,0.9660000205039978,0.02253102697432041,0.9253333210945129
410,0.010585414245724678,0.9660000205039978,0.022473230957984924,0.9253333210945129
411,0.010538690723478794,0.9679999947547913,0.022291557863354683,0.9262222051620483
412,0.010494575835764408,0.9660000205039978,0.022359231486916542,0.9251111149787903
413,0.01055567804723978,0.9660000205039978,0.022327568382024765,0.9240000247955322
414,0.010534795001149178,0.9660000205039978,0.022406499832868576,0.9237777590751648
415,0.010444005951285362,0.9660000205039978,0.022441275417804718,0.9251111149787903
416,0.010478130541741848,0.9660000205039978,0.02251335233449936,0.9251111149787903
417,0.010435853153467178,0.9679999947547913,0.022463589906692505,0.9253333210945129
418,0.010518306866288185,0.9679999947547913,0.022572293877601624,0.9253333210945129
419,0.010466160252690315,0.9660000205039978,0.022305909544229507,0.9240000247955322
420,0.010457981377840042,0.9679999947547913,0.022471684962511063,0.925777792930603
421,0.010434767231345177,0.9660000205039978,0.022469110786914825,0.9253333210945129
422,0.010386214591562748,0.9660000205039978,0.02236213907599449,0.9248889088630676
423,0.01030983217060566,0.9679999947547913,0.02263457700610161,0.925777792930603
424,0.01035283599048853,0.9679999947547913,0.022461188957095146,0.9251111149787903
425,0.010409831069409847,0.9700000286102295,0.022661874070763588,0.9240000247955322
426,0.010405474342405796,0.9679999947547913,0.022472400218248367,0.9253333210945129
427,0.010396759957075119,0.9660000205039978,0.022341052070260048,0.9253333210945129
428,0.010398069396615028,0.9660000205039978,0.022483566775918007,0.9251111149787903
429,0.010341795161366463,0.9660000205039978,0.022368162870407104,0.9244444370269775
430,0.010385509580373764,0.9660000205039978,0.02249165065586567,0.9246666431427002
431,0.010328289121389389,0.9660000205039978,0.022454150021076202,0.9251111149787903
432,0.01040749903768301,0.9679999947547913,0.022596105933189392,0.9242222309112549
433,0.010569495148956776,0.9679999947547913,0.022603197023272514,0.9244444370269775
434,0.010278329253196716,0.9679999947547913,0.02235531061887741,0.9244444370269775
435,0.010306088253855705,0.9660000205039978,0.022477393969893456,0.9253333210945129
436,0.010357600636780262,0.9660000205039978,0.022441349923610687,0.9246666431427002
437,0.010277855210006237,0.9679999947547913,0.02244597114622593,0.9251111149787903
438,0.010340825654566288,0.9679999947547913,0.022376110777258873,0.9253333210945129
439,0.010458637960255146,0.9679999947547913,0.02243771031498909,0.9251111149787903
440,0.010209782049059868,0.9700000286102295,0.02259027771651745,0.9248889088630676
441,0.01029252726584673,0.9700000286102295,0.022542551159858704,0.9251111149787903
442,0.010223652236163616,0.9660000205039978,0.02241593971848488,0.9248889088630676
443,0.010196778923273087,0.9660000205039978,0.022517789155244827,0.9248889088630676
444,0.010220279917120934,0.9679999947547913,0.022556280717253685,0.9248889088630676
445,0.01026532705873251,0.9660000205039978,0.022467026486992836,0.9251111149787903
446,0.010250512510538101,0.9679999947547913,0.022548628970980644,0.9251111149787903
447,0.010193939320743084,0.9660000205039978,0.022508516907691956,0.9246666431427002
448,0.010238797403872013,0.9679999947547913,0.022475454956293106,0.9248889088630676
449,0.010229443199932575,0.9700000286102295,0.022525645792484283,0.9248889088630676
450,0.010163607075810432,0.9679999947547913,0.022265512496232986,0.9248889088630676
451,0.010198501870036125,0.9660000205039978,0.022723497822880745,0.9240000247955322
452,0.010211947374045849,0.9660000205039978,0.022598912939429283,0.9248889088630676
453,0.01012074388563633,0.9700000286102295,0.02263888157904148,0.9251111149787903
454,0.01013012696057558,0.9679999947547913,0.022561389952898026,0.9251111149787903
455,0.010099166072905064,0.9679999947547913,0.022640816867351532,0.9253333210945129
456,0.010200398974120617,0.972000002861023,0.022526273503899574,0.9251111149787903
457,0.01018529199063778,0.9679999947547913,0.022376209497451782,0.9248889088630676
458,0.010124674066901207,0.9700000286102295,0.02256009355187416,0.9255555272102356
459,0.010083387605845928,0.9700000286102295,0.022626763209700584,0.925777792930603
460,0.010195836424827576,0.972000002861023,0.022687753662467003,0.9251111149787903
461,0.010043516755104065,0.9679999947547913,0.022380070760846138,0.9244444370269775
462,0.010131255723536015,0.9679999947547913,0.022600561380386353,0.9251111149787903
463,0.010105814784765244,0.9679999947547913,0.02241751365363598,0.9246666431427002
464,0.010097024962306023,0.9679999947547913,0.02255854569375515,0.9248889088630676
465,0.01018799003213644,0.9700000286102295,0.022533131763339043,0.9253333210945129
466,0.010088569484651089,0.9660000205039978,0.022398486733436584,0.9248889088630676
467,0.010008256882429123,0.9700000286102295,0.022508425638079643,0.9251111149787903
468,0.01005258783698082,0.9660000205039978,0.02258278802037239,0.9244444370269775
469,0.01005207933485508,0.9679999947547913,0.02245287410914898,0.9255555272102356
470,0.010024407878518105,0.9700000286102295,0.022528979927301407,0.9255555272102356
471,0.010057665407657623,0.9679999947547913,0.02254752814769745,0.9248889088630676
472,0.010033519938588142,0.9700000286102295,0.02270110510289669,0.9251111149787903
473,0.01013763528317213,0.9660000205039978,0.022667286917567253,0.925777792930603
474,0.009980959817767143,0.9700000286102295,0.02261747606098652,0.9253333210945129
475,0.010002311319112778,0.9700000286102295,0.022575972601771355,0.925777792930603
476,0.009955571964383125,0.9700000286102295,0.02253977581858635,0.9251111149787903
477,0.010012829676270485,0.9700000286102295,0.022463612258434296,0.9251111149787903
478,0.00994948111474514,0.9700000286102295,0.022563114762306213,0.9255555272102356
479,0.009945705533027649,0.9679999947547913,0.02247842773795128,0.9251111149787903
480,0.009995079599320889,0.9700000286102295,0.02261238731443882,0.9253333210945129
481,0.009937277995049953,0.9700000286102295,0.022449739277362823,0.9246666431427002
482,0.00994135532528162,0.9660000205039978,0.022493766620755196,0.9246666431427002
483,0.010045774281024933,0.9700000286102295,0.02262132242321968,0.9251111149787903
484,0.00993309635668993,0.9660000205039978,0.02251981757581234,0.9251111149787903
485,0.009945365600287914,0.9700000286102295,0.022554779425263405,0.9251111149787903
486,0.00995858944952488,0.972000002861023,0.022588470950722694,0.9251111149787903
487,0.009977060370147228,0.9700000286102295,0.022647744044661522,0.9251111149787903
488,0.009972278028726578,0.9700000286102295,0.022627534344792366,0.9248889088630676
489,0.009908400475978851,0.9679999947547913,0.022542567923665047,0.9248889088630676
490,0.009935570880770683,0.9700000286102295,0.02280219830572605,0.9242222309112549
491,0.009857939556241035,0.9679999947547913,0.022564973682165146,0.9248889088630676
492,0.009864900261163712,0.9679999947547913,0.02267289347946644,0.9255555272102356
493,0.009976507164537907,0.9700000286102295,0.02246146835386753,0.9251111149787903
494,0.009882322512567043,0.972000002861023,0.02274750918149948,0.9240000247955322
495,0.00984264351427555,0.9679999947547913,0.022623702883720398,0.925777792930603
496,0.009900220669806004,0.972000002861023,0.022519854828715324,0.9251111149787903
497,0.009937891736626625,0.9700000286102295,0.022620145231485367,0.9251111149787903
498,0.009917729534208775,0.9700000286102295,0.022672589868307114,0.9251111149787903
499,0.009925885125994682,0.9679999947547913,0.022573236376047134,0.9246666431427002
500,0.009821765124797821,0.972000002861023,0.022774584591388702,0.9251111149787903
501,0.009874020703136921,0.9679999947547913,0.022666042670607567,0.9246666431427002
502,0.009839958511292934,0.9700000286102295,0.022502092644572258,0.9251111149787903
503,0.009775758720934391,0.9700000286102295,0.022714074701070786,0.9242222309112549
504,0.009805615060031414,0.9700000286102295,0.022512543946504593,0.9255555272102356
505,0.009897077456116676,0.972000002861023,0.02251681312918663,0.925777792930603
506,0.009909307584166527,0.9679999947547913,0.022577496245503426,0.9244444370269775
507,0.00981369148939848,0.972000002861023,0.022633438929915428,0.9251111149787903
508,0.0098279919475317,0.9700000286102295,0.022821500897407532,0.9235555529594421
509,0.009864630177617073,0.972000002861023,0.022705258801579475,0.9255555272102356
510,0.009784026071429253,0.972000002861023,0.022775979712605476,0.9244444370269775
511,0.009827302768826485,0.9700000286102295,0.02265695109963417,0.9246666431427002
512,0.00983109325170517,0.9739999771118164,0.02274094894528389,0.9248889088630676
513,0.009727082215249538,0.9700000286102295,0.022570297122001648,0.9244444370269775
514,0.009779935702681541,0.972000002861023,0.022700872272253036,0.9253333210945129
515,0.009777698665857315,0.9679999947547913,0.022620011121034622,0.9248889088630676
516,0.009782686829566956,0.972000002861023,0.022659556940197945,0.9255555272102356
517,0.009719389490783215,0.972000002861023,0.022742465138435364,0.9248889088630676
518,0.00974188931286335,0.9700000286102295,0.022653335705399513,0.9253333210945129
519,0.009754655882716179,0.9679999947547913,0.02252623252570629,0.9248889088630676
520,0.009761318564414978,0.972000002861023,0.022763019427657127,0.9248889088630676
521,0.009745595045387745,0.9679999947547913,0.02266869880259037,0.9244444370269775
522,0.009690630249679089,0.9679999947547913,0.022670766338706017,0.9255555272102356
523,0.009837489575147629,0.9679999947547913,0.022568780928850174,0.9253333210945129
524,0.009755606763064861,0.9679999947547913,0.022832851856946945,0.9242222309112549
525,0.00974269025027752,0.972000002861023,0.022663729265332222,0.925777792930603
526,0.009657229296863079,0.9739999771118164,0.022761929780244827,0.9253333210945129
527,0.009671361185610294,0.972000002861023,0.022702032700181007,0.9255555272102356
528,0.009670677594840527,0.972000002861023,0.022652912884950638,0.9248889088630676
529,0.009654166176915169,0.972000002861023,0.0226835198700428,0.9248889088630676
530,0.009636018425226212,0.9700000286102295,0.022731633856892586,0.9242222309112549
531,0.009783326648175716,0.9679999947547913,0.02262418530881405,0.9246666431427002
532,0.009715614840388298,0.972000002861023,0.022591182962059975,0.9255555272102356
533,0.009734383784234524,0.972000002861023,0.02278711646795273,0.9246666431427002
534,0.009670824743807316,0.972000002861023,0.022610947489738464,0.9248889088630676
535,0.00964974146336317,0.9700000286102295,0.022764841094613075,0.9242222309112549
536,0.00961019191890955,0.972000002861023,0.02267206646502018,0.9251111149787903
537,0.009652781300246716,0.972000002861023,0.022733861580491066,0.9244444370269775
538,0.0097701670601964,0.972000002861023,0.02272789739072323,0.9251111149787903
539,0.009779802523553371,0.972000002861023,0.022899895906448364,0.9242222309112549
540,0.009649606421589851,0.972000002861023,0.022885968908667564,0.9240000247955322
541,0.009597980417311192,0.972000002861023,0.022590747103095055,0.9246666431427002
542,0.009671960026025772,0.9679999947547913,0.022843988612294197,0.9237777590751648
543,0.009683954529464245,0.9739999771118164,0.022698787972331047,0.9248889088630676
544,0.009614835493266582,0.972000002861023,0.02291843853890896,0.9235555529594421
545,0.00966024398803711,0.9739999771118164,0.02265043929219246,0.9248889088630676
546,0.009579699486494064,0.972000002861023,0.02260538376867771,0.9246666431427002
547,0.009577125310897827,0.972000002861023,0.02280946634709835,0.9246666431427002
548,0.009578545577824116,0.972000002861023,0.02284768782556057,0.9240000247955322
549,0.009584483690559864,0.9739999771118164,0.022777510806918144,0.9242222309112549
550,0.00965476967394352,0.972000002861023,0.02287846989929676,0.9240000247955322
551,0.009559126570820808,0.9739999771118164,0.02270681969821453,0.9255555272102356
552,0.009598605334758759,0.972000002861023,0.022724922746419907,0.9244444370269775
553,0.009534097276628017,0.9739999771118164,0.022700268775224686,0.9246666431427002
554,0.00954934861510992,0.972000002861023,0.02269042283296585,0.9237777590751648
555,0.00954534113407135,0.972000002861023,0.02284380979835987,0.9237777590751648
556,0.009525303728878498,0.972000002861023,0.022689679637551308,0.9246666431427002
557,0.009598844684660435,0.9739999771118164,0.02266004867851734,0.9255555272102356
558,0.009527989663183689,0.972000002861023,0.02271379716694355,0.9248889088630676
559,0.009550723247230053,0.9739999771118164,0.02274578996002674,0.9251111149787903
560,0.009607532061636448,0.9739999771118164,0.02265298180282116,0.9264444708824158
561,0.009503749199211597,0.972000002861023,0.022699927911162376,0.9242222309112549
562,0.009510692209005356,0.972000002861023,0.022739429026842117,0.9240000247955322
563,0.009480361826717854,0.9739999771118164,0.022805312648415565,0.9242222309112549
564,0.009483893401920795,0.972000002861023,0.022756829857826233,0.9244444370269775
565,0.009508399292826653,0.9739999771118164,0.022787300869822502,0.9244444370269775
566,0.009471205994486809,0.972000002861023,0.022671211510896683,0.9246666431427002
567,0.009526094421744347,0.972000002861023,0.022881338372826576,0.9237777590751648
568,0.00954373273998499,0.972000002861023,0.022712770849466324,0.9240000247955322
569,0.009458629414439201,0.9739999771118164,0.022929202765226364,0.9237777590751648
570,0.009446896612644196,0.9739999771118164,0.022850966081023216,0.9237777590751648
571,0.00950552523136139,0.972000002861023,0.022753072902560234,0.9246666431427002
572,0.009506704285740852,0.9700000286102295,0.022806355729699135,0.9237777590751648
573,0.009511134587228298,0.9739999771118164,0.0228408370167017,0.9242222309112549
574,0.00942838191986084,0.972000002861023,0.022785311564803123,0.9235555529594421
575,0.009454718790948391,0.9739999771118164,0.022687286138534546,0.9244444370269775
576,0.00949938502162695,0.9700000286102295,0.02292722649872303,0.9233333468437195
577,0.009473159909248352,0.972000002861023,0.022701766341924667,0.9244444370269775
578,0.009432985447347164,0.9739999771118164,0.022860946133732796,0.9242222309112549
579,0.00953350868076086,0.9739999771118164,0.022720376029610634,0.9244444370269775
580,0.00955731887370348,0.9760000109672546,0.022953679785132408,0.9244444370269775
581,0.009434744715690613,0.9700000286102295,0.022770054638385773,0.9237777590751648
582,0.009484535083174706,0.9739999771118164,0.02306235395371914,0.9228888750076294
583,0.009484647773206234,0.972000002861023,0.022808028385043144,0.9244444370269775
584,0.009415281936526299,0.972000002861023,0.02291826345026493,0.9233333468437195
585,0.009393169544637203,0.9739999771118164,0.02301037311553955,0.9233333468437195
586,0.009389788843691349,0.9739999771118164,0.02284909598529339,0.9240000247955322
587,0.009412878192961216,0.9739999771118164,0.022680336609482765,0.9246666431427002
588,0.009468255564570427,0.9700000286102295,0.022913461551070213,0.9237777590751648
589,0.009353945031762123,0.9739999771118164,0.022837413474917412,0.9235555529594421
590,0.009420657530426979,0.972000002861023,0.02284441515803337,0.9233333468437195
591,0.009380633942782879,0.972000002861023,0.02278256230056286,0.9233333468437195
592,0.009376725181937218,0.9739999771118164,0.022917328402400017,0.9233333468437195
593,0.009392268024384975,0.9739999771118164,0.02289563976228237,0.9237777590751648
594,0.009351382032036781,0.972000002861023,0.022859185934066772,0.9240000247955322
595,0.009337461553514004,0.972000002861023,0.02282368205487728,0.9242222309112549
596,0.009348365478217602,0.9739999771118164,0.022968608886003494,0.9235555529594421
597,0.009386753663420677,0.9739999771118164,0.022883553057909012,0.9240000247955322
598,0.009388253092765808,0.972000002861023,0.02300841175019741,0.9231111407279968
599,0.009307458996772766,0.9739999771118164,0.022930391132831573,0.9237777590751648
600,0.009457173757255077,0.9739999771118164,0.022964539006352425,0.9237777590751648
601,0.009385151788592339,0.972000002861023,0.022817613556981087,0.9240000247955322
602,0.009445656090974808,0.9739999771118164,0.022845041006803513,0.9237777590751648
603,0.009510377421975136,0.972000002861023,0.022895684465765953,0.9233333468437195
604,0.009338092058897018,0.972000002861023,0.022901225835084915,0.9240000247955322
605,0.009329136461019516,0.972000002861023,0.022881554439663887,0.9240000247955322
606,0.009342437610030174,0.9739999771118164,0.022858979180455208,0.9237777590751648
607,0.009402746334671974,0.9739999771118164,0.022844361141324043,0.9259999990463257
608,0.009318399243056774,0.9739999771118164,0.022978516295552254,0.9222221970558167
609,0.009435096755623817,0.9700000286102295,0.0230520311743021,0.9233333468437195
610,0.009353493340313435,0.9739999771118164,0.023115336894989014,0.9226666688919067
611,0.009346029721200466,0.9739999771118164,0.0229856688529253,0.9235555529594421
612,0.009280097670853138,0.9739999771118164,0.02281402423977852,0.9240000247955322
613,0.009274995885789394,0.9739999771118164,0.02294706553220749,0.9231111407279968
614,0.00938672386109829,0.972000002861023,0.023031333461403847,0.9231111407279968
615,0.00935900304466486,0.9739999771118164,0.022880127653479576,0.9240000247955322
616,0.009291695430874825,0.9739999771118164,0.02284906432032585,0.9240000247955322
617,0.009275320917367935,0.9739999771118164,0.023031122982501984,0.9228888750076294
618,0.009266062639653683,0.9739999771118164,0.022979650646448135,0.9233333468437195
619,0.009267907589673996,0.9739999771118164,0.022956619039177895,0.9228888750076294
620,0.009330414235591888,0.9739999771118164,0.02302960492670536,0.9233333468437195
621,0.009314080700278282,0.9739999771118164,0.02296915464103222,0.9240000247955322
622,0.009292294271290302,0.972000002861023,0.023229798302054405,0.9217777848243713
623,0.009262055158615112,0.9739999771118164,0.02302003838121891,0.9231111407279968
624,0.009318367578089237,0.9739999771118164,0.02335110679268837,0.9213333129882812
625,0.009241964668035507,0.9760000109672546,0.023110447451472282,0.9231111407279968
626,0.009209681302309036,0.972000002861023,0.023009734228253365,0.9226666688919067
627,0.009225299581885338,0.9760000109672546,0.022947490215301514,0.9233333468437195
628,0.009213536977767944,0.9739999771118164,0.022970298305153847,0.9233333468437195
629,0.009245469234883785,0.972000002861023,0.022994501516222954,0.9228888750076294
630,0.009229686111211777,0.972000002861023,0.02292606048285961,0.9233333468437195
631,0.009155231527984142,0.972000002861023,0.023147549480199814,0.9224444627761841
632,0.009211496450006962,0.9739999771118164,0.022941332310438156,0.9237777590751648
633,0.00924385990947485,0.9739999771118164,0.022918272763490677,0.9235555529594421
634,0.0091931177303195,0.972000002861023,0.022899268195033073,0.9235555529594421
635,0.009181438945233822,0.9739999771118164,0.02308303862810135,0.9231111407279968
636,0.009293503127992153,0.972000002861023,0.02312074974179268,0.9226666688919067
637,0.009183128364384174,0.9739999771118164,0.02298186719417572,0.9231111407279968
638,0.009185094386339188,0.972000002861023,0.022964920848608017,0.9240000247955322
639,0.009310059249401093,0.9760000109672546,0.023260843008756638,0.9222221970558167
640,0.009161187335848808,0.9739999771118164,0.023168956860899925,0.9226666688919067
641,0.009176760911941528,0.972000002861023,0.023039009422063828,0.9231111407279968
642,0.00918282475322485,0.972000002861023,0.022884171456098557,0.9233333468437195
643,0.009182509034872055,0.9739999771118164,0.02306491509079933,0.9233333468437195
644,0.009213175624608994,0.972000002861023,0.02301941066980362,0.9226666688919067
645,0.009156327694654465,0.9760000109672546,0.02303120866417885,0.9233333468437195
646,0.00919088814407587,0.972000002861023,0.022949984297156334,0.9224444627761841
647,0.009151083417236805,0.972000002861023,0.023061474785208702,0.9224444627761841
648,0.009206267073750496,0.9760000109672546,0.022977469488978386,0.9242222309112549
649,0.009259999729692936,0.9679999947547913,0.02282223291695118,0.9233333468437195
650,0.009208829142153263,0.9760000109672546,0.023352593183517456,0.9217777848243713
651,0.009108128026127815,0.9760000109672546,0.022998083382844925,0.9231111407279968
652,0.009169760160148144,0.972000002861023,0.023047886788845062,0.9226666688919067
653,0.00915265642106533,0.972000002861023,0.023312285542488098,0.921999990940094
654,0.009213125333189964,0.9760000109672546,0.023076307028532028,0.9228888750076294
655,0.00915682315826416,0.9700000286102295,0.022937839850783348,0.9224444627761841
656,0.00913355965167284,0.9739999771118164,0.023189470171928406,0.9224444627761841
657,0.00914967805147171,0.9739999771118164,0.022936291992664337,0.9233333468437195
658,0.009073389694094658,0.9739999771118164,0.023037537932395935,0.9226666688919067
659,0.009194009937345982,0.972000002861023,0.023245196789503098,0.9222221970558167
660,0.009108087979257107,0.9739999771118164,0.022972773760557175,0.9233333468437195
661,0.009190958924591541,0.9760000109672546,0.02323654107749462,0.9226666688919067
662,0.009118893183767796,0.9760000109672546,0.023083241656422615,0.9226666688919067
663,0.009076490998268127,0.9760000109672546,0.023140501230955124,0.9224444627761841
664,0.009075385518372059,0.9760000109672546,0.02309350110590458,0.9224444627761841
665,0.0091612683609128,0.972000002861023,0.022945206612348557,0.921999990940094
666,0.009055055677890778,0.972000002861023,0.02318214438855648,0.9217777848243713
667,0.009056756272912025,0.9739999771118164,0.02318587712943554,0.9224444627761841
668,0.009086014702916145,0.9760000109672546,0.02318461984395981,0.9224444627761841
669,0.009036355651915073,0.972000002861023,0.022973960265517235,0.9231111407279968
670,0.009029539301991463,0.9739999771118164,0.023059749975800514,0.9226666688919067
671,0.009087023325264454,0.9739999771118164,0.023277804255485535,0.9222221970558167
672,0.009062306024134159,0.9760000109672546,0.022956645116209984,0.9235555529594421
673,0.009060710668563843,0.9739999771118164,0.02300962805747986,0.9226666688919067
674,0.009045290760695934,0.9739999771118164,0.0230599083006382,0.9224444627761841
675,0.009033367037773132,0.9739999771118164,0.023155609145760536,0.9226666688919067
676,0.008996494114398956,0.9739999771118164,0.02299272082746029,0.9228888750076294
677,0.00902146939188242,0.9739999771118164,0.02320397086441517,0.9222221970558167
678,0.009022330865263939,0.972000002861023,0.022911151871085167,0.9231111407279968
679,0.008985774591565132,0.9739999771118164,0.0231050793081522,0.9224444627761841
680,0.009076201356947422,0.972000002861023,0.023155877366662025,0.9226666688919067
681,0.009018500335514545,0.9760000109672546,0.022977793589234352,0.9226666688919067
682,0.008993015624582767,0.9739999771118164,0.023178398609161377,0.9222221970558167
683,0.00899241492152214,0.9760000109672546,0.023086249828338623,0.9226666688919067
684,0.008997020311653614,0.9760000109672546,0.022929254919290543,0.9233333468437195
685,0.008971168659627438,0.972000002861023,0.02317514456808567,0.9217777848243713
686,0.009052949026226997,0.9760000109672546,0.023032227531075478,0.9233333468437195
687,0.008953436277806759,0.9739999771118164,0.022964540868997574,0.9233333468437195
688,0.008966347202658653,0.9739999771118164,0.023101232945919037,0.9224444627761841
689,0.008978965692222118,0.9739999771118164,0.02307315170764923,0.9224444627761841
690,0.008993447758257389,0.9739999771118164,0.023054394870996475,0.9224444627761841
691,0.008986028842628002,0.9739999771118164,0.02311747707426548,0.9226666688919067
692,0.008960597217082977,0.9739999771118164,0.023120302706956863,0.9224444627761841
693,0.008955380879342556,0.9760000109672546,0.023139890283346176,0.9224444627761841
694,0.008934937417507172,0.9760000109672546,0.022999705746769905,0.9231111407279968
695,0.009206731803715229,0.9700000286102295,0.022950781509280205,0.9226666688919067
696,0.008915422484278679,0.9739999771118164,0.023409029468894005,0.9213333129882812
697,0.008962615393102169,0.9739999771118164,0.0230075903236866,0.9226666688919067
698,0.008951786905527115,0.9739999771118164,0.02303309552371502,0.9224444627761841
699,0.008893241174519062,0.9760000109672546,0.02320588007569313,0.9226666688919067
700,0.008947022259235382,0.9760000109672546,0.023142317309975624,0.9231111407279968
701,0.008931332267820835,0.972000002861023,0.02312065102159977,0.9222221970558167
702,0.008928828872740269,0.9760000109672546,0.023040469735860825,0.9222221970558167
703,0.00910155102610588,0.9700000286102295,0.02319733239710331,0.9222221970558167
704,0.00884624570608139,0.9739999771118164,0.023378416895866394,0.9204444289207458
705,0.00898410938680172,0.9760000109672546,0.023317700251936913,0.9215555787086487
706,0.008919657208025455,0.9739999771118164,0.023219168186187744,0.9222221970558167
707,0.008936695754528046,0.9760000109672546,0.023347053676843643,0.9206666946411133
708,0.008933463133871555,0.972000002861023,0.02311956323683262,0.921999990940094
709,0.008988594636321068,0.9760000109672546,0.02325337938964367,0.9211111068725586
710,0.008921612054109573,0.9739999771118164,0.02303023263812065,0.9222221970558167
711,0.008879333734512329,0.9760000109672546,0.023288069292902946,0.9213333129882812
712,0.008958391845226288,0.9760000109672546,0.023193586617708206,0.921999990940094
713,0.008877172134816647,0.9739999771118164,0.023028165102005005,0.9224444627761841
714,0.008899056352674961,0.9739999771118164,0.02325333282351494,0.9222221970558167
715,0.008900324814021587,0.9760000109672546,0.023140856996178627,0.921999990940094
716,0.009009530767798424,0.9700000286102295,0.023393290117383003,0.9206666946411133
717,0.00888450350612402,0.9760000109672546,0.023244796320796013,0.9217777848243713
718,0.008845663629472256,0.9760000109672546,0.023292623460292816,0.9211111068725586
719,0.008836365304887295,0.9760000109672546,0.023227540776133537,0.9222221970558167
720,0.008879375644028187,0.9739999771118164,0.02333027869462967,0.9204444289207458
721,0.008815612643957138,0.9760000109672546,0.02324809320271015,0.9217777848243713
722,0.008876262232661247,0.9760000109672546,0.023179559037089348,0.9222221970558167
723,0.008850496262311935,0.9739999771118164,0.023371541872620583,0.9206666946411133
724,0.008859178051352501,0.9739999771118164,0.02321399189531803,0.9217777848243713
725,0.008854776620864868,0.9760000109672546,0.023404285311698914,0.9213333129882812
726,0.008887885138392448,0.9760000109672546,0.02303958311676979,0.9233333468437195
727,0.00876203365623951,0.9760000109672546,0.023378832265734673,0.9206666946411133
728,0.008862785995006561,0.9760000109672546,0.02307427115738392,0.9231111407279968
729,0.008833065629005432,0.9739999771118164,0.023190002888441086,0.9217777848243713
730,0.008776566945016384,0.9760000109672546,0.023265600204467773,0.9206666946411133
731,0.008795607835054398,0.9760000109672546,0.023302456364035606,0.9204444289207458
732,0.008773161098361015,0.9760000109672546,0.023165253922343254,0.9222221970558167
733,0.008886090479791164,0.9760000109672546,0.023358240723609924,0.9206666946411133
734,0.008974767290055752,0.972000002861023,0.0232689306139946,0.9222221970558167
735,0.008857527747750282,0.9760000109672546,0.02340794913470745,0.9204444289207458
736,0.008824401535093784,0.9760000109672546,0.0232674703001976,0.9215555787086487
737,0.00889130774885416,0.9760000109672546,0.023386048153042793,0.9215555787086487
738,0.008871439844369888,0.9760000109672546,0.023052021861076355,0.9231111407279968
739,0.00873643346130848,0.9760000109672546,0.023465614765882492,0.9202222228050232
740,0.008804118260741234,0.9760000109672546,0.023195259273052216,0.9228888750076294
741,0.008751444518566132,0.9739999771118164,0.02313985489308834,0.9228888750076294
742,0.00873485766351223,0.9760000109672546,0.02317875437438488,0.9222221970558167
743,0.008753529749810696,0.9760000109672546,0.023212959989905357,0.9224444627761841
744,0.008717565797269344,0.9760000109672546,0.023376906290650368,0.9208889007568359
745,0.008754054084420204,0.9760000109672546,0.02325117588043213,0.9224444627761841
746,0.00873227883130312,0.9760000109672546,0.023273035883903503,0.921999990940094
747,0.00871275831013918,0.9760000109672546,0.023293057456612587,0.9213333129882812
748,0.00872323289513588,0.972000002861023,0.023315060883760452,0.9206666946411133
749,0.008706200867891312,0.9760000109672546,0.02335173450410366,0.9215555787086487
750,0.008702375926077366,0.9760000109672546,0.023341670632362366,0.9208889007568359
751,0.00871323049068451,0.9760000109672546,0.023326421156525612,0.9224444627761841
752,0.008712684735655785,0.9760000109672546,0.023233717307448387,0.9224444627761841
753,0.009005388244986534,0.9679999947547913,0.023231299594044685,0.9202222228050232
754,0.008771348744630814,0.9760000109672546,0.023472346365451813,0.9202222228050232
755,0.008674279786646366,0.9760000109672546,0.0231484267860651,0.9228888750076294
756,0.008673757314682007,0.9760000109672546,0.023309441283345222,0.9215555787086487
757,0.00864853709936142,0.9760000109672546,0.02335813269019127,0.9213333129882812
758,0.008701814338564873,0.9760000109672546,0.023248152807354927,0.9226666688919067
759,0.008659915998578072,0.9760000109672546,0.02324533835053444,0.9217777848243713
760,0.008645463734865189,0.9760000109672546,0.023397881537675858,0.9197777509689331
761,0.008666944690048695,0.9760000109672546,0.023408370092511177,0.9206666946411133
762,0.008682848885655403,0.9760000109672546,0.023422060534358025,0.9206666946411133
763,0.008624539710581303,0.9760000109672546,0.02317497506737709,0.9233333468437195
764,0.008633801713585854,0.9760000109672546,0.023357313126325607,0.9211111068725586
765,0.00864828284829855,0.9760000109672546,0.02325907163321972,0.9228888750076294
766,0.008634792640805244,0.9760000109672546,0.0231684148311615,0.9231111407279968
767,0.008718181401491165,0.9739999771118164,0.023181388154625893,0.921999990940094
768,0.008613651618361473,0.9739999771118164,0.02335377410054207,0.9222221970558167
769,0.008645185269415379,0.9760000109672546,0.023365553468465805,0.9224444627761841
770,0.008629168383777142,0.9760000109672546,0.0232896339148283,0.921999990940094
771,0.008695893920958042,0.9739999771118164,0.02331436797976494,0.9222221970558167
772,0.008737974800169468,0.9760000109672546,0.0235932394862175,0.9213333129882812
773,0.008583219721913338,0.9760000109672546,0.023367835208773613,0.921999990940094
774,0.008614661172032356,0.9760000109672546,0.023256637156009674,0.9224444627761841
775,0.008596550673246384,0.9760000109672546,0.023325059562921524,0.9224444627761841
776,0.008599121123552322,0.9739999771118164,0.023273494094610214,0.9226666688919067
777,0.008652640506625175,0.9760000109672546,0.02326517552137375,0.9231111407279968
778,0.00862181931734085,0.9760000109672546,0.023250868543982506,0.9240000247955322
779,0.008582718670368195,0.9760000109672546,0.02341378480195999,0.921999990940094
780,0.008578064851462841,0.9760000109672546,0.02359827421605587,0.9208889007568359
781,0.008546071127057076,0.9760000109672546,0.023521406576037407,0.9211111068725586
782,0.008599082008004189,0.9760000109672546,0.0233549065887928,0.9222221970558167
783,0.008560072630643845,0.9760000109672546,0.023501867428421974,0.9215555787086487
784,0.008597389794886112,0.9760000109672546,0.023436183109879494,0.9215555787086487
785,0.008574780076742172,0.9760000109672546,0.02347617596387863,0.9217777848243713
786,0.008599726483225822,0.9760000109672546,0.023416727781295776,0.921999990940094
787,0.008582746610045433,0.9760000109672546,0.023307111114263535,0.9231111407279968
788,0.008588789962232113,0.9760000109672546,0.023518221452832222,0.9204444289207458
789,0.008520807139575481,0.9760000109672546,0.02334941178560257,0.9217777848243713
790,0.008509073406457901,0.9760000109672546,0.023334067314863205,0.9222221970558167
791,0.008529923856258392,0.9760000109672546,0.023378992453217506,0.9215555787086487
792,0.00856699887663126,0.9760000109672546,0.023439235985279083,0.9215555787086487
793,0.008479547686874866,0.9760000109672546,0.02329060807824135,0.9237777590751648
794,0.008684996515512466,0.9739999771118164,0.02356864884495735,0.9215555787086487
795,0.008766980841755867,0.9760000109672546,0.02375343069434166,0.9204444289207458
796,0.008572551421821117,0.9760000109672546,0.023532168939709663,0.9206666946411133
797,0.008539414964616299,0.9760000109672546,0.023546241223812103,0.9215555787086487
798,0.008511381223797798,0.9760000109672546,0.023485476151108742,0.9226666688919067
799,0.008458741009235382,0.9760000109672546,0.02338571846485138,0.9217777848243713
800,0.00849983375519514,0.9760000109672546,0.023679163306951523,0.9211111068725586
801,0.008443395607173443,0.9760000109672546,0.02340589463710785,0.9222221970558167
802,0.00846833921968937,0.9760000109672546,0.023397305980324745,0.921999990940094
803,0.00849798135459423,0.9760000109672546,0.023691322654485703,0.9208889007568359
804,0.008561255410313606,0.9760000109672546,0.023499714210629463,0.921999990940094
805,0.008654194884002209,0.972000002861023,0.02357206493616104,0.9215555787086487
806,0.00841578096151352,0.9760000109672546,0.023490285500884056,0.9226666688919067
807,0.008426014333963394,0.9760000109672546,0.02345188893377781,0.9217777848243713
808,0.00842905230820179,0.9760000109672546,0.023550119251012802,0.9217777848243713
809,0.00850888341665268,0.9779999852180481,0.02338557504117489,0.9231111407279968
810,0.00840527843683958,0.9760000109672546,0.02349330112338066,0.9222221970558167
811,0.008441292680799961,0.9760000109672546,0.023747257888317108,0.9206666946411133
812,0.008421412669122219,0.9760000109672546,0.023475483059883118,0.9217777848243713
813,0.008389400318264961,0.9760000109672546,0.0235611405223608,0.9217777848243713
814,0.008458804339170456,0.9760000109672546,0.02351289987564087,0.9213333129882812
815,0.00845524575561285,0.9760000109672546,0.0235951766371727,0.9211111068725586
816,0.008392052724957466,0.9760000109672546,0.02333342283964157,0.9231111407279968
817,0.008406962268054485,0.9760000109672546,0.023509657010436058,0.921999990940094
818,0.008397958241403103,0.9760000109672546,0.02345767803490162,0.9226666688919067
819,0.008333534933626652,0.9760000109672546,0.023507991805672646,0.9222221970558167
820,0.008406068198382854,0.9760000109672546,0.0236501507461071,0.9208889007568359
821,0.008341879583895206,0.9760000109672546,0.02355172485113144,0.921999990940094
822,0.008413687348365784,0.9760000109672546,0.023452209308743477,0.9231111407279968
823,0.008461897261440754,0.9760000109672546,0.0233550313860178,0.9235555529594421
824,0.008383463136851788,0.9760000109672546,0.0236271433532238,0.921999990940094
825,0.00841040164232254,0.9760000109672546,0.023421820253133774,0.9222221970558167
826,0.008409233763813972,0.9760000109672546,0.02366163209080696,0.9217777848243713
827,0.008346245624125004,0.9779999852180481,0.02349364385008812,0.9222221970558167
828,0.00834565982222557,0.9760000109672546,0.023649265989661217,0.9213333129882812
829,0.008353396318852901,0.9760000109672546,0.02360563911497593,0.921999990940094
830,0.008298835717141628,0.9760000109672546,0.023667674511671066,0.921999990940094
831,0.008330642245709896,0.9779999852180481,0.02373206801712513,0.9215555787086487
832,0.008352933451533318,0.9779999852180481,0.023528048768639565,0.9226666688919067
833,0.008308576419949532,0.9760000109672546,0.023478545248508453,0.9226666688919067
834,0.008340668864548206,0.9760000109672546,0.023654356598854065,0.921999990940094
835,0.008374400436878204,0.9739999771118164,0.0235202107578516,0.9222221970558167
836,0.008360463194549084,0.9779999852180481,0.02380676381289959,0.9211111068725586
837,0.008335266262292862,0.9779999852180481,0.023558881133794785,0.9222221970558167
838,0.008348439820110798,0.9779999852180481,0.023853804916143417,0.9211111068725586
839,0.008365263231098652,0.9779999852180481,0.02355060912668705,0.9224444627761841
840,0.008275185711681843,0.9779999852180481,0.023649513721466064,0.9213333129882812
841,0.008289926685392857,0.9760000109672546,0.02360660210251808,0.9222221970558167
842,0.008283519186079502,0.9760000109672546,0.02365725114941597,0.9211111068725586
843,0.008353304117918015,0.9760000109672546,0.02348625659942627,0.9224444627761841
844,0.008278188295662403,0.9760000109672546,0.023599369451403618,0.9211111068725586
845,0.00826923456043005,0.9760000109672546,0.023526249453425407,0.9224444627761841
846,0.00825117714703083,0.9779999852180481,0.023636672645807266,0.9222221970558167
847,0.008212791755795479,0.9779999852180481,0.023531626909971237,0.9222221970558167
848,0.008257129229605198,0.9779999852180481,0.02366875484585762,0.9226666688919067
849,0.008256610482931137,0.9760000109672546,0.023585427552461624,0.921999990940094
850,0.008225987665355206,0.9760000109672546,0.02361469902098179,0.9224444627761841
851,0.008246386423707008,0.9779999852180481,0.023863535374403,0.9217777848243713
852,0.008275747299194336,0.9760000109672546,0.0237867571413517,0.9213333129882812
853,0.008223405107855797,0.9779999852180481,0.023707034066319466,0.9213333129882812
854,0.008226409554481506,0.9779999852180481,0.023775409907102585,0.9217777848243713
855,0.008238117210566998,0.9779999852180481,0.0236629918217659,0.9224444627761841
856,0.00819620955735445,0.9779999852180481,0.023660875856876373,0.9222221970558167
857,0.008221985772252083,0.9779999852180481,0.023559575900435448,0.9226666688919067
858,0.008175911381840706,0.9779999852180481,0.023859120905399323,0.9204444289207458
859,0.0081728994846344,0.9779999852180481,0.023666467517614365,0.9226666688919067
860,0.008224262855947018,0.9779999852180481,0.023792607709765434,0.9217777848243713
861,0.008219407871365547,0.9779999852180481,0.02390044927597046,0.9204444289207458
862,0.008149937726557255,0.9779999852180481,0.023620516061782837,0.9226666688919067
863,0.008186769671738148,0.9779999852180481,0.023578990250825882,0.9228888750076294
864,0.008192511275410652,0.9779999852180481,0.023846881464123726,0.9211111068725586
865,0.00821051374077797,0.9779999852180481,0.02367444522678852,0.9228888750076294
866,0.008226913399994373,0.9779999852180481,0.02387949451804161,0.9202222228050232
867,0.008255384862422943,0.9760000109672546,0.023434532806277275,0.9228888750076294
868,0.008388613350689411,0.9779999852180481,0.023962514474987984,0.9202222228050232
869,0.008301712572574615,0.9760000109672546,0.02368827909231186,0.9215555787086487
870,0.008265366777777672,0.9779999852180481,0.023629283532500267,0.9228888750076294
871,0.008186415769159794,0.9779999852180481,0.023540522903203964,0.9233333468437195
872,0.008185540325939655,0.9779999852180481,0.023619405925273895,0.921999990940094
873,0.008091443218290806,0.9779999852180481,0.02356124483048916,0.9226666688919067
874,0.008161750622093678,0.9779999852180481,0.023592377081513405,0.9224444627761841
875,0.008124403655529022,0.9779999852180481,0.023704174906015396,0.9224444627761841
876,0.008145754225552082,0.9779999852180481,0.023634886369109154,0.9233333468437195
877,0.008066711015999317,0.9779999852180481,0.023894652724266052,0.9206666946411133
878,0.008074221201241016,0.9779999852180481,0.023581109941005707,0.9228888750076294
879,0.00815772544592619,0.9779999852180481,0.023759987205266953,0.9217777848243713
880,0.008150890469551086,0.9779999852180481,0.02365931123495102,0.9226666688919067
881,0.008046500384807587,0.9779999852180481,0.023816019296646118,0.9215555787086487
882,0.008139396086335182,0.9779999852180481,0.02387719601392746,0.9208889007568359
883,0.00809552613645792,0.9779999852180481,0.023845329880714417,0.9206666946411133
884,0.008134753443300724,0.9779999852180481,0.023689012974500656,0.9231111407279968
885,0.008038272149860859,0.9779999852180481,0.02364291623234749,0.9224444627761841
886,0.008099628612399101,0.9760000109672546,0.023769918829202652,0.9226666688919067
887,0.008107759058475494,0.9779999852180481,0.023669766262173653,0.9213333129882812
888,0.008057043887674809,0.9779999852180481,0.023661211133003235,0.9228888750076294
889,0.008039274252951145,0.9779999852180481,0.023790597915649414,0.9215555787086487
890,0.008044273592531681,0.9779999852180481,0.023768028244376183,0.9224444627761841
891,0.008033623918890953,0.9779999852180481,0.023772789165377617,0.9222221970558167
892,0.008051900193095207,0.9779999852180481,0.023701151832938194,0.9224444627761841
893,0.00804902333766222,0.9779999852180481,0.023694630712270737,0.9231111407279968
894,0.00803646631538868,0.9779999852180481,0.02390584722161293,0.9206666946411133
895,0.008003820665180683,0.9779999852180481,0.02409924380481243,0.9195555448532104
896,0.008017843589186668,0.9779999852180481,0.02376064658164978,0.921999990940094
897,0.008051589131355286,0.9779999852180481,0.023690998554229736,0.9231111407279968
898,0.008058085106313229,0.9779999852180481,0.02375299483537674,0.9224444627761841
899,0.008057083003222942,0.9779999852180481,0.023803498595952988,0.9217777848243713
900,0.007987265475094318,0.9779999852180481,0.02392634190618992,0.9211111068725586
901,0.008000452071428299,0.9779999852180481,0.023999955505132675,0.9204444289207458
902,0.007979849353432655,0.9779999852180481,0.023829646408557892,0.9208889007568359
903,0.00799711886793375,0.9739999771118164,0.02364104613661766,0.9226666688919067
904,0.008003899827599525,0.9739999771118164,0.024134378880262375,0.9200000166893005
905,0.007978064008057117,0.9779999852180481,0.024043986573815346,0.9202222228050232
906,0.008014949038624763,0.9779999852180481,0.02404535748064518,0.9208889007568359
907,0.0080115906894207,0.9779999852180481,0.023891614750027657,0.921999990940094
908,0.007975160144269466,0.9779999852180481,0.02394658327102661,0.9204444289207458
909,0.008000915870070457,0.9779999852180481,0.023751050233840942,0.9222221970558167
910,0.00796747300773859,0.9779999852180481,0.02382541447877884,0.921999990940094
911,0.007950886152684689,0.9779999852180481,0.02408003993332386,0.9197777509689331
912,0.008036996237933636,0.9779999852180481,0.023876158520579338,0.9211111068725586
913,0.00796410720795393,0.9779999852180481,0.023911679163575172,0.9204444289207458
914,0.008033277466893196,0.9779999852180481,0.023870959877967834,0.9211111068725586
915,0.007938556373119354,0.9779999852180481,0.02392721176147461,0.9208889007568359
916,0.007963999174535275,0.9779999852180481,0.02377433516085148,0.9224444627761841
917,0.00792467501014471,0.9779999852180481,0.02391478791832924,0.9208889007568359
918,0.007950308732688427,0.9779999852180481,0.02376093901693821,0.9224444627761841
919,0.00796050950884819,0.9779999852180481,0.023811371996998787,0.9222221970558167
920,0.007906698621809483,0.9779999852180481,0.023880276829004288,0.9215555787086487
921,0.008001775480806828,0.9779999852180481,0.023789312690496445,0.921999990940094
922,0.007953301072120667,0.9779999852180481,0.02390214242041111,0.9224444627761841
923,0.008024526759982109,0.9779999852180481,0.023854343220591545,0.9215555787086487
924,0.007877781055867672,0.9779999852180481,0.023892013356089592,0.921999990940094
925,0.007915801368653774,0.9779999852180481,0.02389516495168209,0.9208889007568359
926,0.007939745672047138,0.9779999852180481,0.023804478347301483,0.9222221970558167
927,0.007953462190926075,0.9779999852180481,0.0238361656665802,0.921999990940094
928,0.007893015630543232,0.9779999852180481,0.023789096623659134,0.9224444627761841
929,0.007871583104133606,0.9779999852180481,0.023868350312113762,0.9215555787086487
930,0.007936258800327778,0.9779999852180481,0.023869208991527557,0.9222221970558167
931,0.00789033342152834,0.9779999852180481,0.023962553590536118,0.9211111068725586
932,0.007861360907554626,0.9779999852180481,0.023834973573684692,0.9217777848243713
933,0.007858162745833397,0.9779999852180481,0.02387711964547634,0.9213333129882812
934,0.007862471975386143,0.9779999852180481,0.02396579459309578,0.9222221970558167
935,0.007872211746871471,0.9779999852180481,0.023884667083621025,0.9211111068725586
936,0.007845128886401653,0.9779999852180481,0.02377774938941002,0.9226666688919067
937,0.00787122268229723,0.9779999852180481,0.023816777393221855,0.9222221970558167
938,0.00783289410173893,0.9779999852180481,0.023992709815502167,0.9206666946411133
939,0.00785345770418644,0.9779999852180481,0.024036331102252007,0.9206666946411133
940,0.007826700806617737,0.9779999852180481,0.024014005437493324,0.9208889007568359
941,0.00782432034611702,0.9779999852180481,0.023959919810295105,0.921999990940094
942,0.00786935817450285,0.9779999852180481,0.023858580738306046,0.921999990940094
943,0.00785411149263382,0.9779999852180481,0.023919599130749702,0.9217777848243713
944,0.007801876403391361,0.9779999852180481,0.02404601126909256,0.9211111068725586
945,0.007793506607413292,0.9779999852180481,0.02403385378420353,0.9213333129882812
946,0.007907256484031677,0.9779999852180481,0.024100227281451225,0.9200000166893005
947,0.007817030884325504,0.9779999852180481,0.024006452411413193,0.9213333129882812
948,0.007821818813681602,0.9779999852180481,0.02384169213473797,0.9222221970558167
949,0.007808544207364321,0.9779999852180481,0.023885810747742653,0.9215555787086487
950,0.007872277870774269,0.9779999852180481,0.02396920695900917,0.9206666946411133
951,0.007805471308529377,0.9779999852180481,0.023902468383312225,0.9217777848243713
952,0.007822239771485329,0.9779999852180481,0.023754345253109932,0.9222221970558167
953,0.007764351088553667,0.9779999852180481,0.02391165867447853,0.9217777848243713
954,0.007779403124004602,0.9779999852180481,0.023833366110920906,0.9217777848243713
955,0.007769111543893814,0.9779999852180481,0.02396765910089016,0.9213333129882812
956,0.007859339006245136,0.9779999852180481,0.023894859477877617,0.9208889007568359
957,0.007796002551913261,0.9779999852180481,0.02399781346321106,0.9206666946411133
958,0.007948107086122036,0.972000002861023,0.02389347180724144,0.9204444289207458
959,0.007936625741422176,0.9779999852180481,0.023957431316375732,0.9213333129882812
960,0.00777977891266346,0.9779999852180481,0.02396264486014843,0.9215555787086487
961,0.007916745729744434,0.9760000109672546,0.024054989218711853,0.9208889007568359
962,0.0077514322474598885,0.9779999852180481,0.024338193237781525,0.9191111326217651
963,0.007779179140925407,0.9779999852180481,0.024098524823784828,0.9204444289207458
964,0.007816984318196774,0.9779999852180481,0.023954110220074654,0.9208889007568359
965,0.00779064791277051,0.9779999852180481,0.02402345836162567,0.9208889007568359
966,0.007751953322440386,0.9779999852180481,0.023985743522644043,0.9208889007568359
967,0.007712156977504492,0.9779999852180481,0.024094708263874054,0.9204444289207458
968,0.0077629704028368,0.9779999852180481,0.0241419468075037,0.9211111068725586
969,0.0077939522452652454,0.9779999852180481,0.024016115814447403,0.9211111068725586
970,0.007702630944550037,0.9779999852180481,0.024052847176790237,0.9213333129882812
971,0.007716543506830931,0.9779999852180481,0.024110032245516777,0.9204444289207458
972,0.007689201273024082,0.9779999852180481,0.024068128317594528,0.9208889007568359
973,0.007756050676107407,0.9779999852180481,0.024185221642255783,0.9195555448532104
974,0.007733987178653479,0.9779999852180481,0.024247564375400543,0.9184444546699524
975,0.00779397739097476,0.9800000190734863,0.023973332718014717,0.9211111068725586
976,0.007694925181567669,0.9779999852180481,0.023997854441404343,0.9204444289207458
977,0.00770873948931694,0.9779999852180481,0.02410433441400528,0.9206666946411133
978,0.007685247343033552,0.9779999852180481,0.02400890178978443,0.9217777848243713
979,0.0077108521945774555,0.9779999852180481,0.023932378739118576,0.9215555787086487
980,0.007643465884029865,0.9779999852180481,0.02405727095901966,0.9202222228050232
981,0.007697184104472399,0.9779999852180481,0.02399350143969059,0.9211111068725586
982,0.0076407077722251415,0.9779999852180481,0.023982960730791092,0.9211111068725586
983,0.007654405664652586,0.9779999852180481,0.024040082469582558,0.9213333129882812
984,0.0076563553884625435,0.9779999852180481,0.023986151441931725,0.9213333129882812
985,0.007693445775657892,0.9779999852180481,0.02399672381579876,0.9213333129882812
986,0.0076390779577195644,0.9779999852180481,0.02426113933324814,0.9182222485542297
987,0.007623258512467146,0.9779999852180481,0.02420554682612419,0.9200000166893005
988,0.007679634727537632,0.9800000190734863,0.02398780733346939,0.9217777848243713
989,0.007682090159505606,0.9779999852180481,0.024080833420157433,0.9208889007568359
990,0.007691911421716213,0.9779999852180481,0.02403300441801548,0.9211111068725586
991,0.007790392264723778,0.9800000190734863,0.02417471632361412,0.9197777509689331
992,0.007589302957057953,0.9800000190734863,0.023898404091596603,0.9215555787086487
993,0.0076748402789235115,0.9779999852180481,0.02411908470094204,0.9197777509689331
994,0.007633262313902378,0.9779999852180481,0.023995088413357735,0.9213333129882812
995,0.007624244783073664,0.9779999852180481,0.02422955445945263,0.9193333387374878
996,0.007657090667635202,0.9779999852180481,0.024186894297599792,0.9188888669013977
997,0.0076032718643546104,0.9800000190734863,0.024038130417466164,0.9204444289207458
998,0.007638902403414249,0.9779999852180481,0.02407805621623993,0.9208889007568359
999,0.007656650152057409,0.9779999852180481,0.024055177345871925,0.9208889007568359
1000,0.007583610713481903,0.9800000190734863,0.02425513230264187,0.9173333048820496
1001,0.007634439971297979,0.9800000190734863,0.024023737758398056,0.9202222228050232
1002,0.007596784736961126,0.9800000190734863,0.024243978783488274,0.9200000166893005
1003,0.007582095917314291,0.9800000190734863,0.024197343736886978,0.9193333387374878
1004,0.007646518759429455,0.9779999852180481,0.02431393787264824,0.9188888669013977
1005,0.007578653283417225,0.9800000190734863,0.024177052080631256,0.9206666946411133
1006,0.007570044137537479,0.9779999852180481,0.024129817262291908,0.9206666946411133
1007,0.007559137884527445,0.9800000190734863,0.02422025427222252,0.9200000166893005
1008,0.0075352550484240055,0.9779999852180481,0.024171603843569756,0.9197777509689331
1009,0.007535131648182869,0.9800000190734863,0.02419535629451275,0.9202222228050232
1010,0.007609656546264887,0.9800000190734863,0.024202989414334297,0.9184444546699524
1011,0.007592480629682541,0.9800000190734863,0.02416948974132538,0.9200000166893005
1012,0.0075734579004347324,0.9800000190734863,0.024099407717585564,0.9211111068725586
1013,0.0075685447081923485,0.9800000190734863,0.02411690354347229,0.9208889007568359
1014,0.007670534308999777,0.9800000190734863,0.024398982524871826,0.918666660785675
1015,0.007638782728463411,0.9800000190734863,0.024276720359921455,0.9177777767181396
1016,0.007583616301417351,0.9779999852180481,0.024076079949736595,0.9213333129882812
1017,0.007521799765527248,0.9779999852180481,0.02422500215470791,0.9195555448532104
1018,0.007506089750677347,0.9800000190734863,0.024129537865519524,0.9200000166893005
1019,0.007622274570167065,0.9800000190734863,0.024145053699612617,0.9204444289207458
1020,0.007521372754126787,0.9800000190734863,0.024082545191049576,0.9204444289207458
1021,0.0075388625264167786,0.9800000190734863,0.024204662069678307,0.9200000166893005
1022,0.007533443160355091,0.9779999852180481,0.024333612993359566,0.918666660785675
1023,0.007522247731685638,0.9800000190734863,0.024154208600521088,0.9202222228050232
1024,0.007530333939939737,0.9800000190734863,0.024246586486697197,0.9208889007568359
1025,0.0074890898540616035,0.9800000190734863,0.024067265912890434,0.9202222228050232
1026,0.007533025927841663,0.9779999852180481,0.024196358397603035,0.9195555448532104
1027,0.007521751802414656,0.9800000190734863,0.02427639439702034,0.9191111326217651
1028,0.007523748558014631,0.9800000190734863,0.024308638647198677,0.9195555448532104
1029,0.007628197316080332,0.9760000109672546,0.024165434762835503,0.9193333387374878
1030,0.007452573161572218,0.9800000190734863,0.02436515875160694,0.9193333387374878
1031,0.007478875108063221,0.9800000190734863,0.024190258234739304,0.9197777509689331
1032,0.00752330431714654,0.9800000190734863,0.024276917800307274,0.9197777509689331
1033,0.007516406010836363,0.9800000190734863,0.02418823353946209,0.9191111326217651
1034,0.007457522675395012,0.9800000190734863,0.024372413754463196,0.9191111326217651
1035,0.007489134091883898,0.9800000190734863,0.024203715845942497,0.9193333387374878
1036,0.007516029290854931,0.9800000190734863,0.02432440221309662,0.918666660785675
1037,0.007527393288910389,0.9800000190734863,0.024389412254095078,0.9184444546699524
1038,0.007519861683249474,0.9800000190734863,0.024307003244757652,0.9200000166893005
1039,0.007530565373599529,0.9800000190734863,0.02431618981063366,0.9202222228050232
1040,0.007526054047048092,0.9800000190734863,0.02439405396580696,0.9182222485542297
1041,0.007523822598159313,0.9800000190734863,0.02424137108027935,0.9191111326217651
1042,0.007453791797161102,0.9800000190734863,0.024364179000258446,0.9184444546699524
1043,0.007478165440261364,0.9800000190734863,0.024445049464702606,0.9188888669013977
1044,0.007448128424584866,0.9800000190734863,0.024218136444687843,0.9191111326217651
1045,0.0075323875062167645,0.9800000190734863,0.02436375804245472,0.9193333387374878
1046,0.0074393851682543755,0.9800000190734863,0.024237193167209625,0.9195555448532104
1047,0.007438994478434324,0.9800000190734863,0.024240799248218536,0.9200000166893005
1048,0.007425982505083084,0.9800000190734863,0.024379273876547813,0.9179999828338623
1049,0.00749704334884882,0.9800000190734863,0.024274125695228577,0.9211111068725586
1050,0.007443769369274378,0.9800000190734863,0.0242132730782032,0.9206666946411133
1051,0.007410072721540928,0.9800000190734863,0.024159127846360207,0.9200000166893005
1052,0.00740391481667757,0.9800000190734863,0.024240246042609215,0.9204444289207458
1053,0.007498292718082666,0.9800000190734863,0.024050353094935417,0.9217777848243713
1054,0.0074354191310703754,0.9800000190734863,0.024265462532639503,0.9195555448532104
1055,0.007427528500556946,0.9800000190734863,0.02426520362496376,0.9182222485542297
1056,0.007439186796545982,0.9800000190734863,0.024450572207570076,0.9191111326217651
1057,0.00740983709692955,0.9800000190734863,0.02430885098874569,0.918666660785675
1058,0.007468430791050196,0.9800000190734863,0.024313312023878098,0.9197777509689331
1059,0.007398985326290131,0.9800000190734863,0.024346617981791496,0.9188888669013977
1060,0.007387750316411257,0.9800000190734863,0.02412516623735428,0.9191111326217651
1061,0.007403257768601179,0.9800000190734863,0.024349147453904152,0.9188888669013977
1062,0.007428813725709915,0.9800000190734863,0.024457544088363647,0.9179999828338623
1063,0.007375354412943125,0.9800000190734863,0.024257827550172806,0.9195555448532104
1064,0.007412397302687168,0.9800000190734863,0.02435091696679592,0.9182222485542297
1065,0.007454182952642441,0.9800000190734863,0.024453867226839066,0.9177777767181396
1066,0.007416552864015102,0.9800000190734863,0.0243120938539505,0.9195555448532104
1067,0.007446574978530407,0.9779999852180481,0.024208247661590576,0.9188888669013977
1068,0.007395524997264147,0.9800000190734863,0.02453552931547165,0.9171110987663269
1069,0.007391300052404404,0.9800000190734863,0.024517973884940147,0.9177777767181396
1070,0.007359240669757128,0.9800000190734863,0.02443767338991165,0.9182222485542297
1071,0.007397898938506842,0.9800000190734863,0.024529853835701942,0.9168888926506042
1072,0.007357717491686344,0.9800000190734863,0.024393685162067413,0.9195555448532104
1073,0.0073430477641522884,0.9800000190734863,0.024298759177327156,0.9191111326217651
1074,0.0073692686855793,0.9800000190734863,0.02437802031636238,0.9184444546699524
1075,0.0073471381329,0.9800000190734863,0.0244282279163599,0.9193333387374878
1076,0.007361923810094595,0.9800000190734863,0.024334678426384926,0.9191111326217651
1077,0.007303840480744839,0.9800000190734863,0.0245345551520586,0.9182222485542297
1078,0.0073335180059075356,0.9800000190734863,0.024296022951602936,0.9191111326217651
1079,0.007356348913162947,0.9800000190734863,0.024334033951163292,0.9202222228050232
1080,0.0073275151662528515,0.9800000190734863,0.024280652403831482,0.9193333387374878
1081,0.007316213101148605,0.9800000190734863,0.024270743131637573,0.9195555448532104
1082,0.007411641534417868,0.9779999852180481,0.02414196915924549,0.9188888669013977
1083,0.00736928591504693,0.9800000190734863,0.02444539964199066,0.9197777509689331
1084,0.0072942860424518585,0.9800000190734863,0.02437632344663143,0.9200000166893005
1085,0.007323971949517727,0.9800000190734863,0.02433767355978489,0.918666660785675
1086,0.007381618954241276,0.9800000190734863,0.024530520662665367,0.9168888926506042
1087,0.00729863066226244,0.9800000190734863,0.024490943178534508,0.9184444546699524
1088,0.007338051684200764,0.9800000190734863,0.024357806891202927,0.9184444546699524
1089,0.007293313276022673,0.9800000190734863,0.02458846941590309,0.9173333048820496
1090,0.007276041433215141,0.9800000190734863,0.0243732538074255,0.9191111326217651
1091,0.0073486496694386005,0.9800000190734863,0.02449801191687584,0.9177777767181396
1092,0.0072550387121737,0.9800000190734863,0.024658432230353355,0.9177777767181396
1093,0.007276066578924656,0.9800000190734863,0.024432959035038948,0.9188888669013977
1094,0.007313295733183622,0.9800000190734863,0.024566054344177246,0.9166666865348816
1095,0.007267962209880352,0.9800000190734863,0.024372592568397522,0.9193333387374878
1096,0.007287741173058748,0.9800000190734863,0.024292271584272385,0.9195555448532104
1097,0.007368499878793955,0.9800000190734863,0.024290069937705994,0.9191111326217651
1098,0.007292210590094328,0.9800000190734863,0.024410540238022804,0.9200000166893005
1099,0.007341488264501095,0.9800000190734863,0.02433124929666519,0.9188888669013977
1100,0.007264320272952318,0.9800000190734863,0.02416713908314705,0.9208889007568359
1101,0.007261614315211773,0.9800000190734863,0.024383829906582832,0.9182222485542297
1102,0.007282499689608812,0.9800000190734863,0.02430601976811886,0.918666660785675
1103,0.007272952236235142,0.9800000190734863,0.024276165291666985,0.9200000166893005
1104,0.007241413928568363,0.9800000190734863,0.024423686787486076,0.9184444546699524
1105,0.007257037330418825,0.9800000190734863,0.024395611137151718,0.9177777767181396
1106,0.007246878929436207,0.9800000190734863,0.024391906335949898,0.9184444546699524
1107,0.007297595031559467,0.9800000190734863,0.02439732849597931,0.9191111326217651
1108,0.0072715142741799355,0.9800000190734863,0.024462996050715446,0.9191111326217651
1109,0.007340832147747278,0.9800000190734863,0.024402664974331856,0.9188888669013977
1110,0.007298179902136326,0.9800000190734863,0.02451084740459919,0.9191111326217651
1111,0.007239986211061478,0.9800000190734863,0.02442236989736557,0.9193333387374878
1112,0.007207963615655899,0.9800000190734863,0.02452925778925419,0.9168888926506042
1113,0.007265063934028149,0.9800000190734863,0.024549413472414017,0.9171110987663269
1114,0.007235770113766193,0.9800000190734863,0.024541905149817467,0.9177777767181396
1115,0.007267918903380632,0.9800000190734863,0.024533864110708237,0.9171110987663269
1116,0.007216108031570911,0.9800000190734863,0.024399492889642715,0.918666660785675
1117,0.007207721006125212,0.9800000190734863,0.024523569270968437,0.9177777767181396
1118,0.007226403336971998,0.9800000190734863,0.0244164876639843,0.9188888669013977
1119,0.0071806153282523155,0.9800000190734863,0.024561826139688492,0.9177777767181396
1120,0.007193042431026697,0.9800000190734863,0.024500073865056038,0.917555570602417
1121,0.00720512168481946,0.9800000190734863,0.024456504732370377,0.9191111326217651
1122,0.007190125994384289,0.9800000190734863,0.024553921073675156,0.9173333048820496
1123,0.0072121997363865376,0.9800000190734863,0.024443915113806725,0.9191111326217651
1124,0.007178638130426407,0.9800000190734863,0.024521460756659508,0.9182222485542297
1125,0.007173445075750351,0.9800000190734863,0.02441738359630108,0.9182222485542297
1126,0.007259509526193142,0.9800000190734863,0.024501776322722435,0.9177777767181396
1127,0.007260976359248161,0.9819999933242798,0.024558579549193382,0.918666660785675
1128,0.0071533480659127235,0.9800000190734863,0.024646328762173653,0.9177777767181396
1129,0.0072190784849226475,0.9800000190734863,0.02460079826414585,0.9168888926506042
1130,0.007214793004095554,0.9800000190734863,0.02445496805012226,0.9184444546699524
1131,0.007163922302424908,0.9800000190734863,0.024538259953260422,0.9179999828338623
1132,0.007173073478043079,0.9800000190734863,0.024380985647439957,0.918666660785675
1133,0.0071456716395914555,0.9800000190734863,0.024514973163604736,0.9177777767181396
1134,0.007155252620577812,0.9800000190734863,0.024466335773468018,0.918666660785675
1135,0.0071753826923668385,0.9800000190734863,0.02452186867594719,0.9188888669013977
1136,0.00719266664236784,0.9800000190734863,0.024547379463911057,0.9168888926506042
1137,0.007216118276119232,0.9800000190734863,0.024549389258027077,0.918666660785675
1138,0.0071881357580423355,0.9800000190734863,0.024404633790254593,0.918666660785675
1139,0.007188876159489155,0.9819999933242798,0.024636972695589066,0.917555570602417
1140,0.007153593935072422,0.9800000190734863,0.02464219555258751,0.9177777767181396
1141,0.0072129652835428715,0.9800000190734863,0.02451055683195591,0.917555570602417
1142,0.007206394802778959,0.9800000190734863,0.024555876851081848,0.9179999828338623
1143,0.007129428442567587,0.9800000190734863,0.024419018998742104,0.9191111326217651
1144,0.007193892262876034,0.9800000190734863,0.024430690333247185,0.9184444546699524
1145,0.007132877595722675,0.9800000190734863,0.024722130969166756,0.917555570602417
1146,0.007131309248507023,0.9800000190734863,0.024600541219115257,0.9184444546699524
1147,0.007114996202290058,0.9800000190734863,0.02449185587465763,0.918666660785675
1148,0.007108488120138645,0.9800000190734863,0.02450367994606495,0.9184444546699524
1149,0.007112265098839998,0.9800000190734863,0.024567121639847755,0.9182222485542297
1150,0.0071565224789083,0.9800000190734863,0.024475714191794395,0.918666660785675
1151,0.0071031274273991585,0.9819999933242798,0.024743737652897835,0.9168888926506042
1152,0.007140866946429014,0.9800000190734863,0.02457612194120884,0.9173333048820496
1153,0.0071153040044009686,0.9800000190734863,0.024623068049550056,0.9179999828338623
1154,0.007121828850358725,0.9800000190734863,0.024590810760855675,0.917555570602417
1155,0.007091693580150604,0.9800000190734863,0.02453012764453888,0.9182222485542297
1156,0.007081386633217335,0.9800000190734863,0.024720003828406334,0.9179999828338623
1157,0.00704807136207819,0.9800000190734863,0.024475950747728348,0.9202222228050232
1158,0.007084347773343325,0.9800000190734863,0.024556796997785568,0.9173333048820496
1159,0.007085741031914949,0.9800000190734863,0.024366304278373718,0.918666660785675
1160,0.0071501173079013824,0.9800000190734863,0.024491801857948303,0.9197777509689331
1161,0.007344789337366819,0.9779999852180481,0.0244876928627491,0.9188888669013977
1162,0.0072270771488547325,0.9800000190734863,0.024641185998916626,0.9173333048820496
1163,0.007077239453792572,0.9819999933242798,0.024733996018767357,0.9182222485542297
1164,0.007036988157778978,0.9819999933242798,0.024798424914479256,0.9164444208145142
1165,0.007065628655254841,0.9800000190734863,0.024672595784068108,0.9162222146987915
1166,0.007085088174790144,0.9800000190734863,0.024661531671881676,0.917555570602417
1167,0.007037876173853874,0.9800000190734863,0.02455504611134529,0.9177777767181396
1168,0.007088411599397659,0.9800000190734863,0.024556519463658333,0.9182222485542297
1169,0.007102465722709894,0.9800000190734863,0.024677738547325134,0.918666660785675
1170,0.007143895607441664,0.9819999933242798,0.024708278477191925,0.9173333048820496
1171,0.007037400268018246,0.9800000190734863,0.024740315973758698,0.9173333048820496
1172,0.007044263184070587,0.9800000190734863,0.024598272517323494,0.9182222485542297
1173,0.007094269618391991,0.9800000190734863,0.024718228727579117,0.9173333048820496
1174,0.007067751605063677,0.9819999933242798,0.02456696704030037,0.9184444546699524
1175,0.007016345858573914,0.9800000190734863,0.02489463984966278,0.9157778024673462
1176,0.007096586283296347,0.9800000190734863,0.024563098326325417,0.9184444546699524
1177,0.007095822133123875,0.9800000190734863,0.02461557276546955,0.917555570602417
1178,0.0070250313729047775,0.9800000190734863,0.024553101509809494,0.9184444546699524
1179,0.007040560711175203,0.9800000190734863,0.024696314707398415,0.9162222146987915
1180,0.0070269410498440266,0.9800000190734863,0.02450999617576599,0.9184444546699524
1181,0.007067359983921051,0.9819999933242798,0.02476450800895691,0.9160000085830688
1182,0.007063521072268486,0.9800000190734863,0.024678507819771767,0.9177777767181396
1183,0.007019686978310347,0.9800000190734863,0.024577736854553223,0.9184444546699524
1184,0.00702411774545908,0.9800000190734863,0.024584760889410973,0.9179999828338623
1185,0.007030189968645573,0.9819999933242798,0.024722445756196976,0.9173333048820496
1186,0.007040462922304869,0.9800000190734863,0.02470804564654827,0.9171110987663269
1187,0.00706856232136488,0.9800000190734863,0.024574950337409973,0.9184444546699524
1188,0.007028344552963972,0.9800000190734863,0.024542076513171196,0.9184444546699524
1189,0.0070007904432713985,0.9800000190734863,0.024652298539876938,0.9157778024673462
1190,0.007089252583682537,0.9800000190734863,0.024714523926377296,0.9184444546699524
1191,0.007019953802227974,0.9800000190734863,0.02471841685473919,0.9177777767181396
1192,0.007095476612448692,0.9800000190734863,0.024667054414749146,0.9171110987663269
1193,0.007020529825240374,0.9819999933242798,0.024675402790308,0.917555570602417
1194,0.0069597032852470875,0.9819999933242798,0.02460174821317196,0.9179999828338623
1195,0.007014302536845207,0.9800000190734863,0.024719510227441788,0.9168888926506042
1196,0.00700907688587904,0.9800000190734863,0.02464093267917633,0.9182222485542297
1197,0.007026422768831253,0.9800000190734863,0.02459672838449478,0.9184444546699524
1198,0.006977526005357504,0.9800000190734863,0.02450871653854847,0.9193333387374878
1199,0.007041878066956997,0.9800000190734863,0.024691149592399597,0.917555570602417
1200,0.006999344099313021,0.9819999933242798,0.024500131607055664,0.9193333387374878
1201,0.006967737339437008,0.9800000190734863,0.024633264169096947,0.9171110987663269
1202,0.0070275552570819855,0.9800000190734863,0.02468797378242016,0.918666660785675
1203,0.006959510035812855,0.9800000190734863,0.024830903857946396,0.9171110987663269
1204,0.006914687808603048,0.9800000190734863,0.024566015228629112,0.918666660785675
1205,0.006962786894291639,0.9819999933242798,0.024746771901845932,0.9166666865348816
1206,0.006999393925070763,0.9800000190734863,0.024785425513982773,0.9166666865348816
1207,0.00698322057723999,0.9819999933242798,0.02446706034243107,0.9179999828338623
1208,0.006941956002265215,0.9819999933242798,0.02480464056134224,0.9173333048820496
1209,0.006944895256310701,0.9800000190734863,0.024476183578372,0.9182222485542297
1210,0.006944762542843819,0.9800000190734863,0.024712761864066124,0.9173333048820496
1211,0.006961338222026825,0.9819999933242798,0.024681830778717995,0.9173333048820496
1212,0.006921140011399984,0.9819999933242798,0.02471817098557949,0.917555570602417
1213,0.006930815055966377,0.9800000190734863,0.024525586515665054,0.9177777767181396
1214,0.00695548951625824,0.9800000190734863,0.024577399715781212,0.9191111326217651
1215,0.006914135534316301,0.9819999933242798,0.024611109867691994,0.918666660785675
1216,0.006963037420064211,0.9800000190734863,0.0246506929397583,0.918666660785675
1217,0.006938098464161158,0.9819999933242798,0.02461332455277443,0.9184444546699524
1218,0.006910081021487713,0.9819999933242798,0.02464611455798149,0.918666660785675
1219,0.006941880099475384,0.9800000190734863,0.02481442503631115,0.9171110987663269
1220,0.00691219512373209,0.9819999933242798,0.02459256537258625,0.9179999828338623
1221,0.006916760932654142,0.9819999933242798,0.024702170863747597,0.9173333048820496
1222,0.006936710327863693,0.9800000190734863,0.024727940559387207,0.9173333048820496
1223,0.007020189426839352,0.9800000190734863,0.02477949857711792,0.9171110987663269
1224,0.00694007845595479,0.9819999933242798,0.024682171642780304,0.9182222485542297
1225,0.006909268908202648,0.9800000190734863,0.024766212329268456,0.918666660785675
1226,0.006868960335850716,0.9819999933242798,0.02462562546133995,0.9191111326217651
1227,0.006994223687797785,0.9819999933242798,0.024433527141809464,0.9200000166893005
1228,0.006896912585943937,0.9819999933242798,0.024721449241042137,0.917555570602417
1229,0.006911018397659063,0.9800000190734863,0.02477709949016571,0.9173333048820496
1230,0.0069073401391506195,0.9819999933242798,0.02458416111767292,0.9195555448532104
1231,0.006877896375954151,0.9819999933242798,0.0247134231030941,0.9184444546699524
1232,0.006882049608975649,0.9800000190734863,0.0247206911444664,0.9184444546699524
1233,0.006888667121529579,0.9800000190734863,0.024626202881336212,0.918666660785675
1234,0.006991551257669926,0.9800000190734863,0.024607550352811813,0.9179999828338623
1235,0.006847748067229986,0.9819999933242798,0.024610714986920357,0.918666660785675
1236,0.006882146932184696,0.9800000190734863,0.024572717025876045,0.9195555448532104
1237,0.006872819270938635,0.9800000190734863,0.024664029479026794,0.9184444546699524
1238,0.006845394615083933,0.9800000190734863,0.024665502831339836,0.918666660785675
1239,0.006842943374067545,0.9819999933242798,0.02457251027226448,0.9188888669013977
1240,0.00692560663446784,0.9819999933242798,0.02484540082514286,0.9162222146987915
1241,0.006894280202686787,0.9800000190734863,0.024807661771774292,0.9177777767181396
1242,0.006842173635959625,0.9819999933242798,0.024958379566669464,0.9166666865348816
1243,0.006852252408862114,0.9819999933242798,0.02460401877760887,0.9197777509689331
1244,0.006837635766714811,0.9819999933242798,0.02479342743754387,0.9171110987663269
1245,0.006904782261699438,0.9800000190734863,0.02466697432100773,0.9184444546699524
1246,0.0068875644356012344,0.9800000190734863,0.024853529408574104,0.9177777767181396
1247,0.006874674465507269,0.9819999933242798,0.024741891771554947,0.917555570602417
1248,0.006846161559224129,0.9819999933242798,0.02455027401447296,0.9193333387374878
1249,0.006807269528508186,0.9819999933242798,0.024853790178894997,0.9168888926506042
1250,0.006829243153333664,0.9800000190734863,0.024690350517630577,0.9191111326217651
1251,0.0068404413759708405,0.9800000190734863,0.024829493835568428,0.9171110987663269
1252,0.006810727063566446,0.9819999933242798,0.024715876206755638,0.9182222485542297
1253,0.006873683072626591,0.9819999933242798,0.02483612298965454,0.9171110987663269
1254,0.00684773363173008,0.9819999933242798,0.024836361408233643,0.9171110987663269
1255,0.006826752331107855,0.9800000190734863,0.02486558072268963,0.9168888926506042
1256,0.006851425860077143,0.9819999933242798,0.02461729198694229,0.9195555448532104
1257,0.00677013024687767,0.9819999933242798,0.0248301662504673,0.9182222485542297
1258,0.006815288681536913,0.9800000190734863,0.02473430149257183,0.9182222485542297
1259,0.0069380709901452065,0.9800000190734863,0.02483251690864563,0.9173333048820496
1260,0.006928976625204086,0.9819999933242798,0.024801086634397507,0.9179999828338623
1261,0.006796753965318203,0.9819999933242798,0.02491491101682186,0.917555570602417
1262,0.006803459953516722,0.9819999933242798,0.024582630023360252,0.918666660785675
1263,0.006789017003029585,0.9819999933242798,0.024934429675340652,0.9168888926506042
1264,0.006805329117923975,0.9819999933242798,0.024685293436050415,0.9184444546699524
1265,0.0067697130143642426,0.9819999933242798,0.024795589968562126,0.9179999828338623
1266,0.006774502340704203,0.9800000190734863,0.024715909734368324,0.9188888669013977
1267,0.00678613455966115,0.9819999933242798,0.024776481091976166,0.9182222485542297
1268,0.006772114895284176,0.9819999933242798,0.024684587493538857,0.9191111326217651
1269,0.006774199195206165,0.9819999933242798,0.024897024035453796,0.9164444208145142
1270,0.006780748255550861,0.9819999933242798,0.02477426640689373,0.9188888669013977
1271,0.006800727918744087,0.9800000190734863,0.024829711765050888,0.9171110987663269
1272,0.0067939767614007,0.9819999933242798,0.02465680241584778,0.9191111326217651
1273,0.006740866228938103,0.9819999933242798,0.024869460612535477,0.9168888926506042
1274,0.006764258723706007,0.9800000190734863,0.02487817406654358,0.9179999828338623
1275,0.006770383566617966,0.9819999933242798,0.024765193462371826,0.9182222485542297
1276,0.0068006860092282295,0.9819999933242798,0.025081323459744453,0.9171110987663269
1277,0.006767456419765949,0.9819999933242798,0.02474358305335045,0.918666660785675
1278,0.006725627928972244,0.9819999933242798,0.024837013334035873,0.9173333048820496
1279,0.006761881057173014,0.9819999933242798,0.024725884199142456,0.9184444546699524
1280,0.0067319562658667564,0.9819999933242798,0.0247834213078022,0.9188888669013977
1281,0.006727746222168207,0.9819999933242798,0.024778787046670914,0.918666660785675
1282,0.0067506092600524426,0.9800000190734863,0.024851229041814804,0.9179999828338623
1283,0.006741184741258621,0.9819999933242798,0.024784386157989502,0.9182222485542297
1284,0.006710152141749859,0.9819999933242798,0.024887192994356155,0.9191111326217651
1285,0.006710890214890242,0.9819999933242798,0.02499927580356598,0.9168888926506042
1286,0.006717609241604805,0.9819999933242798,0.024884281679987907,0.9182222485542297
1287,0.006767656188458204,0.9819999933242798,0.02474188432097435,0.9193333387374878
1288,0.00674294400960207,0.9800000190734863,0.02458634227514267,0.9193333387374878
1289,0.006713322829455137,0.9819999933242798,0.02468412183225155,0.9191111326217651
1290,0.006767564453184605,0.9819999933242798,0.024853743612766266,0.9191111326217651
1291,0.006737218238413334,0.9819999933242798,0.024872932583093643,0.9179999828338623
1292,0.0066931177861988544,0.9819999933242798,0.02487166039645672,0.9184444546699524
1293,0.006696315016597509,0.9800000190734863,0.02485777996480465,0.9171110987663269
1294,0.006680257152765989,0.9819999933242798,0.024763844907283783,0.9184444546699524
1295,0.006682380568236113,0.9819999933242798,0.024772290140390396,0.918666660785675
1296,0.006708784494549036,0.9819999933242798,0.0251661017537117,0.9153333306312561
1297,0.0068055856972932816,0.9819999933242798,0.024823764339089394,0.9182222485542297
1298,0.006733038928359747,0.9819999933242798,0.02485043928027153,0.9182222485542297
1299,0.006761191878467798,0.9800000190734863,0.024882199242711067,0.9188888669013977
1300,0.006698055658489466,0.9819999933242798,0.02460172027349472,0.9204444289207458
1301,0.006664015352725983,0.9819999933242798,0.0249484870582819,0.9171110987663269
1302,0.0066724251955747604,0.9819999933242798,0.02489468641579151,0.9184444546699524
1303,0.006719710770994425,0.9819999933242798,0.024766037240624428,0.9191111326217651
1304,0.006814621854573488,0.9819999933242798,0.02501242607831955,0.9173333048820496
1305,0.006671440787613392,0.9819999933242798,0.024869175627827644,0.9179999828338623
1306,0.00673651322722435,0.9819999933242798,0.024846430867910385,0.9193333387374878
1307,0.006680515129119158,0.9819999933242798,0.02492961660027504,0.918666660785675
1308,0.006648767739534378,0.9800000190734863,0.024913424625992775,0.9191111326217651
1309,0.006665821187198162,0.9819999933242798,0.0249831210821867,0.9173333048820496
1310,0.0066330828703939915,0.9819999933242798,0.02495570480823517,0.9164444208145142
1311,0.006631491705775261,0.9819999933242798,0.024887068197131157,0.9184444546699524
1312,0.006687484215945005,0.9819999933242798,0.024791715666651726,0.9193333387374878
1313,0.006628986913710833,0.9819999933242798,0.024898147210478783,0.9184444546699524
1314,0.006643249653279781,0.9819999933242798,0.024904754012823105,0.9182222485542297
1315,0.006632624659687281,0.9819999933242798,0.024879714474081993,0.918666660785675
1316,0.006638864055275917,0.9819999933242798,0.02486686408519745,0.9177777767181396
1317,0.006612908560782671,0.9819999933242798,0.025207513943314552,0.9173333048820496
1318,0.006629027891904116,0.9819999933242798,0.0250921081751585,0.9171110987663269
1319,0.0066192615777254105,0.9819999933242798,0.02500573731958866,0.9171110987663269
1320,0.006648295093327761,0.9819999933242798,0.02494153194129467,0.9184444546699524
1321,0.0065999687649309635,0.9819999933242798,0.025143640115857124,0.9151111245155334
1322,0.006603316403925419,0.9819999933242798,0.024895889684557915,0.9184444546699524
1323,0.0066261496394872665,0.9819999933242798,0.02507978118956089,0.9153333306312561
1324,0.006617440842092037,0.9819999933242798,0.024761315435171127,0.9195555448532104
1325,0.006605852860957384,0.9819999933242798,0.02498232200741768,0.9164444208145142
1326,0.006614085286855698,0.9800000190734863,0.02492404542863369,0.9182222485542297
1327,0.006673282478004694,0.9819999933242798,0.025052307173609734,0.9179999828338623
1328,0.006576813291758299,0.9819999933242798,0.024978283792734146,0.9162222146987915
1329,0.006609378848224878,0.9819999933242798,0.02490071766078472,0.918666660785675
1330,0.006574180442839861,0.9819999933242798,0.025019414722919464,0.9168888926506042
1331,0.00659522321075201,0.9819999933242798,0.024985993281006813,0.9179999828338623
1332,0.006563752423971891,0.9819999933242798,0.024836253374814987,0.9188888669013977
1333,0.006583480630069971,0.9819999933242798,0.024836422875523567,0.9195555448532104
1334,0.00660461513325572,0.9819999933242798,0.0251005906611681,0.9171110987663269
1335,0.006574647035449743,0.9819999933242798,0.025047820061445236,0.9166666865348816
1336,0.006551701575517654,0.9819999933242798,0.024894610047340393,0.9177777767181396
1337,0.00656127231195569,0.9819999933242798,0.02491561695933342,0.9173333048820496
1338,0.006543655879795551,0.9819999933242798,0.02481936477124691,0.9191111326217651
1339,0.006551412399858236,0.9819999933242798,0.024829695001244545,0.9182222485542297
1340,0.00655587250366807,0.9819999933242798,0.025080934166908264,0.9171110987663269
1341,0.006577619817107916,0.9819999933242798,0.02487329952418804,0.9188888669013977
1342,0.0065433792769908905,0.9819999933242798,0.02510949969291687,0.917555570602417
1343,0.0065328083001077175,0.9819999933242798,0.024809332564473152,0.9193333387374878
1344,0.006548686418682337,0.9819999933242798,0.024868501350283623,0.9184444546699524
1345,0.006538082379847765,0.9819999933242798,0.025065364316105843,0.917555570602417
1346,0.006559631321579218,0.9819999933242798,0.02525709755718708,0.9164444208145142
1347,0.006527554243803024,0.9819999933242798,0.02490968070924282,0.918666660785675
1348,0.0065644970163702965,0.9819999933242798,0.025079473853111267,0.9177777767181396
1349,0.006525067146867514,0.9819999933242798,0.02496539056301117,0.9184444546699524
1350,0.0065355924889445305,0.9800000190734863,0.02500624768435955,0.9173333048820496
1351,0.006500582210719585,0.9819999933242798,0.024992743507027626,0.917555570602417
1352,0.006474906112998724,0.9819999933242798,0.025090523064136505,0.9160000085830688
1353,0.006506594363600016,0.9819999933242798,0.02493163011968136,0.9188888669013977
1354,0.006539948750287294,0.9819999933242798,0.025007452815771103,0.9179999828338623
1355,0.00653940811753273,0.9819999933242798,0.024978812783956528,0.917555570602417
1356,0.006502132397145033,0.9819999933242798,0.025021029636263847,0.9182222485542297
1357,0.006506216712296009,0.9819999933242798,0.02490941993892193,0.9188888669013977
1358,0.006507580634206533,0.9819999933242798,0.025078171864151955,0.9184444546699524
1359,0.006515584420412779,0.9819999933242798,0.024953991174697876,0.9184444546699524
1360,0.006487246137112379,0.9819999933242798,0.025016464293003082,0.918666660785675
1361,0.006521178875118494,0.9819999933242798,0.025048812851309776,0.9179999828338623
1362,0.006475822068750858,0.9819999933242798,0.02512173354625702,0.9162222146987915
1363,0.006524496246129274,0.9819999933242798,0.025129549205303192,0.9160000085830688
1364,0.006433646660298109,0.9819999933242798,0.024929963052272797,0.9193333387374878
1365,0.006452689878642559,0.9819999933242798,0.02508719637989998,0.9177777767181396
1366,0.006453188601881266,0.9819999933242798,0.02506604790687561,0.9168888926506042
1367,0.006425163242965937,0.9819999933242798,0.02507494017481804,0.9168888926506042
1368,0.006457833107560873,0.9819999933242798,0.025130942463874817,0.9157778024673462
1369,0.006451670080423355,0.9819999933242798,0.025156332179903984,0.9166666865348816
1370,0.006445939652621746,0.9819999933242798,0.025043414905667305,0.918666660785675
1371,0.006419443525373936,0.9819999933242798,0.025042232125997543,0.9179999828338623
1372,0.0064459266141057014,0.9819999933242798,0.025088146328926086,0.9162222146987915
1373,0.0064085316844284534,0.9819999933242798,0.025044534355401993,0.9173333048820496
1374,0.00643102778121829,0.9819999933242798,0.025102540850639343,0.9168888926506042
1375,0.006456006783992052,0.9819999933242798,0.025024227797985077,0.9179999828338623
1376,0.006448700092732906,0.9819999933242798,0.025107258930802345,0.9164444208145142
1377,0.00653907610103488,0.9819999933242798,0.025166640058159828,0.9166666865348816
1378,0.006501561496406794,0.9819999933242798,0.02512926049530506,0.9166666865348816
1379,0.006411773152649403,0.9819999933242798,0.024975523352622986,0.9177777767181396
1380,0.006420801393687725,0.9819999933242798,0.024940725415945053,0.918666660785675
1381,0.0064103491604328156,0.9819999933242798,0.02512774057686329,0.9173333048820496
1382,0.006409982684999704,0.9819999933242798,0.025139447301626205,0.9168888926506042
1383,0.006401974242180586,0.9819999933242798,0.02499524876475334,0.9177777767181396
1384,0.006437060423195362,0.9819999933242798,0.025263454765081406,0.9164444208145142
1385,0.006401506718248129,0.9819999933242798,0.025054514408111572,0.9171110987663269
1386,0.006394062656909227,0.9819999933242798,0.025060152634978294,0.9179999828338623
1387,0.006361762061715126,0.9819999933242798,0.02519007958471775,0.9168888926506042
1388,0.006405107211321592,0.9819999933242798,0.02503068931400776,0.9168888926506042
1389,0.006409189198166132,0.9819999933242798,0.025090327486395836,0.9168888926506042
1390,0.00640956312417984,0.9819999933242798,0.024918053299188614,0.9193333387374878
1391,0.006379138678312302,0.9819999933242798,0.025013932958245277,0.9182222485542297
1392,0.006337046157568693,0.9819999933242798,0.025103135034441948,0.9166666865348816
1393,0.006375274155288935,0.9819999933242798,0.02519947662949562,0.9166666865348816
1394,0.006388999056071043,0.9819999933242798,0.025007009506225586,0.9182222485542297
1395,0.006403967272490263,0.9819999933242798,0.025191230699419975,0.9168888926506042
1396,0.006400538608431816,0.9819999933242798,0.025073466822504997,0.9171110987663269
1397,0.006356876343488693,0.9819999933242798,0.02516239508986473,0.9164444208145142
1398,0.006319505162537098,0.9819999933242798,0.02518784999847412,0.9164444208145142
1399,0.0063495575450360775,0.9819999933242798,0.02506757527589798,0.9166666865348816
1400,0.0063517410308122635,0.9819999933242798,0.025153223425149918,0.9164444208145142
1401,0.0062955631874501705,0.9819999933242798,0.025026973336935043,0.9184444546699524
1402,0.006346357055008411,0.9819999933242798,0.025207189843058586,0.917555570602417
1403,0.006369139067828655,0.9819999933242798,0.02516062930226326,0.9173333048820496
1404,0.0063932728953659534,0.9819999933242798,0.025091910734772682,0.917555570602417
1405,0.006341481581330299,0.9819999933242798,0.02488318458199501,0.9188888669013977
1406,0.006288211327046156,0.9819999933242798,0.025162512436509132,0.9171110987663269
1407,0.006399228237569332,0.9819999933242798,0.024962855502963066,0.9171110987663269
1408,0.0064283800311386585,0.9819999933242798,0.025035999715328217,0.917555570602417
1409,0.006329461000859737,0.9819999933242798,0.024880006909370422,0.9182222485542297
1410,0.00628921901807189,0.9819999933242798,0.025140434503555298,0.9171110987663269
1411,0.006301245652139187,0.9819999933242798,0.025194408372044563,0.9168888926506042
1412,0.006297392770648003,0.9819999933242798,0.02512442320585251,0.9177777767181396
1413,0.00632037129253149,0.9819999933242798,0.02495640702545643,0.9177777767181396
1414,0.006292892154306173,0.9819999933242798,0.025021454319357872,0.9173333048820496
1415,0.00629727216437459,0.9819999933242798,0.02530999667942524,0.9171110987663269
1416,0.0062628560699522495,0.9819999933242798,0.025146814063191414,0.9166666865348816
1417,0.0063094524666666985,0.9819999933242798,0.025129012763500214,0.9171110987663269
1418,0.00628275889903307,0.9819999933242798,0.02529769577085972,0.9173333048820496
1419,0.006381998769938946,0.9819999933242798,0.025107596069574356,0.9168888926506042
1420,0.006317907478660345,0.9819999933242798,0.0250694677233696,0.917555570602417
1421,0.0062535530887544155,0.9819999933242798,0.0252399742603302,0.9171110987663269
1422,0.0062529477290809155,0.9819999933242798,0.025149943307042122,0.9171110987663269
1423,0.00625648396089673,0.9819999933242798,0.025143103674054146,0.9177777767181396
1424,0.006243695504963398,0.9819999933242798,0.025126617401838303,0.917555570602417
1425,0.006240245420485735,0.9819999933242798,0.02531004510819912,0.9168888926506042
1426,0.006213129032403231,0.9819999933242798,0.02510055899620056,0.9179999828338623
1427,0.006241087336093187,0.9819999933242798,0.025084322318434715,0.9177777767181396
1428,0.006226096767932177,0.9819999933242798,0.025183653458952904,0.9168888926506042
1429,0.006270746234804392,0.9819999933242798,0.025140583515167236,0.9173333048820496
1430,0.006224248092621565,0.9819999933242798,0.025080956518650055,0.9177777767181396
1431,0.006274187937378883,0.9819999933242798,0.02528279833495617,0.9171110987663269
1432,0.006354992743581533,0.9819999933242798,0.02523927018046379,0.9166666865348816
1433,0.006214697379618883,0.9819999933242798,0.025215696543455124,0.9173333048820496
1434,0.006223608274012804,0.9819999933242798,0.02528230845928192,0.9166666865348816
1435,0.006206745747476816,0.9819999933242798,0.02533741481602192,0.9166666865348816
