,loss,recall,val_loss,val_recall
0,67.49018859863281,0.28515625,41636.8203125,0.5591905381944444
1,11.915618896484375,0.5106411637931034,11.360735893249512,0.10931712962962964
2,26.23877716064453,0.2128151260504202,6.184662818908691,0.5591905381944444
3,11.84296989440918,0.53515625,3.245225191116333,0.5591905381944444
4,2.8669302463531494,0.5021775486028848,3.4277868270874023,0.10931712962962964
5,6.197078704833984,0.4107142857142857,1.8416012525558472,0.5591905381944444
6,1.1452550888061523,0.7110000000000001,3.845506429672241,0.10938411008942321
7,3.34430193901062,0.38268301746562616,5.042067527770996,0.12516882903742932
8,2.391571521759033,0.38991488068095453,3.5017292499542236,0.10931712962962964
9,2.6583797931671143,0.45644963144963147,1.6153780221939087,0.5918408289241622
10,3.499655246734619,0.43629032258064515,1.8320919275283813,0.10931712962962964
11,2.5398709774017334,0.2606411637931034,2.1538326740264893,0.10931712962962964
12,3.1787681579589844,0.3483606557377049,2.3407955169677734,0.5193757233796297
13,1.114107370376587,0.4478353658536586,2.110679864883423,0.10931712962962964
14,3.271040678024292,0.12734375,1.4253491163253784,0.43073198381666117
15,2.466263771057129,0.3460569105691057,1.367894172668457,0.5550524934383202
16,1.0032631158828735,0.45325203252032525,1.2383321523666382,0.1993831014207891
17,2.0124943256378174,0.4452860169491526,1.1247971057891846,0.5669043452901721
18,1.8872854709625244,0.536,1.0556436777114868,0.6134545855379188
19,1.1466933488845825,0.40342809364548493,1.174794316291809,0.5897729276895942
20,1.3569287061691284,0.45859013867488446,1.177820086479187,0.18659884293045856
21,1.657241702079773,0.43887965505612564,1.0597243309020996,0.5786812789351852
22,2.0603628158569336,0.451029526029526,1.1389875411987305,0.5631257233796296
23,1.1760601997375488,0.45670995670995673,0.9794090390205383,0.5575701678240742
24,1.1555190086364746,0.45815634218289086,0.9706447720527649,0.5816728638086904
25,1.3718183040618896,0.4532920546859521,1.1413540840148926,0.4136143609346875
26,1.1416984796524048,0.46117543859649124,1.069701075553894,0.45348147943948525
27,1.6328271627426147,0.4212844036697248,1.0222829580307007,0.5985471781305114
28,1.1444265842437744,0.386864406779661,1.1356072425842285,0.6021053791887124
29,2.2851920127868652,0.450187969924812,1.1178795099258423,0.5979982363315696
30,1.030055046081543,0.504144023528379,2.2356388568878174,0.5713598490726526
31,1.2432739734649658,0.48900208986415883,2.3991997241973877,0.4205245702261806
32,1.8259212970733643,0.3840297965116279,1.7786089181900024,0.47255812856069057
33,2.384425401687622,0.4811650992685475,1.9337249994277954,0.5068531277435536
34,0.8468072414398193,0.3846635698198198,1.220037817955017,0.34462751254619883
35,1.3231779336929321,0.5407113478302713,0.933814287185669,0.48775509190298905
36,0.9500128030776978,0.5246212121212122,0.8875389695167542,0.4738159846865942
37,3.144991159439087,0.47858974358974354,278.0443420410156,0.5591905381944444
38,1.6699182987213135,0.5773159636062861,270.0335998535156,0.3726415128038423
39,4.2989606857299805,0.37680027173913044,299.9546813964844,0.37148762566669247
40,4.773735046386719,0.24348958333333331,132.26837158203125,0.37622902655051
41,3.376077175140381,0.3856411637931034,34.10942077636719,0.3876054827201323
42,3.3465969562530518,0.34554924242424245,33.2377815246582,0.3046430333578812
43,1.0651808977127075,0.40486273644230847,4.369686126708984,0.37616090753313997
44,2.308786392211914,0.501502390065793,9.229535102844238,0.3764353701117562
45,0.842436671257019,0.4036231884057971,3.3255562782287598,0.37608414455119227
46,1.9653689861297607,0.37878605769230766,5.623586177825928,0.37606785820850913
47,1.7626774311065674,0.5731997282608696,3.0202646255493164,0.3761245632086594
48,1.8969635963439941,0.3856411637931034,1.9369348287582397,0.3749818751548159
49,1.8699980974197388,0.4980571161048689,2.20939564704895,0.37037363957830377
50,0.6788883209228516,0.7422762470028694,1.160966157913208,0.37638676311526986
51,1.046844720840454,0.46454363219827133,1.1861224174499512,0.3742966402779893
52,0.927476167678833,0.6148888888888888,1.5303809642791748,0.3684003159856663
53,0.3281490206718445,0.643438003220612,1.0253804922103882,0.37631783692392873
54,0.7823261022567749,0.44712278418397966,1.2765809297561646,0.37640512547662963
55,0.3946552872657776,0.7868290112427875,0.9049246311187744,0.3762516388825539
56,1.0170488357543945,0.5303125595578425,1.8054466247558594,0.3687809115465578
57,0.5865739583969116,0.791394393969344,1.5625734329223633,0.36954374734811535
58,0.4713962972164154,0.5610599198099198,1.2457160949707031,0.3765048669828657
59,0.36216387152671814,0.5652644178238672,1.2003875970840454,0.37609926922088627
60,0.4544164836406708,0.5736207657508551,1.6814571619033813,0.3724353296832547
61,0.48469722270965576,0.7495546528634764,1.1253410577774048,0.35098582693732455
62,0.3585178554058075,0.7008498786913017,1.0626962184906006,0.3761425784618203
63,0.39100074768066406,0.6777893772712142,0.9549473524093628,0.3766238459843773
64,0.2305125594139099,0.6981036324786325,0.959568977355957,0.37642405092846615
65,0.23062527179718018,0.8369048747803441,0.9781218767166138,0.37656060164860783
66,0.283692866563797,0.8349415204678362,1.2038211822509766,0.37647247192591937
67,0.3398593068122864,0.8327880184331797,1.0130220651626587,0.37655617379339873
68,0.3060978651046753,0.6212289644749323,0.9091483354568481,0.37348919432413186
69,0.3663155138492584,0.7810019710019709,1.0200302600860596,0.3762020954883623
70,0.34829390048980713,0.5138034188034187,1.285205364227295,0.37117278992324143
71,0.3069714307785034,0.7829907670357108,1.028304934501648,0.3741183876240685
72,0.34543561935424805,0.5777940031152649,1.1124210357666016,0.3747974291570524
73,0.3419091999530792,0.653114973262032,1.204588532447815,0.37139808932692003
74,0.19332511723041534,0.8801872469635627,1.1355594396591187,0.37643180082668654
75,0.2803177833557129,0.556505359696849,1.0563366413116455,0.37651088306796415
76,0.2346714586019516,0.912305552139695,1.1898337602615356,0.37652213965231046
77,0.21262291073799133,0.8406160030896707,1.2653820514678955,0.4046542201892099
78,0.26794180274009705,0.8267592225387679,1.3476157188415527,0.3764410170694543
79,0.5030258893966675,0.7865927619805131,1.544249415397644,0.3763553441833171
80,0.2846335768699646,0.836592761980513,1.5716561079025269,0.37642677825314386
81,0.2347952425479889,0.8549416980868594,1.565216064453125,0.43852868330392125
82,0.22794471681118011,0.8644349845201238,1.4074009656906128,0.37608444109573075
83,0.2544459104537964,0.6995847416706904,1.5307652950286865,0.3761984676053582
84,0.22548207640647888,0.8207898776468463,1.943095326423645,0.3751095557917161
85,0.2039879560470581,0.8631606522231522,1.6881290674209595,0.3763796600205098
86,0.5584479570388794,0.5190422477440525,1.640730619430542,0.3758696966383979
87,0.518204927444458,0.7812926937926937,1.721495270729065,0.37632257566707156
88,0.354879766702652,0.8177420104050539,1.4190946817398071,0.3761264033194445
89,0.28325507044792175,0.6820048309178743,1.2399111986160278,0.3763899402539346
90,0.2751167118549347,0.8684241881378649,1.0274300575256348,0.37618049804826315
91,0.27580684423446655,0.7086632510479739,1.0031989812850952,0.3761656932972481
92,0.33261948823928833,0.8161307100353452,1.0885463953018188,0.3820171113878075
93,0.17824281752109528,0.9385730644208038,1.1315529346466064,0.3762609297657892
94,0.38498455286026,0.46640581640581646,1.8919271230697632,0.64830517131255
95,0.4299302101135254,0.9045238095238095,1.2915223836898804,0.41834844110981223
96,0.31212759017944336,0.910735171261487,1.451673150062561,0.3761352379920081
97,0.5417814254760742,0.5698121542536436,1.498761534690857,0.4658649876026121
98,0.3842930793762207,0.8208501178082619,2.552617311477661,0.4045427257265868
99,0.44987618923187256,0.822478354978355,1.9340806007385254,0.3762043675000332
100,0.3943461775779724,0.8008784762662273,1.6641367673873901,0.3761352379920081
101,0.3747439384460449,0.6307403823167032,2.156587600708008,0.46951675167241064
102,0.3473915755748749,0.8210483382358382,3.039395332336426,0.5825396508703119
103,0.4608507752418518,0.7994887730553328,1.8592172861099243,0.3854308317073196
104,0.34060561656951904,0.8440835049616177,1.2142747640609741,0.3762233226687004
105,0.2537010908126831,0.5917247545948203,1.6472303867340088,0.37658637400674216
106,0.2450609654188156,0.9046407316101399,2.20782732963562,0.4581369698801694
107,0.1958911269903183,0.9508722582881363,2.0311262607574463,0.4043099795868467
108,0.1972181499004364,0.9415826612903226,1.7441095113754272,0.3765766268418614
109,0.19824445247650146,0.9500178116662624,1.7146457433700562,0.37659292117993165
110,0.21598930656909943,0.7832244301229263,1.6706379652023315,0.45997847362284044
111,0.28724342584609985,0.9095268542199488,1.5541216135025024,0.5017794285122285
112,0.13272543251514435,0.9627530044275775,1.2798188924789429,0.37654591772489027
113,0.22258208692073822,0.8522107198142415,1.2766733169555664,0.3669255258988238
114,0.2165953367948532,0.8801242332140836,1.7262579202651978,0.47709635569006004
115,0.26413238048553467,0.8356287138202032,1.8934895992279053,0.3912394892501534
116,0.18872708082199097,0.9407716677096372,1.8339334726333618,0.6023228477583726
117,0.2258601039648056,0.8792713971468665,1.329555869102478,0.5960379142241008
118,0.16539040207862854,0.8959388785497657,1.226296305656433,0.3719196235420494
119,0.2508338689804077,0.6942942070445199,1.4467194080352783,0.38840138056815526
120,0.35242342948913574,0.8767325680272109,1.2316815853118896,0.3767516313473449
121,0.184542715549469,0.9595705761532375,1.0969336032867432,0.3717412874655356
122,0.21398109197616577,0.7931964037927846,1.009566307067871,0.37190225617683276
123,0.18014544248580933,0.9124970821661998,1.0170960426330566,0.3722151414292876
124,0.1821143478155136,0.9029472272885183,1.298225998878479,0.5164744059873452
125,0.14589664340019226,0.9523819468015896,1.9739845991134644,0.5473653156475976
126,0.1916027069091797,0.9275532181782182,2.0290708541870117,0.4772082942799069
127,0.19024568796157837,0.9722524154589371,1.5363292694091797,0.3815718350903261
128,0.15053339302539825,0.9647446426670316,1.3653188943862915,0.3992434808039016
129,0.1661658138036728,0.8638342195593308,1.277646780014038,0.48661915274637235
130,0.18031489849090576,0.864708144281456,1.4724031686782837,0.5172835531600405
131,0.14655040204524994,0.9772799954080293,1.713078498840332,0.5617178934136589
132,0.1855044960975647,0.944501618629908,1.4304430484771729,0.541441834422118
133,0.14012466371059418,0.9597195357833657,1.0951288938522339,0.489967006311687
134,0.13154153525829315,0.9713077336197636,1.1038180589675903,0.48822266568220957
135,0.15047110617160797,0.9551972593572722,1.1877808570861816,0.474235352442422
136,0.1301562488079071,0.8115174549549549,1.4205790758132935,0.5274596857693449
137,0.15694457292556763,0.9377735411140584,1.9050565958023071,0.5605124348890734
138,0.15512706339359283,0.9653857686691698,2.4589788913726807,0.5955311343438804
139,0.15741130709648132,0.9237240829346093,2.1086761951446533,0.5896806388680174
140,0.11696691811084747,0.9331265772438008,1.2313190698623657,0.4044802585460706
141,0.15099501609802246,0.9129426859690017,1.1857646703720093,0.3904914702249244
142,0.1732219159603119,0.9394326130076208,1.2884812355041504,0.40448337032102705
143,0.25820422172546387,0.7810392553711445,1.114380955696106,0.5579678401396966
144,0.180401012301445,0.9453821044546851,1.3546253442764282,0.5855099066893602
145,0.2374427169561386,0.974350358422939,1.7321951389312744,0.6058943432786361
146,0.15828470885753632,0.934487118697645,2.0408899784088135,0.6386697179014805
147,0.16789352893829346,0.8054231992586656,1.5523940324783325,0.5550065526367634
148,0.21697276830673218,0.8756797235023042,1.7255573272705078,0.46055243981172417
149,0.16339989006519318,0.8677561416923119,1.8340439796447754,0.5736350773008245
150,0.1570691466331482,0.9401050898026704,1.7051608562469482,0.5598711154186785
151,0.13663148880004883,0.9664502164502164,1.6284493207931519,0.4188007432160677
152,0.12053228169679642,0.9627168459864603,1.446085810661316,0.40460288548368434
153,0.12987762689590454,0.9795279255319149,1.2965646982192993,0.446499380936072
154,0.1946386694908142,0.9281360815602837,1.2760590314865112,0.5449709335601275
155,0.16295941174030304,0.9337643323458416,1.7022368907928467,0.656589131307502
156,0.2512916624546051,0.9079166666666667,1.479645013809204,0.5296625637028191
157,0.14637549221515656,0.9575094915506588,1.3148977756500244,0.37664285008591825
158,0.14083001017570496,0.7256767290249433,1.2414404153823853,0.4881258383797779
159,0.13659633696079254,0.9359038978494624,1.7314435243606567,0.6303601755371094
160,0.13140709698200226,0.9692555501930502,2.1658387184143066,0.6304775064319929
161,0.14267781376838684,0.9587974730861244,1.6566392183303833,0.6137758172375853
162,0.13672000169754028,0.9539030564845782,1.214978814125061,0.5731002687434636
163,0.18350154161453247,0.9266671687677667,1.200827717781067,0.5186439077281421
164,0.1902458667755127,0.9492403406090476,1.456129550933838,0.5353633961749162
165,0.1510811150074005,0.9631003584229391,1.9343490600585938,0.6242568031081444
166,0.17071034014225006,0.9705528846153846,1.997355341911316,0.6200764261351561
167,0.114982470870018,0.9423128625307695,1.7919423580169678,0.611136794449373
168,0.12506553530693054,0.9640323344330402,1.6008799076080322,0.6393084743994908
169,0.12895886600017548,0.8717637928827445,1.417092204093933,0.6125286209539708
170,0.1334981471300125,0.9658893116705288,1.32619309425354,0.5993197166794794
171,0.1288881152868271,0.9692881334504418,1.3863426446914673,0.5843049413493323
172,0.13522841036319733,0.9643367175499232,1.82717764377594,0.6463261268267905
173,0.20893311500549316,0.8978349673202615,1.2881394624710083,0.5018741352491376
174,0.30384737253189087,0.8991491113703424,1.0819101333618164,0.38334160478366086
175,0.28485214710235596,0.8406899180484086,1.6852326393127441,0.37635035873749634
176,0.22004178166389465,0.8427759859040199,1.9812166690826416,0.44660054842796826
177,0.14107555150985718,0.8817472641230406,2.4991543292999268,0.5159043827627506
178,0.15017294883728027,0.8727150537634409,2.574651002883911,0.6473460496263045
179,0.15478718280792236,0.8969189578005115,2.194406032562256,0.5591905381944444
180,0.14294615387916565,0.8998449168073489,1.8593921661376953,0.5396999390105289
181,0.1397286057472229,0.8848971035177179,1.5382896661758423,0.48352633845890747
182,0.1228657066822052,0.9708458111505471,1.144117832183838,0.5009919285571983
183,0.1474730521440506,0.9253140772438008,1.019656777381897,0.5297876562863846
184,0.12091454118490219,0.944972316066066,1.0238752365112305,0.5297724456181634
185,0.12616032361984253,0.841574796957218,1.2161442041397095,0.5274071783156151
186,0.12298541516065598,0.9708956115206115,1.3755249977111816,0.5393994325793153
187,0.11901994794607162,0.9617841356279792,1.262174129486084,0.5271470795291536
188,0.1814655214548111,0.9526617721840833,1.279797077178955,0.5563581845166158
189,0.12283176928758621,0.9686336626575028,1.567663311958313,0.6299656706825354
190,0.1402662992477417,0.8904873791621912,1.2150593996047974,0.5167235083380055
191,0.13520547747612,0.8950434169849064,1.1434516906738281,0.37647763018106867
192,0.1367163509130478,0.7001976656626506,1.1084495782852173,0.5169979485595407
193,0.12019564211368561,0.9742739898989898,1.7122865915298462,0.568304753413925
194,0.10862618684768677,0.9536287023400425,2.2115824222564697,0.6564207870093915
195,0.11075975000858307,0.9722712320574163,2.625304937362671,0.6473684638332361
196,0.11088059097528458,0.9639735953058322,2.1587274074554443,0.6155834520700689
197,0.09799310564994812,0.9765447845804989,1.6775808334350586,0.6134179384286604
198,0.11126022040843964,0.9689064801178203,1.4849910736083984,0.6158598746635475
199,0.12398535758256912,0.9547959433040079,1.4823518991470337,0.61577611397055
200,0.13830554485321045,0.9692288306451613,1.6010255813598633,0.6165969050228858
201,0.18378649652004242,0.9788241832092639,1.786612868309021,0.6168020935989224
202,0.13641351461410522,0.9428868655240606,2.0379817485809326,0.6420755844775796
203,0.11492016166448593,0.9596719185243167,1.8050321340560913,0.6446962519597298
204,0.10532043874263763,0.9644453876627052,1.7717758417129517,0.642297665320543
205,0.11774162948131561,0.9683309019246519,1.786510944366455,0.6421741814127175
206,0.10389811545610428,0.9663584183673469,1.6679433584213257,0.6421482426042034
207,0.11021436005830765,0.9614857456140351,1.5497859716415405,0.628363110265489
208,0.13822825253009796,0.9620121502209131,1.3992058038711548,0.5720031932507811
209,0.16260400414466858,0.9699743541033434,1.350212574005127,0.5440433092230917
210,0.10694710910320282,0.9651763701377103,1.239546537399292,0.5580508965114611
211,0.10635724663734436,0.9645874331172506,1.0927870273590088,0.5578004793954151
212,0.13433711230754852,0.9811580882352942,1.0844627618789673,0.5440650119089694
213,0.2435133159160614,0.9166269035439114,1.1079163551330566,0.5793957099433296
214,0.23266761004924774,0.9008394359021156,1.5774482488632202,0.5022951317922989
215,0.23627863824367523,0.9202567911714771,1.9456645250320435,0.5440923087608146
216,0.21241863071918488,0.9644435975609755,1.901499629020691,0.5160162656027042
217,0.18483254313468933,0.965847707085313,1.7249895334243774,0.37646874491643195
218,0.14300993084907532,0.9548121652617192,1.46310555934906,0.390328852837681
219,0.13354083895683289,0.8280352011494253,1.2202112674713135,0.5165869749037588
220,0.10853105038404465,0.9644005847953216,1.546979546546936,0.5726234249454967
221,0.1272042989730835,0.9782893196414235,1.5385404825210571,0.5170213193850133
222,0.10744550079107285,0.9758008100147275,1.3526805639266968,0.517783739692383
223,0.10711941123008728,0.9581073672356567,1.3181730508804321,0.504092744983407
224,0.10643742233514786,0.9408373044965788,1.2796939611434937,0.4204243780801046
225,0.09910505264997482,0.9731392876129719,1.3242603540420532,0.39174091774181385
226,0.09653033316135406,0.9774739583333334,1.3480265140533447,0.3907542300854783
227,0.09681694209575653,0.9762224369988546,1.380265235900879,0.39085087712849553
228,0.108641617000103,0.966574796957218,1.4351505041122437,0.502494110954065
229,0.09759082645177841,0.9832589285714286,1.4704138040542603,0.5446904318495143
230,0.09884602576494217,0.9700225515463917,1.4816793203353882,0.4755304902783204
231,0.11885520815849304,0.9703651942815249,1.4340417385101318,0.447820461342936
232,0.13114143908023834,0.9508774275839368,1.4267773628234863,0.40618401474568006
233,0.11486246436834335,0.9580149555903866,1.5540461540222168,0.3841417142585317
234,0.11031889170408249,0.966235902255639,1.6136245727539062,0.3934359542604249
235,0.13547967374324799,0.9787704346092503,1.579842209815979,0.5887686575564579
236,0.12875735759735107,0.9633009453781514,1.6735179424285889,0.39051981402656344
237,0.18688464164733887,0.9539190821256038,1.8009823560714722,0.37703193772659394
238,0.17689236998558044,0.93728688645324,1.703062891960144,0.3757420283767393
239,0.14803341031074524,0.9584699378207014,1.646500825881958,0.37352857253160726
240,0.15481451153755188,0.9800582285622179,1.6841870546340942,0.4229932897283745
241,0.13585735857486725,0.9466357686691698,2.1357223987579346,0.6273798856460147
242,0.1392441987991333,0.9682297261009667,1.4616433382034302,0.6293317433400516
243,0.12160913646221161,0.9618421052631578,1.0263315439224243,0.5691953500375744
244,0.10504405200481415,0.9660078876627052,0.9859038591384888,0.5166276904688841
245,0.13955660164356232,0.8528868851559068,1.2502869367599487,0.6171857673840795
246,0.12111339718103409,0.9242607526881721,1.570338249206543,0.6408460437020335
247,0.12806643545627594,0.9463555667562724,1.0478166341781616,0.5021143847503955
248,0.12885041534900665,0.9524141216770396,0.9849913120269775,0.474057507540738
249,0.13045476377010345,0.8157223627529553,0.9573222398757935,0.5042907039796864
250,0.11651481688022614,0.920217803030303,1.2810651063919067,0.4048074065745721
251,0.15649113059043884,0.8893421884882986,1.475407361984253,0.4743386016247277
252,0.15121297538280487,0.947725900307422,1.5392504930496216,0.5788964344224636
253,0.14327959716320038,0.9572496118012422,1.6108872890472412,0.5832909842356325
254,0.1613166332244873,0.9680143892845505,1.4252310991287231,0.5869577334429694
255,0.13112328946590424,0.9603247549019608,1.3751157522201538,0.6115141781461724
256,0.100875623524189,0.9832589285714286,1.2685543298721313,0.625070814221752
257,0.12364373356103897,0.8844369659608061,1.1764062643051147,0.5706497875652019
258,0.10857075452804565,0.9748783509773491,1.0913652181625366,0.5439492573496976
259,0.1068548634648323,0.9618844696969697,1.0474034547805786,0.613505806667739
260,0.10894037038087845,0.9539510528673835,1.06453537940979,0.6205416885827201
261,0.09532240778207779,0.9804328329618278,1.0837408304214478,0.5646783613091796
262,0.11508545279502869,0.9700225515463917,1.0870307683944702,0.5436541386055629
263,0.09633268415927887,0.9824671253187008,1.1126171350479126,0.5855609381954
264,0.10028500854969025,0.9679188829787234,1.143510341644287,0.5996763993962614
265,0.1008836179971695,0.9748783509773491,1.2172472476959229,0.5998579728427255
266,0.15521487593650818,0.9819148425499232,1.1678197383880615,0.6147336936594608
267,0.09790769219398499,0.9798805501930502,1.2946773767471313,0.6431546682875632
268,0.1519826054573059,0.9336007882882883,1.2260631322860718,0.6280628122098342
269,0.10683967173099518,0.9536826981246219,1.1140228509902954,0.41857024081476574
270,0.10368258506059647,0.9755727954217936,1.156446099281311,0.43232965482611746
271,0.12293770909309387,0.8114809782608696,1.2080122232437134,0.6141805572740321
272,0.10856940597295761,0.9767944435913186,1.7110401391983032,0.6380856907086085
273,0.10321663320064545,0.9821875,2.27543568611145,0.6174086331525772
274,0.1152343899011612,0.9636482201309329,2.4891958236694336,0.6327885575864448
275,0.13234183192253113,0.9315972222222222,2.2101120948791504,0.656800429679088
276,0.10891448706388474,0.9600100806451612,1.8403505086898804,0.6440350558783907
277,0.14749638736248016,0.9399961597542242,1.9857711791992188,0.6448590500065188
278,0.12047789245843887,0.9678467613314812,1.9645932912826538,0.6445078992643355
279,0.11024199426174164,0.9742739898989898,1.715476393699646,0.6290539276030861
280,0.0944918692111969,0.9783420138888889,1.6160610914230347,0.6011513158134205
281,0.11477254331111908,0.9674428525127736,1.504023551940918,0.6149989297297069
282,0.10318723320960999,0.9591836734693877,1.4486140012741089,0.614382777853411
283,0.09310244023799896,0.9801136363636364,1.272657036781311,0.5860726069703367
284,0.10427503287792206,0.8923675753546099,1.122562050819397,0.5582427507217742
285,0.09601182490587234,0.9816017316017316,1.310651183128357,0.5588372147535169
286,0.10774417966604233,0.9636304909560723,1.4724739789962769,0.6159006102381054
287,0.13537178933620453,0.9171049017823212,1.5963194370269775,0.616299524144785
288,0.1230887845158577,0.9484323432343235,1.5696771144866943,0.6019799979349203
289,0.13897091150283813,0.9454491044873681,1.6251939535140991,0.6165002413682191
290,0.12113265693187714,0.8915188787185355,1.6300506591796875,0.6303383983159913
291,0.11613703519105911,0.9813737170087977,1.6355113983154297,0.6287766682620506
292,0.11606988310813904,0.9808434139784946,1.583499789237976,0.6431605785695003
293,0.09323351085186005,0.9705729166666667,1.4247950315475464,0.6293940293570645
294,0.11630887538194656,0.9582589285714286,1.3121789693832397,0.6289699541985294
295,0.0963054820895195,0.9729291267942584,1.2964061498641968,0.5999576996177745
296,0.1076289638876915,0.9811580882352942,1.3240152597427368,0.5857560135139763
297,0.10021114349365234,0.9832589285714286,1.256110429763794,0.5858582712120355
298,0.10134553164243698,0.9774739583333334,1.2252956628799438,0.6244321573675816
299,0.10086877644062042,0.9565515350877193,1.1954296827316284,0.5859002671249991
300,0.09295497089624405,0.9832589285714286,1.2282217741012573,0.5576002023065206
301,0.09907663613557816,0.9838112113402062,1.2902096509933472,0.5158515879542175
302,0.0933748111128807,0.9832589285714286,1.3366559743881226,0.5158515879542175
303,0.08348269015550613,0.9774739583333334,1.2886074781417847,0.571665454397651
304,0.08857516199350357,0.9618618065783014,1.2746964693069458,0.5717086897817956
305,0.09928006678819656,0.966574796957218,1.308495044708252,0.613609369731144
306,0.08629453182220459,0.9838112113402062,1.3947638273239136,0.6417305938870913
307,0.10485333949327469,0.9728440586204761,1.4446980953216553,0.6275314668550507
308,0.0950629711151123,0.9765447845804989,1.4271622896194458,0.6134567008712453
309,0.08025255799293518,0.9852430555555556,1.3629378080368042,0.5996298200686364
310,0.09064257144927979,0.9717092803030303,1.4284002780914307,0.6123854552648278
311,0.08470021933317184,0.9737131957876639,1.4442596435546875,0.516140927141056
312,0.10158666223287582,0.9832589285714286,1.639319896697998,0.488046569746069
313,0.086529441177845,0.9842704849498327,1.6862624883651733,0.5440121684738929
314,0.1059776097536087,0.9513326144942909,1.731890320777893,0.5721616035692333
315,0.09313616156578064,0.9832589285714286,1.7743343114852905,0.5859859279079356
316,0.0968891829252243,0.9846792668957618,1.7332141399383545,0.61401619022997
317,0.08368851989507675,0.9774739583333334,1.7303463220596313,0.6145472329217928
318,0.09423772245645523,0.9832589285714286,1.6994891166687012,0.6145787590587187
319,0.08376722782850266,0.980186170212766,1.6659717559814453,0.628645492392095
320,0.08438409864902496,0.9852430555555556,1.7122325897216797,0.6149577200396938
321,0.08863698691129684,0.9559461805555556,1.7370222806930542,0.6150329870198461
322,0.08216264098882675,0.9774739583333334,1.748692512512207,0.6146766174319105
323,0.08330667018890381,0.9852430555555556,1.7726101875305176,0.6147279311139714
324,0.07613770663738251,0.9838112113402062,1.746762990951538,0.6010666170054461
325,0.09032412618398666,0.9722712320574163,1.717105507850647,0.6005518353149225
326,0.10455416887998581,0.8070652173913043,1.8641992807388306,0.6443950611234607
327,0.0835283100605011,0.9838112113402062,1.7483258247375488,0.6441396542289008
328,0.10456140339374542,0.9818646771771772,1.5548291206359863,0.6162907631998444
329,0.10159091651439667,0.9859375,1.32896888256073,0.6146448976028493
330,0.08225282281637192,0.974993890518084,1.1905765533447266,0.6266546310448438
331,0.086794413626194,0.9722712320574163,1.1366831064224243,0.5717294992307983
332,0.10104498267173767,0.9857372536914133,1.092451810836792,0.5578581230767461
333,0.09630279988050461,0.9846792668957618,1.1150165796279907,0.5719771158579996
334,0.09136445820331573,0.9680718475073313,1.0585542917251587,0.6027863814170261
335,0.08254961669445038,0.9796052631578948,1.0588184595108032,0.5298210057973335
336,0.10530348867177963,0.9804328329618278,1.0156490802764893,0.43236501322824794
337,0.08465472608804703,0.9769825268817205,0.9740351438522339,0.39043997429191635
338,0.08326943963766098,0.9768403639371381,1.0102150440216064,0.446432189885057
339,0.10116440802812576,0.9347376610481449,1.0323739051818848,0.49495303519068806
340,0.1134205237030983,0.8435921717171717,1.522072196006775,0.6302065215227852
341,0.10391302406787872,0.9795833333333334,2.884495735168457,0.5591905381944444
342,0.11420995742082596,0.9299982718403771,2.529014825820923,0.56474609375
343,0.09186160564422607,0.9820196924276767,1.2299933433532715,0.6019728531601889
344,0.10416162014007568,0.9679188829787234,1.0491377115249634,0.5952460515528806
345,0.11473087966442108,0.9734062980030722,1.1413383483886719,0.4612563470257158
346,0.15195924043655396,0.9673519736842106,1.392622947692871,0.46127481167212625
347,0.1029341071844101,0.7359375,1.5617305040359497,0.5749388118081472
348,0.11774250119924545,0.9357882882882883,2.3255860805511475,0.6136658468364196
349,0.1010742038488388,0.9172063055991627,2.921194076538086,0.58974609375
350,0.08606219291687012,0.9758008100147275,2.9678468704223633,0.5911928530092592
351,0.09931530803442001,0.9759996695307336,3.016326427459717,0.5853479456018519
352,0.1192280501127243,0.9734219569542413,2.4211606979370117,0.6064127604166666
353,0.10166306048631668,0.965931519138756,1.9716182947158813,0.6484565140073394
354,0.09394976496696472,0.9663956398993485,2.02553129196167,0.5589966325296927
355,0.09680196642875671,0.9761298723118279,2.193984270095825,0.5157994942482146
356,0.10669839382171631,0.9775667326919449,2.451399087905884,0.5303518983193426
357,0.09138154983520508,0.9624455965181772,3.05979323387146,0.6565549578454685
358,0.10251536965370178,0.979358552631579,2.7538270950317383,0.6569259995819334
359,0.08829182386398315,0.9832589285714286,1.9541840553283691,0.6011867988211906
360,0.10778295993804932,0.9827828981054787,1.7089016437530518,0.5962098092196302
361,0.08351626992225647,0.865901997503121,1.6228442192077637,0.6009621326789962
362,0.08334457874298096,0.9737131957876639,1.5550457239151,0.5732027464003435
363,0.08109306544065475,0.9852430555555556,1.5749685764312744,0.4758483096306847
364,0.08991517871618271,0.9727864583333333,1.6120721101760864,0.46193361029945545
365,0.07814700901508331,0.9865131578947368,1.6207629442214966,0.47590234404531756
366,0.07420437037944794,0.9824671253187008,1.680775761604309,0.5592276933155651
367,0.09024430066347122,0.980186170212766,1.7262102365493774,0.6149858867056324
368,0.08060207217931747,0.9855769230769231,1.771594524383545,0.6150817766334996
369,0.07858804613351822,0.9852430555555556,1.9791755676269531,0.6292621458360215
370,0.07833303511142731,0.9776545698924731,2.084083080291748,0.6446340535083928
371,0.07459728419780731,0.9787834448160535,2.1836400032043457,0.6435414582793891
372,0.0825180783867836,0.9787834448160535,2.235950231552124,0.6571544670758313
373,0.08370790630578995,0.9838112113402062,2.21004581451416,0.6572770634119764
374,0.08055859059095383,0.9748507724719101,2.179774761199951,0.6571462508088883
375,0.08275952190160751,0.980186170212766,2.1542952060699463,0.6441259914927514
376,0.07551304996013641,0.9796052631578948,2.1192665100097656,0.6448885529234079
377,0.07015419006347656,0.9804258241758241,2.0113630294799805,0.6306532271517973
378,0.08172407746315002,0.987669245647969,1.8776109218597412,0.6291899952153808
379,0.08144942671060562,0.9813477517106549,1.7361477613449097,0.614972556306899
380,0.07669728994369507,0.9722593582887701,1.6690220832824707,0.5867363249824916
381,0.07974793016910553,0.9776475694444444,1.623687744140625,0.5728921277274817
382,0.06889767944812775,0.9787570224719101,1.6180683374404907,0.6146125444352476
383,0.08506849408149719,0.9578754578754578,1.6341602802276611,0.6146150401924603
384,0.07827424257993698,0.9789108187134503,1.6538562774658203,0.5867888286574735
385,0.08795374631881714,0.9763032666258473,1.6805970668792725,0.5718394419243064
386,0.07330404967069626,0.9769825268817205,1.7706266641616821,0.5718680076338796
387,0.07774244993925095,0.9807416267942584,1.8617697954177856,0.5995919546333257
388,0.07416815310716629,0.9777777777777777,1.8790231943130493,0.6285498652743162
389,0.07944761961698532,0.983106884057971,1.8549540042877197,0.628933703653856
390,0.06205616518855095,0.9760095943382461,1.7588512897491455,0.62867962382936
391,0.1101374626159668,0.9737736362736362,1.685847282409668,0.614732930116541
392,0.073732890188694,0.9852430555555556,1.6110728979110718,0.5859040190698873
393,0.08181465417146683,0.9813225338491296,1.486350417137146,0.5716799063867009
394,0.08050799369812012,0.9654438405797101,1.4016005992889404,0.5021912874210555
395,0.06632302701473236,0.9772192028985507,1.4042553901672363,0.44641851656523
396,0.08001048862934113,0.9764336917562724,1.4793992042541504,0.4464834984199199
397,0.07596088200807571,0.9699983792725728,1.589860200881958,0.4883632889335542
398,0.07997141033411026,0.9776475694444444,1.5677393674850464,0.4746851975543265
399,0.08760590851306915,0.9681528448738594,1.6120827198028564,0.5305794738559966
400,0.11745083332061768,0.9668469551282051,1.780039668083191,0.552075129334399
401,0.09858696162700653,0.9870813397129187,1.832916021347046,0.5591028196352484
402,0.1070505827665329,0.9595989658489659,1.8335157632827759,0.6011525369980624
403,0.0746794268488884,0.9819159335288368,1.84671950340271,0.6148374662951851
404,0.08083832263946533,0.9865131578947368,1.839180827140808,0.6008047456101682
405,0.07866271585226059,0.9752747252747253,1.8199394941329956,0.6005942241670987
406,0.10050755739212036,0.9770833333333333,1.7454153299331665,0.6145606757107193
407,0.07509897649288177,0.9651785714285714,1.7556997537612915,0.614839444487592
408,0.07442145049571991,0.9759184587813621,1.742154598236084,0.6148789136530166
409,0.08735401928424835,0.9493371212121212,1.7418080568313599,0.5870596885174073
410,0.07990777492523193,0.9870813397129187,1.8063446283340454,0.5869927327695232
411,0.08556193113327026,0.9713315217391304,1.7328077554702759,0.5871479030809033
412,0.07599068433046341,0.9801861702127659,1.711446762084961,0.6009519913390435
413,0.07962143421173096,0.9794627926421404,1.6232610940933228,0.6011448032578113
414,0.07821763306856155,0.9763962765957447,1.6269357204437256,0.6014082376773777
415,0.07186517864465714,0.9738324175824176,1.5809541940689087,0.5736918264731294
416,0.06663034856319427,0.9794592696629214,1.6139614582061768,0.5734100701441741
417,0.09170106798410416,0.9677991886409736,1.6426208019256592,0.531574166055317
418,0.07730399817228317,0.9733767576509512,1.6502485275268555,0.5456122220911234
419,0.0798412412405014,0.9743780894046852,1.6416587829589844,0.5456710554606008
420,0.07246842235326767,0.9810515873015873,1.6518954038619995,0.5313012827910719
421,0.07957037538290024,0.9798136645962733,1.6158958673477173,0.4619573173188174
422,0.08158398419618607,0.9806757086999023,1.7110949754714966,0.517969758664976
423,0.05775798112154007,0.9882697947214076,1.8148945569992065,0.5740834734901084
424,0.09496176987886429,0.9733235383433665,1.7835404872894287,0.5183180717862144
425,0.07051888108253479,0.9820197947214077,1.7924853563308716,0.4345464845257366
426,0.0732804462313652,0.987669245647969,1.743003487586975,0.4342746621810959
427,0.08529236912727356,0.9633905005529688,1.7143118381500244,0.4901062109498915
428,0.08777759969234467,0.9372216235632184,1.8434064388275146,0.6026321045858302
429,0.06888169795274734,0.9834692028985508,1.9863115549087524,0.6312432682365612
430,0.09101507812738419,0.9682192807192807,1.9793660640716553,0.5748650865912308
431,0.09207885712385178,0.9056519138755981,1.8683048486709595,0.5876304901141275
432,0.07748938351869583,0.9865131578947368,1.7886172533035278,0.6015795729210808
433,0.07518652826547623,0.9870813397129187,1.789573073387146,0.5741518455510777
434,0.08532949537038803,0.9477619758518635,1.8141356706619263,0.5683919538211318
435,0.07378377765417099,0.8943339646464646,1.8088351488113403,0.476855756815769
436,0.06752970814704895,0.98904052936311,1.914899468421936,0.5335688922995315
437,0.06960469484329224,0.987669245647969,2.1053380966186523,0.602359195018537
438,0.07757753133773804,0.9639203107601984,2.200392961502075,0.615404700626724
439,0.07180879265069962,0.982522233201581,1.9832289218902588,0.5750583471654384
440,0.07844328880310059,0.9873991935483871,1.942911982536316,0.49223526714038596
441,0.10098680108785629,0.9701868674794805,2.058992385864258,0.5475329214262629
442,0.09115588665008545,0.9651952461799661,1.8168858289718628,0.4201423773054976
443,0.09185052663087845,0.9357461734693877,1.570310354232788,0.3746376859946402
444,0.08584950864315033,0.8551861702127659,1.582905650138855,0.44662254156319686
445,0.07724230736494064,0.9747920618707135,1.6519672870635986,0.5593773245642732
446,0.0773891732096672,0.970734126984127,1.633550763130188,0.6305663371843716
447,0.0723625123500824,0.9828629032258065,1.652456283569336,0.6431421443691078
448,0.06360981613397598,0.9820197947214077,1.6252230405807495,0.642091649452949
449,0.06467980146408081,0.9826388888888888,1.624290108680725,0.6283458854839808
450,0.07793379575014114,0.9701003086419753,1.537294626235962,0.6138618587485827
451,0.07578422129154205,0.9820197947214077,1.419167160987854,0.6147717355387311
452,0.0931239128112793,0.9713811054536861,1.4147953987121582,0.6278740637167212
453,0.06796175986528397,0.9760250307125307,1.4882484674453735,0.6566771418606427
454,0.08424413204193115,0.9756620945479642,1.4312331676483154,0.6422679190499129
455,0.08588167279958725,0.9709581413210445,1.3688335418701172,0.6281551901765925
456,0.07062999904155731,0.9819159335288368,1.3847795724868774,0.6349981756891819
457,0.0927506536245346,0.8828489219114218,1.404231309890747,0.6408476600805427
458,0.0659823939204216,0.9810327540106951,1.5949941873550415,0.6140740565114348
459,0.06415507942438126,0.9841145833333333,1.8180214166641235,0.6137803030380968
460,0.07314538210630417,0.9794627926421404,1.9878281354904175,0.6133245273906112
461,0.08987762033939362,0.9212611024033438,2.13806414604187,0.6246308908486983
462,0.07756541669368744,0.974159867909868,2.2035601139068604,0.6238607460040004
463,0.06860411167144775,0.9810515873015873,2.181959390640259,0.6232381403833176
464,0.06663186848163605,0.9842704849498327,2.175189971923828,0.623278581030074
465,0.0659782737493515,0.989356884057971,2.1350388526916504,0.6166288178447886
466,0.07079469412565231,0.98904052936311,2.4005253314971924,0.6353067673443689
467,0.07004597038030624,0.9768465909090909,2.8056740760803223,0.6220750379539441
468,0.07465266436338425,0.9544101731601732,2.921454668045044,0.6163112551681025
469,0.06118321791291237,0.9862637362637363,3.059702157974243,0.6123651413690476
470,0.06269659847021103,0.9841216216216215,2.916069984436035,0.6071036436075498
471,0.06174153462052345,0.9798416860916861,2.3567256927490234,0.6480436063533889
472,0.07315348833799362,0.9865056818181819,1.99949049949646,0.6539425133129216
473,0.06687895953655243,0.9726799242424242,1.8877296447753906,0.6680379390039696
474,0.07558314502239227,0.9716196160161678,1.8224767446517944,0.6756865905067878
475,0.05945203825831413,0.9777153558052434,1.69964599609375,0.6285144777889138
476,0.05768625810742378,0.9868055555555555,1.6966105699539185,0.6150127835778836
477,0.08417437970638275,0.9703125,1.835091471672058,0.6428202827936033
478,0.06493113934993744,0.9834692028985508,1.9094815254211426,0.6701617365234513
479,0.055441007018089294,0.9866003787878788,1.764205813407898,0.6884589801705308
480,0.0573931448161602,0.9840198863636364,1.6859403848648071,0.648335928255512
481,0.05432836711406708,0.9848901098901099,1.7230589389801025,0.6289972752451078
482,0.07332450151443481,0.9758513931888545,1.7436422109603882,0.6009596651799858
483,0.07049571722745895,0.9765889114266396,1.7417610883712769,0.600831611948808
484,0.07452580332756042,0.9776545698924731,1.74074125289917,0.635516041641563
485,0.06306345760822296,0.9858187134502924,1.687227725982666,0.6552487213030115
486,0.06093496456742287,0.9777201964701965,1.5673813819885254,0.627854442280057
487,0.07322745770215988,0.9760095943382461,1.479172706604004,0.587915810326053
488,0.07048868387937546,0.9884134390621067,1.6003015041351318,0.5872573320457279
489,0.06414397060871124,0.9798416860916861,1.8030518293380737,0.6284895732255351
490,0.07288549840450287,0.9798136645962733,2.0760281085968018,0.6286046733039443
491,0.07251998782157898,0.9732121234137363,1.9010077714920044,0.6280798128971051
492,0.07731741666793823,0.9698529411764706,1.5489028692245483,0.4207805017893912
493,0.07071720063686371,0.9851690718732314,1.50322425365448,0.42081781947990965
494,0.07270138710737228,0.951272233201581,1.5162622928619385,0.5600224998614542
495,0.07339869439601898,0.9382450856055802,1.5888360738754272,0.6015855546761331
496,0.06570909917354584,0.9798416860916861,1.6479238271713257,0.5315961948162106
497,0.08703535795211792,0.9105752042900919,1.5742067098617554,0.4896984680886831
498,0.08370385318994522,0.9752747252747253,1.437365174293518,0.4898146435348567
499,0.06140664219856262,0.9787834448160535,1.3190094232559204,0.4902951649580313
500,0.06111887842416763,0.9820197947214077,1.2781002521514893,0.47647572493102086
501,0.06727972626686096,0.9811126373626373,1.3360979557037354,0.4066606848410533
502,0.053042951971292496,0.9840198863636364,1.3666318655014038,0.37888201331238175
503,0.07771693170070648,0.9708235169747493,1.4023200273513794,0.4763748473874888
504,0.06099696457386017,0.9760095943382461,1.5069828033447266,0.6155929836542724
505,0.06388386338949203,0.9788405045032367,1.5059491395950317,0.5179700592324586
506,0.05844514071941376,0.989356884057971,1.5335322618484497,0.3784260064522252
507,0.09191591292619705,0.9859823028673835,1.514752984046936,0.3929068126841504
508,0.07944118231534958,0.8862089455488331,1.6245713233947754,0.6030414534295127
509,0.07065524905920029,0.9775568181818182,1.7262096405029297,0.6033110965519168
510,0.11521310359239578,0.9731779261418436,1.6687732934951782,0.6169163346474461
511,0.07278966158628464,0.9753073471472348,1.4723882675170898,0.6301619846122452
512,0.08380379527807236,0.9668827044140815,1.366097092628479,0.6095684540799531
513,0.07059619575738907,0.9810327540106951,1.3629289865493774,0.5600787912393304
514,0.06845499575138092,0.9811126373626373,1.4219154119491577,0.5739845833306079
515,0.06619526445865631,0.989356884057971,1.4159401655197144,0.5879558345971909
516,0.06266043335199356,0.9809837728194726,1.4642119407653809,0.6299690477050522
517,0.06041711941361427,0.9862103174603174,1.469103455543518,0.629617753549552
518,0.05508094280958176,0.9874531835205993,1.4204139709472656,0.6373683789455756
519,0.06010463088750839,0.9843021561771561,1.3714232444763184,0.6306426414909955
520,0.054018162190914154,0.9840198863636364,1.4469130039215088,0.643138192019207
521,0.057050056755542755,0.989356884057971,1.5574455261230469,0.6292746615849184
522,0.07234065234661102,0.9855769230769231,1.54550039768219,0.6360163027946398
523,0.05275414139032364,0.9836153429903429,1.6374040842056274,0.6224212934933333
524,0.05617281422019005,0.9903846153846154,1.6718008518218994,0.6235300712885556
525,0.0566537082195282,0.9840198863636364,1.6606823205947876,0.6224507930834922
526,0.05826914310455322,0.9743828369905956,1.6657308340072632,0.6158656877276761
527,0.07246117293834686,0.9817234848484848,1.6610164642333984,0.6165952457222227
528,0.04734000563621521,0.9903846153846154,1.6284464597702026,0.6173618206417401
529,0.06242959573864937,0.9826388888888888,1.700676679611206,0.6173704103122469
530,0.05527055636048317,0.9839351285189719,1.7454115152359009,0.617354941146878
531,0.06119778752326965,0.9882697947214076,1.8115495443344116,0.6171927227877045
532,0.05909495800733566,0.9760095943382461,1.8023736476898193,0.6174534354558163
533,0.05873577669262886,0.9840198863636364,1.8355780839920044,0.6175301629075767
534,0.05640675500035286,0.9848901098901099,1.8441892862319946,0.6176154781420464
535,0.05501629412174225,0.9862103174603174,1.7394381761550903,0.6175395668633319
536,0.05710548162460327,0.9843021561771561,1.720765471458435,0.6173808193204737
537,0.053706295788288116,0.9874531835205993,1.8069689273834229,0.6174024904043135
538,0.06940609961748123,0.9794627926421404,1.946463704109192,0.617496371891261
539,0.05539501830935478,0.9825842696629213,1.9324226379394531,0.6168894477998247
540,0.056176647543907166,0.9826388888888888,1.8706961870193481,0.6168127094301115
541,0.0498485341668129,0.9840198863636364,1.8567992448806763,0.6170686681926817
542,0.060204729437828064,0.9784070096570097,1.7773507833480835,0.6170918904445707
543,0.04382564499974251,0.9853786342123056,1.7896883487701416,0.6168563430432373
544,0.06445281952619553,0.9780593230694037,2.174485921859741,0.6449431465797235
545,0.08202750980854034,0.9760808912845429,2.2082509994506836,0.6447249307910551
546,0.058224935084581375,0.9811126373626373,2.066908359527588,0.6035281067740234
547,0.06847306340932846,0.9779294803817603,2.1184566020965576,0.6035097782398243
548,0.07271735370159149,0.9882697947214076,2.3145084381103516,0.6035097967241432
549,0.1027633547782898,0.9253063725490196,2.460299491882324,0.6170360797568275
550,0.05731833353638649,0.9748507724719101,2.572070360183716,0.5877285083259925
551,0.12814287841320038,0.9797077922077922,2.4603688716888428,0.5873510234395761
552,0.0677129477262497,0.9835349462365591,2.2253763675689697,0.588431458737698
553,0.07941513508558273,0.9769024514811031,1.9907675981521606,0.64421617207223
554,0.0718645304441452,0.9720284237726098,1.7790085077285767,0.6638497840019387
555,0.06982235610485077,0.9782890869905956,1.6377480030059814,0.6567053902506138
556,0.06007339432835579,0.9903846153846154,1.5132495164871216,0.6030555942854076
557,0.05060514807701111,0.9854194518716577,1.4538094997406006,0.6023500720437779
558,0.06777051091194153,0.956419245647969,1.450145959854126,0.6013615173004406
559,0.05468853935599327,0.9886363636363636,1.4869228601455688,0.5735837395226628
560,0.0597788542509079,0.9824337121212121,1.480545997619629,0.5815799507229279
561,0.05003703385591507,0.9836750658761528,1.5268564224243164,0.5816729435694178
562,0.05393661558628082,0.9775568181818182,1.5866907835006714,0.5678950613250656
563,0.054779164493083954,0.9847571050892268,1.579802393913269,0.5611546671431669
564,0.04738267883658409,0.9923220973782771,1.5967597961425781,0.5750280885763454
565,0.05610058084130287,0.9903846153846154,1.6463181972503662,0.5749971905752783
566,0.056504394859075546,0.9874531835205993,1.7141976356506348,0.5888952407504874
567,0.05227336660027504,0.9840198863636364,1.6469693183898926,0.6363373914843555
568,0.04813036695122719,0.9812644050705849,1.6043697595596313,0.635059890668096
569,0.047606341540813446,0.9903846153846154,1.604134202003479,0.629338187299643
570,0.0627710148692131,0.9660246120920278,1.703434944152832,0.615463167242159
571,0.0592585988342762,0.9874531835205993,1.73363196849823,0.6166721466647842
572,0.05108125880360603,0.990728021978022,1.655679702758789,0.5888530686583016
573,0.06264220178127289,0.9783775252525253,1.5319061279296875,0.601267861816076
574,0.06173376366496086,0.971875,1.466905117034912,0.6150712256540382
575,0.05962945893406868,0.9840198863636364,1.5076760053634644,0.6086015603026264
576,0.0524318665266037,0.9794034090909091,1.527079463005066,0.5626375257846336
577,0.05437580496072769,0.9862103174603174,1.6304141283035278,0.50522924877071
578,0.04793651029467583,0.9840198863636364,1.7061548233032227,0.504333053521433
579,0.04942150413990021,0.9903846153846154,1.8220514059066772,0.5322917390434174
580,0.06332776695489883,0.9721676029962547,1.8279775381088257,0.5538983445719662
581,0.05339062213897705,0.9795138888888889,1.9016516208648682,0.5678471770999541
582,0.04593617841601372,0.989356884057971,1.9741687774658203,0.5875658577171117
583,0.07416453957557678,0.971875,2.0451254844665527,0.6015080639345038
584,0.0671418160200119,0.9819159335288368,2.0747663974761963,0.6016924468846876
585,0.05636194348335266,0.9913690476190476,2.052564859390259,0.6168485843753081
586,0.050851255655288696,0.9824773901808785,2.1094727516174316,0.6312079186876732
587,0.04939623177051544,0.9853786342123056,2.0700886249542236,0.6240531102691667
588,0.04980816692113876,0.9903846153846154,2.1405348777770996,0.6031308351387943
589,0.05742684379220009,0.9826388888888888,2.2214884757995605,0.6024847104915253
590,0.05380963534116745,0.9794034090909091,2.3034439086914062,0.5956709852891935
591,0.05867169052362442,0.9853786342123056,2.2782254219055176,0.5959053438368367
592,0.05766420066356659,0.983201581027668,2.161301374435425,0.5957318236802743
593,0.044620580971241,0.9854194518716577,2.0777714252471924,0.5894686411833381
594,0.05388419330120087,0.9854194518716577,2.1494407653808594,0.5964064964827549
595,0.05309005081653595,0.9874531835205993,2.1672298908233643,0.6033601116660913
596,0.04928658902645111,0.9900249615975423,2.3603618144989014,0.6014427312419772
597,0.05786491557955742,0.9600370256620256,2.460376024246216,0.6202291364767395
598,0.05314146354794502,0.9810327540106951,2.500889778137207,0.6067177539518023
599,0.059809207916259766,0.9873496435996436,2.327941656112671,0.6284244189218344
600,0.04113944247364998,0.9866003787878788,2.072084665298462,0.6172581898922052
601,0.0626242384314537,0.9853786342123056,1.9602786302566528,0.6097737006942254
602,0.05457523837685585,0.9804738800525318,1.9719349145889282,0.5880963371778458
603,0.060509681701660156,0.9875,1.8066800832748413,0.5874521484296072
604,0.055907804518938065,0.9791407787097441,1.4401036500930786,0.559187486178217
605,0.051087528467178345,0.9848901098901099,1.360659122467041,0.4493559576722077
606,0.1659623384475708,0.84248667998668,1.5566984415054321,0.5966044484013233
607,0.08257394284009933,0.9821671195652174,1.104318380355835,0.5028080505242055
608,0.11191701889038086,0.9770629236355043,0.9426571726799011,0.46157609030726326
609,0.12653350830078125,0.7776085598250546,2.25699782371521,0.5378968253968254
610,0.3908788859844208,0.9319191919191919,4.170135498046875,0.5751625881834215
611,1.0570859909057617,0.75,2.714069128036499,0.4102836320528449
612,1.0098090171813965,0.6346258019114951,62.44185256958008,0.5502355715678083
613,0.511677086353302,0.6510679492570788,33.80418395996094,0.37907168041571243
614,1.5406420230865479,0.4940116176729449,15.329062461853027,0.3976451403534736
615,0.8960158824920654,0.7612830687830688,9.167338371276855,0.27674200748868905
616,1.1950697898864746,0.512103620474407,4.2405219078063965,0.37680287182474165
617,5.306978225708008,0.525060707083179,16.706417083740234,0.15560685100648375
618,3.8858909606933594,0.27653985507246376,311.8009338378906,0.3806752736508262
619,2.5771806240081787,0.5103269005138164,281.97900390625,0.36745275627851387
620,1.3698399066925049,0.3289308176100629,166.316162109375,0.38825616254507184
621,2.263051986694336,0.4926289926289926,98.73408508300781,0.36499530638063066
622,2.3588314056396484,0.5271364983570619,165.23614501953125,0.3682944248621729
623,3.0577378273010254,0.339578018707483,100.30616760253906,0.3811637895470482
624,3.2987594604492188,0.5302419027518468,74.6784439086914,0.3539909360801483
625,2.106250286102295,0.4022025171624714,28.155986785888672,0.3863369457856187
626,1.617354393005371,0.6375,10.620219230651855,0.37526881442990667
627,0.5373033285140991,0.5245535714285714,12.71063232421875,0.37334821617844294
628,1.2019097805023193,0.5167813455657493,22.540740966796875,0.37294544107817473
629,0.9621795415878296,0.5248831775700934,35.5627326965332,0.37468007701378003
630,2.2063655853271484,0.502962962962963,22.783132553100586,0.37305836568308676
631,0.5740043520927429,0.6677748176596102,53.32892608642578,0.3720174292018814
632,0.772829532623291,0.3664238756910205,34.35630416870117,0.3677320233354233
633,0.5090482831001282,0.5981684981684982,23.314218521118164,0.31363163656267096
634,0.4828854501247406,0.6817077464788732,9.186234474182129,0.36587288601672907
635,0.21637703478336334,0.6922273425499232,4.432295799255371,0.3742968268800959
636,0.2524409294128418,0.7420968895968896,4.930769443511963,0.4057022694567548
637,0.3146277070045471,0.6908315784303494,4.271928787231445,0.37885348003595865
638,0.39153778553009033,0.5854138200273278,3.9017398357391357,0.4368306314232845
639,0.3135504126548767,0.7909911845514799,2.8837146759033203,0.39477180901061426
640,0.2239305078983307,0.8152090099670746,2.41192889213562,0.37391463816043063
641,0.33584967255592346,0.5590440031152648,3.336883783340454,0.394432107410003
642,0.3606451451778412,0.80600866723501,6.245355129241943,0.6007164902998234
643,0.3125927448272705,0.845580808080808,5.138909339904785,0.3789158572099278
644,0.4482472538948059,0.7181580355948081,4.48590087890625,0.37764952425960996
645,0.3594678044319153,0.5931406193225403,4.581567764282227,0.4792718257974161
646,0.34078747034072876,0.8446825681492108,4.557098388671875,0.4983576011331916
647,0.17672321200370789,0.8695982425228156,4.682610034942627,0.41804977176055597
648,0.1834060698747635,0.906809137389071,5.184413433074951,0.42920815295815284
649,0.23375102877616882,0.7638232686691698,6.426829814910889,0.45136904761904756
650,0.28245922923088074,0.8468429716163948,7.527259826660156,0.5300238715277777
651,0.2106802612543106,0.8749666221628838,6.685894966125488,0.4760626275882181
652,0.1541760414838791,0.9512690575190574,6.53485107421875,0.45275793650793644
653,0.16399142146110535,0.8981868407146703,5.580694675445557,0.4499801587301586
654,0.15362831950187683,0.9097670250896057,5.8502373695373535,0.4443783068783069
655,0.15720513463020325,0.8964116895560523,6.249945163726807,0.4441181831437737
656,0.12390948086977005,0.9095009372071228,5.696089267730713,0.47123015873015867
657,0.13384126126766205,0.7682632779406973,5.080918312072754,0.4476190476190475
658,0.12777800858020782,0.8230642877649024,4.292501926422119,0.46842373869932924
659,0.15100666880607605,0.886028602860286,3.8050622940063477,0.5121737386993291
660,0.1602400541305542,0.899215023445711,3.7176525592803955,0.46914682539682534
661,0.17946144938468933,0.8979703272438008,3.7250192165374756,0.44920625194522235
662,0.15507613122463226,0.9286559139784947,3.7578108310699463,0.4660345904095903
663,0.12667109072208405,0.9081077971413983,4.212757110595703,0.5591905381944444
664,0.159160315990448,0.9323038073038074,4.280924320220947,0.5591905381944444
665,0.12270592153072357,0.8922109291674509,4.196617126464844,0.4652888007054673
666,0.13878974318504333,0.9249330037617763,3.9708752632141113,0.4287625661375661
667,0.15964260697364807,0.8236710838814072,4.103945732116699,0.48678571428571416
668,0.1374959796667099,0.9289141414141414,4.581079483032227,0.5591905381944444
669,0.11741303652524948,0.9633231911457718,4.663661956787109,0.5591905381944444
670,0.11565160751342773,0.9290029325513196,4.335310935974121,0.5591905381944444
671,0.11478747427463531,0.9890776699029127,3.8961174488067627,0.5726164641203703
672,0.11312156915664673,0.9494237588652482,3.9153573513031006,0.5726164641203703
673,0.11686789244413376,0.9551991054368595,3.9461445808410645,0.5927553530092592
674,0.09906377643346786,0.9411162314388121,4.067780494689941,0.475515873015873
675,0.10411710292100906,0.9477803101137603,4.0587029457092285,0.583033130787037
676,0.09694086760282516,0.9518427051671733,4.162447929382324,0.5591905381944444
677,0.09258093684911728,0.9725765306122449,4.331719398498535,0.5591905381944444
678,0.11438332498073578,0.9570761494252873,4.35594367980957,0.5591905381944444
679,0.13825061917304993,0.9670457434759494,3.8624980449676514,0.655312454025456
680,0.11585413664579391,0.9762512442453652,3.716508626937866,0.6001415829175157
681,0.13548609614372253,0.8008399209486166,3.7799928188323975,0.5591905381944444
682,0.11511378735303879,0.946567509067509,3.6844568252563477,0.5591905381944444
683,0.1073378399014473,0.9885817307692308,3.555875539779663,0.5786089238845143
684,0.09976591169834137,0.9494567239932221,3.3071517944335938,0.45962136243386237
685,0.12399371713399887,0.953076107982022,3.3527355194091797,0.48347003499562546
686,0.1069411113858223,0.9817708333333334,3.625683307647705,0.5786349826388889
687,0.09359268099069595,0.9396034816247583,3.426090717315674,0.56474609375
688,0.09474591910839081,0.9762374357176251,3.1563336849212646,0.6081720196759258
689,0.10347338020801544,0.9704108532233532,3.1013023853302,0.5298148616257192
690,0.10473032295703888,0.9541546616430261,3.3197169303894043,0.6210785254330632
691,0.15079611539840698,0.9092556205871423,3.637418508529663,0.6385174612713673
692,0.10913747549057007,0.9849431818181817,3.6123242378234863,0.4493457690005228
693,0.1124083399772644,0.9708471342165899,3.408924102783203,0.4493959159807806
694,0.1311597377061844,0.9738318625709059,3.216128349304199,0.47089489361626147
695,0.11726458370685577,0.9726151508066402,3.6547164916992188,0.5591905381944444
696,0.1273820847272873,0.9234460811056556,3.7464566230773926,0.5591905381944444
697,0.077826127409935,0.9534154660206553,3.171302318572998,0.6170609085648147
698,0.08770830929279327,0.9449082474546568,2.871264696121216,0.47684340955462545
699,0.10092206299304962,0.9018403639371382,2.791954278945923,0.4083398264346571
700,0.14410513639450073,0.9710162359481915,2.934860944747925,0.4491655124063999
701,0.09020891785621643,0.9673631321594105,3.238938093185425,0.6447237375184406
702,0.09454730153083801,0.9704792490118577,3.2234537601470947,0.6581299560515267
703,0.12102826684713364,0.9703282828282829,3.0986061096191406,0.6310188479370825
704,0.07683822512626648,0.9726312159598676,2.9705560207366943,0.6030807248934407
705,0.09116522967815399,0.9688400316911553,2.868546962738037,0.5478120080102289
706,0.07368146628141403,0.9928385416666666,3.089024066925049,0.4627744360673356
707,0.10279013961553574,0.9483901515151515,3.2639963626861572,0.4488964399645236
708,0.08870895206928253,0.9917091836734694,3.509639024734497,0.44879264895851745
709,0.0967077761888504,0.9643681605385998,3.4700045585632324,0.4490157541517722
710,0.09600640088319778,0.945389237199582,3.2776434421539307,0.42169886539613144
711,0.08909115195274353,0.9758751168770454,3.3435935974121094,0.49149202994764074
712,0.08619629591703415,0.9792397660818714,3.5726399421691895,0.4774644961278789
713,0.07339891791343689,0.9926718714253031,3.5438811779022217,0.4498042660384929
714,0.10344554483890533,0.9680059523809523,3.26948881149292,0.5468947196487607
715,0.08209031075239182,0.9428664402942841,3.2705254554748535,0.44864217749251456
716,0.09378505498170853,0.9471654660206553,3.2072396278381348,0.40690101030473114
717,0.09495028853416443,0.969461281961282,3.407233476638794,0.39283449320741176
718,0.06166999787092209,0.9808510638297873,3.231499671936035,0.39086465152623123
719,0.0849287360906601,0.9743218475073314,3.1675968170166016,0.39114921771868316
720,0.07214908301830292,0.9409636062861869,3.5696117877960205,0.4065160611865849
721,0.07262781262397766,0.9777153558052434,3.5339598655700684,0.3919749627522492
722,0.07985931634902954,0.9768722882475005,3.511514663696289,0.40638086243619065
723,0.09150533378124237,0.9576357466063349,3.6900112628936768,0.42047626187616044
724,0.08913561701774597,0.97709049255441,3.7639248371124268,0.4206362071609591
725,0.09888439625501633,0.9704665044653262,3.893665313720703,0.4345450618625494
726,0.0725296288728714,0.9793956043956044,3.7461845874786377,0.4345648261009239
727,0.07755975425243378,0.9797075012800819,3.85966420173645,0.5046097656747681
728,0.07172494381666183,0.9657722626472627,3.8669230937957764,0.5195791085561434
729,0.06910772621631622,0.9871010638297872,3.8766238689422607,0.5196314592845213
730,0.06110195070505142,0.9770955016741534,3.9190478324890137,0.47665502281841365
731,0.09636230021715164,0.9666167166167166,3.5836181640625,0.4207995607508897
732,0.08850938081741333,0.9836641852770885,3.551347017288208,0.40672573737809564
733,0.07178859412670135,0.9721940500338067,3.430628538131714,0.3786372712976447
734,0.06941499561071396,0.9734428457966764,3.778188467025757,0.3923507431065429
735,0.062441062182188034,0.989356884057971,3.802238941192627,0.4065333580605216
736,0.05836530402302742,0.9858187134502924,3.546191453933716,0.406559827139514
737,0.07777421176433563,0.9518421884882985,3.605173349380493,0.434620184842176
738,0.0887191966176033,0.9333534816247582,3.4871742725372314,0.4067545893931435
739,0.08083375543355942,0.9806433414446455,3.173703670501709,0.3930218140145507
740,0.1065305694937706,0.971875,3.299154758453369,0.40694363100003955
741,0.08667949587106705,0.9713541666666667,3.509732484817505,0.4069688252226456
742,0.08764748275279999,0.9834388768470115,3.765947103500366,0.39289622778615874
743,0.0624266155064106,0.9653223649010165,3.224745273590088,0.3931538061340495
744,0.08678829669952393,0.9695170155961752,3.129626989364624,0.4496294905696996
745,0.0908980444073677,0.9360227272727273,3.553807497024536,0.44978833205661317
746,0.08794113993644714,0.9843362282878412,3.684507131576538,0.4077763428128231
747,0.06119951233267784,0.9862103174603174,3.507019519805908,0.4069793805387833
748,0.07846461236476898,0.9500655594405594,3.470484733581543,0.3929549947615987
749,0.07083597034215927,0.9828629032258065,3.166377067565918,0.37761216197122244
750,0.07877975702285767,0.9805718475073314,2.8385488986968994,0.3774911916007551
751,0.06739604473114014,0.9641164994425864,2.8699071407318115,0.3783591289175549
752,0.0755295678973198,0.9654451296647691,3.1364762783050537,0.39383415870833666
753,0.06563448160886765,0.9833655196629214,3.0803139209747314,0.3938598172745663
754,0.06731793284416199,0.9536401098901099,3.298739194869995,0.4075857227688892
755,0.07509151846170425,0.9772849462365591,3.344940185546875,0.4068553327218027
756,0.07797178626060486,0.9798416860916861,3.4465832710266113,0.39279080774759695
757,0.06561869382858276,0.9847092245989304,3.5817387104034424,0.39257525547768846
758,0.07011374086141586,0.9728396603396603,3.635688066482544,0.3924590519275413
759,0.0712490826845169,0.9756659335288368,3.56685733795166,0.39232693464708146
760,0.07334154099225998,0.9754464285714286,3.324281930923462,0.39249092088548637
761,0.05845874175429344,0.9882697947214076,3.448413372039795,0.3907829102954343
762,0.06471358984708786,0.9855769230769231,3.4946858882904053,0.3904202696487401
763,0.05898277088999748,0.9817713653387811,3.464972972869873,0.3764659769655896
764,0.06441599875688553,0.9777698863636364,3.206580400466919,0.37650215631611883
765,0.058796919882297516,0.9639957264957265,3.3183281421661377,0.37599229661166333
766,0.09003874659538269,0.8144007490636704,3.0178120136260986,0.40592412982232484
767,0.06018896400928497,0.9784070096570097,2.956066131591797,0.4904629080424329
768,0.0646207258105278,0.9347469220246238,2.7301626205444336,0.4764516009925146
769,0.09368573129177094,0.9762549238794846,2.6339974403381348,0.4207537972945539
770,0.08577341586351395,0.9762837548875856,2.5065250396728516,0.42072517261945463
771,0.08427606523036957,0.9730387509690902,2.767821788787842,0.642492496539704
772,0.0685507208108902,0.989356884057971,3.1223788261413574,0.5730794270833334
773,0.06526829302310944,0.9838056680161944,3.2494800090789795,0.5730794270833334
774,0.0730321854352951,0.9769024514811031,3.0457561016082764,0.6226164641203702
775,0.057850565761327744,0.9809837728194726,3.1688928604125977,0.6439986971510088
776,0.06527335941791534,0.9555753551540068,3.0891497135162354,0.42118232115325394
777,0.08914507925510406,0.9800554355095952,3.01859974861145,0.37906210049628997
778,0.08126120269298553,0.9610612170087977,3.0251893997192383,0.4215323597574129
779,0.062049951404333115,0.9819874274661509,3.066002607345581,0.5879805124548872
780,0.08847299218177795,0.9821985446985446,3.1016247272491455,0.519031466907282
781,0.07821667939424515,0.9640889114266397,3.062433958053589,0.5186095422162955
782,0.04952984303236008,0.9757544655718813,3.0279629230499268,0.46291886527168763
783,0.05478024482727051,0.9855769230769231,3.066861391067505,0.46277976100944784
784,0.051507167518138885,0.9770365168539326,2.969709873199463,0.4488933419788631
785,0.06617075949907303,0.9777777777777777,2.929680347442627,0.4479426822593241
786,0.06061913073062897,0.980721131369799,2.8415560722351074,0.4760154225493342
787,0.06574760377407074,0.9566761363636364,3.0096218585968018,0.5468905201624114
788,0.0736156478524208,0.9414377289377289,3.1309266090393066,0.5321533232860569
789,0.0777507945895195,0.9525696681595558,3.0719683170318604,0.4346645294738175
790,0.06132633984088898,0.9804738800525318,2.921557664871216,0.3925437708716607
791,0.06343687325716019,0.9786401098901099,2.925616502761841,0.378686700348813
792,0.07336629927158356,0.9799745952971759,3.217552900314331,0.40640567541972156
793,0.10653821378946304,0.9806614084839891,3.3317196369171143,0.42087385507669495
794,0.06155366450548172,0.9765889114266396,3.383350372314453,0.5455101675451899
795,0.06104710325598717,0.9405632411067193,3.4351820945739746,0.49051613776553116
796,0.07482557743787766,0.888888888888889,3.7183728218078613,0.5466829094265928
797,0.09380451589822769,0.9175974092207262,4.044530391693115,0.46371343864503767
798,0.06521022319793701,0.9805284992784993,4.197024345397949,0.3928050183368167
799,0.06712239235639572,0.9483896867979672,3.7583258152008057,0.37893833184345027
800,0.05543235316872597,0.9874531835205993,4.097275733947754,0.39278301367369645
801,0.05514087527990341,0.9903846153846154,4.359553813934326,0.3929138300713253
802,0.05875026434659958,0.9782784237726099,4.397266387939453,0.40685689756639026
803,0.05836731567978859,0.9882697947214076,4.591021537780762,0.39228275125068435
804,0.055573370307683945,0.9848901098901099,4.713165283203125,0.3927405217741187
805,0.05972963944077492,0.9780204311454311,4.694774150848389,0.37838682406792223
806,0.0722997784614563,0.9834692028985508,4.6473517417907715,0.37705926243404575
807,0.07458227872848511,0.9798320412220376,4.780982494354248,0.3787107292455285
808,0.07350870221853256,0.9696013931888545,5.437704086303711,0.4076516034198497
809,0.06197183206677437,0.9803225267379679,5.614995956420898,0.4075908808123303
810,0.11829785257577896,0.9757697947214077,5.58076286315918,0.40780935110667665
811,0.060934219509363174,0.9753073471472348,5.042675018310547,0.3799513165632422
812,0.0494532585144043,0.990728021978022,4.773068904876709,0.3924888592854795
813,0.08352511376142502,0.9602793040293041,5.4884138107299805,0.37738297255334596
814,0.0777120292186737,0.982675800342131,5.685797214508057,0.3782372229671147
815,0.053396306931972504,0.9809837728194726,5.873837471008301,0.4068807334027428
816,0.06665734946727753,0.9288389513108615,6.714381217956543,0.4070041082764708
817,0.07982271164655685,0.9762002042900919,7.283048152923584,0.39281211082932616
818,0.07511929422616959,0.9760095943382461,6.794061183929443,0.4067466665583718
819,0.0598885603249073,0.9794034090909091,6.204719543457031,0.3928128435767956
820,0.06474890559911728,0.9819159335288368,6.422814846038818,0.3789659613212855
821,0.058835189789533615,0.989757525083612,6.294425010681152,0.3788531505538376
822,0.08214342594146729,0.9776053944410942,6.271719455718994,0.37855448838349254
823,0.06567870825529099,0.9872922776148583,5.350830078125,0.37798024055996643
824,0.05726586654782295,0.9794592696629214,5.363836765289307,0.3782098984961234
825,0.04940326511859894,0.9842704849498327,5.721939563751221,0.392045819509939
826,0.07371938973665237,0.9704360679970436,6.458776950836182,0.37719316647532686
827,0.06246624514460564,0.9900426742532006,7.19635009765625,0.3767913138113081
828,0.04923231899738312,0.9886363636363636,6.890932559967041,0.3780431187164169
829,0.07031497359275818,0.9743828369905956,6.891964912414551,0.37826315966302404
830,0.0527227409183979,0.9874531835205993,7.690348148345947,0.3776874289415513
831,0.08278338611125946,0.9831430989795364,8.084822654724121,0.37620901987768035
832,0.06013665348291397,0.9625686813186813,6.954217433929443,0.37655879713364443
833,0.11175788938999176,0.848764534883721,5.214869976043701,0.44891303710060054
834,0.07639161497354507,0.9922680412371134,4.840144634246826,0.6373475609756096
835,0.09201927483081818,0.9335702341137124,4.374590873718262,0.5591905381944444
836,0.06474722921848297,0.9743055555555555,3.658109426498413,0.5591905381944444
837,0.08194109052419662,0.9780593230694037,3.27280330657959,0.6286926807760139
838,0.06354410946369171,0.9868055555555555,3.163052558898926,0.6567614994026283
839,0.061665330082178116,0.9836057467544144,3.1361594200134277,0.6247769579475306
840,0.07303144782781601,0.9745934128800262,3.164522171020508,0.518684190278302
841,0.0840899795293808,0.9900249615975423,2.920010805130005,0.4763638882091963
842,0.0643436461687088,0.9903846153846154,3.0350868701934814,0.5179854410881253
843,0.05196975916624069,0.9913690476190476,3.219256639480591,0.5868336769258804
844,0.0648132711648941,0.9848901098901099,3.3433868885040283,0.6417286364938534
845,0.07643426954746246,0.9726988440303658,3.4972219467163086,0.4911052121303072
846,0.07104281336069107,0.9819159335288368,3.718061685562134,0.4346381213466317
847,0.05279753729701042,0.9958791208791209,3.7706804275512695,0.40677501118917625
848,0.05791988968849182,0.9809837728194726,3.6688859462738037,0.3929273520407026
849,0.07611671090126038,0.9633995037220844,4.092438697814941,0.5191124386170389
850,0.06371621787548065,0.9784226190476191,4.531984329223633,0.6534784193642459
851,0.06358765065670013,0.9804738800525318,4.223197937011719,0.6422823327359617
852,0.07284615933895111,0.9197979797979798,3.7324159145355225,0.44959345157566616
853,0.05095048248767853,0.9853698501872659,3.529177665710449,0.3759260542747084
854,0.06171352043747902,0.9825191570881227,3.1690561771392822,0.37822503350065195
855,0.05290592461824417,0.9896625229101921,3.21256422996521,0.37812977498859435
856,0.05843191593885422,0.9843021561771561,3.2007341384887695,0.37470591814212234
857,0.044286854565143585,0.9903846153846154,3.385284185409546,0.37494929354677153
858,0.049972984939813614,0.9840198863636364,3.309687852859497,0.3757250069547736
859,0.0597769133746624,0.9848914163430292,3.6338086128234863,0.375279570192007
860,0.0565878264605999,0.973764534883721,3.7068634033203125,0.37530179620986354
861,0.06158752739429474,0.9801718714253032,3.669377565383911,0.37571580974487406
862,0.04941057041287422,0.9913690476190476,3.541266441345215,0.39166839721217234
863,0.058457210659980774,0.9547507065889418,3.745616912841797,0.3914272464183936
864,0.06641282886266708,0.9792912679425837,3.7084224224090576,0.37689014517155833
865,0.0683729499578476,0.9757392473118279,3.697314739227295,0.37779826553656376
866,0.05030405893921852,0.9741505753018911,3.727741241455078,0.40659005202993787
867,0.1028907373547554,0.9670464046822742,3.7913942337036133,0.4204684468611667
868,0.04945583641529083,0.9886363636363636,3.5986642837524414,0.46165237708120443
869,0.06491420418024063,0.9825842696629213,3.586090564727783,0.44764011790630676
870,0.054706353694200516,0.9834692028985508,3.6251330375671387,0.43405539499824014
871,0.05112024396657944,0.9819444444444445,3.761159658432007,0.4340411911160303
872,0.04291421175003052,0.9886363636363636,3.909419298171997,0.43391715757084226
873,0.041696712374687195,0.9913690476190476,4.048802852630615,0.4155214555459594
874,0.04415605962276459,0.9862103174603174,4.148406028747559,0.3831687763614694
875,0.06209234520792961,0.9754016064257028,4.101388931274414,0.39720492138431673
876,0.053831230849027634,0.9862103174603174,4.678216934204102,0.3923995677036534
877,0.042699653655290604,0.9903846153846154,4.68543004989624,0.3876599717807203
878,0.048567917197942734,0.9828869047619048,5.0552778244018555,0.37367041555616914
879,0.04669680818915367,0.9874531835205993,5.015460014343262,0.37841544437812535
880,0.05358162894845009,0.9820197947214077,5.174166202545166,0.3778011571928118
881,0.04590706154704094,0.9825842696629213,5.022239685058594,0.3781181810665498
882,0.04476752504706383,0.9809837728194726,4.756030082702637,0.37811204338541565
883,0.04532236233353615,0.967282196969697,4.692554950714111,0.37770630106132763
884,0.05984131991863251,0.989356884057971,4.699295997619629,0.3774039951284391
885,0.04962839558720589,0.9913690476190476,4.545754909515381,0.37685776025933737
886,0.051952164620161057,0.9791308089500861,4.36797571182251,0.37597704505625923
887,0.06002669408917427,0.9843021561771561,4.24330997467041,0.37561085295694563
888,0.048503611236810684,0.9903846153846154,4.27517557144165,0.37581260668392114
889,0.04355529323220253,0.9886762640449438,4.419541358947754,0.3758185638385242
890,0.04740782827138901,0.9879906692406693,4.2410783767700195,0.37495266373860636
891,0.061192773282527924,0.977610153256705,3.9820704460144043,0.3745275818188251
892,0.05790803208947182,0.9784976000701807,4.255965232849121,0.37526054716892643
893,0.05010730400681496,0.9810515873015873,4.4677734375,0.37664241996136316
894,0.08292678743600845,0.9574952107279693,5.108625888824463,0.37693764712701466
895,0.0542793944478035,0.9804930124223603,5.394110202789307,0.3777431609743284
896,0.054280392825603485,0.990728021978022,4.845820426940918,0.39172628861972497
897,0.059055179357528687,0.9873496435996436,4.553093433380127,0.3756228143536837
898,0.04722055420279503,0.9848901098901099,4.406515598297119,0.3744626275946252
899,0.05457371473312378,0.9825842696629213,4.389342308044434,0.37444322172540034
900,0.053294818848371506,0.9527698863636364,4.467291355133057,0.3745975240584259
901,0.06427690386772156,0.9798320412220376,4.731249809265137,0.3756188040008715
902,0.05743882432579994,0.9710044586122172,5.069882392883301,0.3768822108973065
903,0.08135271817445755,0.9239336917562724,5.854768753051758,0.37752314086381505
904,0.07103501260280609,0.9495650953984287,5.635899543762207,0.40574915364856184
905,0.060819532722234726,0.9946236559139785,6.09865665435791,0.3919452210050492
906,0.06498052924871445,0.9778982007298558,6.042431831359863,0.4200504853365828
907,0.05529656261205673,0.9753019546376545,5.523443698883057,0.5044274544621137
908,0.05326424911618233,0.9903846153846154,5.009079933166504,0.4774071980393002
909,0.05001194402575493,0.9805284992784993,4.663467884063721,0.46171807744912297
910,0.04665137082338333,0.9913690476190476,4.831612586975098,0.43392132000993583
911,0.05008304491639137,0.9853786342123056,4.993442058563232,0.3917146049332084
912,0.048503316938877106,0.9840677668539326,5.414383888244629,0.376762585189658
913,0.04526544362306595,0.9848901098901099,5.3634467124938965,0.3759190388385718
914,0.04354263097047806,0.9853786342123056,5.377307891845703,0.3767556205800566
915,0.03734311833977699,0.9886762640449438,5.8661417961120605,0.37583283595042805
916,0.0468992181122303,0.9879740168539326,6.131167888641357,0.37664992697542415
917,0.04911528155207634,0.9840198863636364,6.220399379730225,0.3766421838643367
918,0.05791822075843811,0.9488663891825229,5.8749213218688965,0.3906211065828101
919,0.0511951670050621,0.9778985507246377,5.39956521987915,0.39129936830043094
920,0.048284515738487244,0.9862103174603174,5.529410362243652,0.3772111262860705
921,0.047339629381895065,0.9866763565891473,5.358590602874756,0.3771737359779866
922,0.04990207776427269,0.9848901098901099,5.287966251373291,0.3770699452832833
923,0.049116890877485275,0.9879740168539326,5.294985294342041,0.3765820448276093
924,0.04806888476014137,0.9868055555555555,4.800930976867676,0.376496684866513
925,0.039419740438461304,0.9923220973782771,4.692596912384033,0.37710151019909
926,0.06440628319978714,0.9480066983578219,4.741057872772217,0.37788723712586547
927,0.053756583482027054,0.9840198863636364,4.583847999572754,0.3780645088450521
928,0.044867631047964096,0.9874531835205993,4.592719554901123,0.3781748689856505
929,0.0506991446018219,0.9862103174603174,4.631955623626709,0.3920719920903265
930,0.05742305517196655,0.9847027972027972,4.894400119781494,0.39201483056256353
931,0.05213106423616409,0.9798761609907121,4.846163749694824,0.4054556113658116
932,0.05137175694108009,0.9940159574468085,4.737469673156738,0.37743467664859753
933,0.04746547341346741,0.989356884057971,4.9993696212768555,0.37743128361894995
934,0.05132589116692543,0.9847092245989304,4.720663547515869,0.377291259924671
935,0.053192805498838425,0.9825842696629213,4.406168460845947,0.3771516210202697
936,0.0375232957303524,0.9923220973782771,4.586676120758057,0.4049644361145285
937,0.042146146297454834,0.9641098484848485,4.39972448348999,0.40494960388817386
938,0.04531377926468849,0.9866003787878788,4.501891613006592,0.4046758966462272
939,0.04923588037490845,0.9952445652173914,4.998538970947266,0.390337888141563
940,0.04385097697377205,0.9854194518716577,4.669734954833984,0.376523017430647
941,0.06129448860883713,0.9783285440613027,4.667365074157715,0.3766693750414006
942,0.04815540462732315,0.9862103174603174,4.611981391906738,0.37671942085372373
943,0.051677148789167404,0.981176127243543,4.648308277130127,0.3775674152880394
944,0.05259399488568306,0.9825842696629213,4.618764877319336,0.3773063695121384
945,0.04720552638173103,0.9782890869905956,4.147341251373291,0.37758754436799574
946,0.045940835028886795,0.9862637362637363,4.483234405517578,0.37702378072411935
947,0.03729434683918953,0.9903846153846154,4.773072242736816,0.3758094786485486
948,0.050037283450365067,0.9818497474747474,4.692995548248291,0.3907038051814243
949,0.03807152807712555,0.9791308089500861,4.649755954742432,0.3909893708514281
950,0.04328134283423424,0.9887432795698925,4.9030327796936035,0.3915020193583745
951,0.04669025167822838,0.9903846153846154,4.6075544357299805,0.3777746294582913
952,0.056322865188121796,0.9709753787878788,4.901159763336182,0.3776044774798028
953,0.04609435796737671,0.9913690476190476,4.823999881744385,0.3774389927390331
954,0.03529791533946991,0.9750457875457875,4.992771148681641,0.37736792450611145
955,0.05370936170220375,0.9758513931888545,5.015696048736572,0.3913422402554848
956,0.04746056720614433,0.9732092696629213,4.993092060089111,0.3908838754907249
957,0.041983187198638916,0.9882697947214076,4.960458755493164,0.3894181996584194
958,0.04775946959853172,0.9677622126436781,4.526261806488037,0.3905999787885552
959,0.036813437938690186,0.9879513463892289,4.519449234008789,0.37624228289928274
960,0.044642262160778046,0.9874531835205993,4.646782875061035,0.37535731842119685
961,0.04713389277458191,0.9903846153846154,4.608012676239014,0.3753796639062848
962,0.029194753617048264,0.9932528409090909,4.521219730377197,0.376396451547778
963,0.035165537148714066,0.9866763565891473,4.545101165771484,0.3764387577380971
964,0.04279204457998276,0.9875,4.717909336090088,0.3763932714595404
965,0.04271583631634712,0.9874531835205993,5.026219844818115,0.3765523881083345
966,0.050164785236120224,0.9806985294117647,5.024662971496582,0.3765935286727658
967,0.04999832063913345,0.9557303328855054,5.035972595214844,0.3912638336123088
968,0.042624376714229584,0.9666198501872659,4.689639568328857,0.3913384786669302
969,0.04294779896736145,0.9840198863636364,4.860555171966553,0.39144112116956836
970,0.04571574181318283,0.9840582638975252,4.976766109466553,0.3915371215452856
971,0.0567174106836319,0.9840198863636364,5.165570259094238,0.3917655564139287
972,0.037280257791280746,0.990875322997416,5.316222667694092,0.39153077070899417
973,0.04326224699616432,0.990728021978022,5.189796447753906,0.3775142011140379
974,0.04827131703495979,0.9811126373626373,4.825109481811523,0.39145748717067874
975,0.039147913455963135,0.9824337121212121,4.7609124183654785,0.3915015567530086
976,0.03030278906226158,0.9867097701149425,4.961252212524414,0.39147291691934444
977,0.034580547362565994,0.9903846153846154,5.256629943847656,0.3773507543608018
978,0.04851942136883736,0.980641507985258,5.10058069229126,0.37559340991220885
979,0.050107575953006744,0.9810327540106951,5.1108174324035645,0.36996236920318293
980,0.04139037802815437,0.989356884057971,5.250975131988525,0.3746106063636973
981,0.05677660554647446,0.9567849989458148,6.473474979400635,0.3913615507374835
982,0.043983977288007736,0.9829545454545454,7.130801677703857,0.5177358695448674
983,0.04820748791098595,0.981176127243543,6.489848613739014,0.6158206807455001
984,0.04487118124961853,0.9879906692406693,5.732484340667725,0.6308583874402712
985,0.03685373440384865,0.9925825140449438,4.931371688842773,0.6153861606413779
986,0.0426575131714344,0.9806955093099672,4.285102844238281,0.5877513805076091
987,0.05429127812385559,0.989356884057971,4.054100036621094,0.5736924624951192
988,0.03255605697631836,0.9913690476190476,3.7210841178894043,0.5873222980427487
989,0.048650845885276794,0.9834371577217963,3.9196717739105225,0.6011808322048299
990,0.03088894672691822,0.9965277777777778,4.106235504150391,0.601150541381143
991,0.04238362982869148,0.9824773901808785,3.8478965759277344,0.6013120224941008
992,0.04653310403227806,0.9843021561771561,3.4447684288024902,0.5177688625465106
993,0.0487055666744709,0.9825842696629213,3.3165905475616455,0.4617020526795993
994,0.04546813294291496,0.9879256965944272,3.1747019290924072,0.4617691516294226
995,0.0451049879193306,0.9875,3.187297821044922,0.44784830951999044
996,0.03367011249065399,0.9923220973782771,3.284424304962158,0.4896178879200687
997,0.06244027242064476,0.9727532679738562,3.3144969940185547,0.5177298227710616
998,0.034202639013528824,0.990875322997416,3.303332567214966,0.48974884698310134
999,0.040026385337114334,0.9958791208791209,3.280905246734619,0.4618368841310525
