,loss,recall,val_loss,val_recall
0,0.6856023669242859,0.7120000123977661,1.1793156862258911,0.3186666667461395
1,0.22150468826293945,0.9279999732971191,0.7740158438682556,0.40755555033683777
2,0.17914892733097076,0.9380000233650208,0.627241849899292,0.7177777886390686
3,0.15408499538898468,0.9520000219345093,0.5783123970031738,0.8308888673782349
4,0.14027084410190582,0.9459999799728394,0.8860723376274109,0.3408888876438141
5,0.11611544340848923,0.9660000205039978,0.6105148196220398,0.6691111326217651
6,0.11785943061113358,0.9599999785423279,0.8977105021476746,0.266222208738327
7,0.11598960310220718,0.9660000205039978,0.5930019617080688,0.7433333396911621
8,0.10204991698265076,0.972000002861023,0.48966026306152344,0.862666666507721
9,0.09684912115335464,0.9760000109672546,0.6140852570533752,0.7093333601951599
10,0.08942197263240814,0.9679999947547913,0.9181552529335022,0.5864444375038147
11,0.08176282048225403,0.9760000109672546,1.0748355388641357,0.5791110992431641
12,0.0761341005563736,0.9819999933242798,1.2397727966308594,0.5619999766349792
13,0.07995829731225967,0.9739999771118164,0.8454880118370056,0.6411111354827881
14,0.06775727868080139,0.9819999933242798,0.9116389751434326,0.5860000252723694
15,0.06378088146448135,0.9800000190734863,0.6158818006515503,0.7139999866485596
16,0.0724925696849823,0.9800000190734863,0.2845211923122406,0.9237777590751648
17,0.06762581318616867,0.9800000190734863,0.41680091619491577,0.8317777514457703
18,0.06662467122077942,0.9800000190734863,0.47567659616470337,0.8713333606719971
19,0.05319793522357941,0.9860000014305115,0.35207873582839966,0.9151111245155334
20,0.05517156422138214,0.9800000190734863,0.4636945426464081,0.8802222013473511
21,0.048337746411561966,0.984000027179718,0.5247294306755066,0.737333357334137
22,0.04959370940923691,0.9819999933242798,0.35722804069519043,0.8933333158493042
23,0.04614339768886566,0.9860000014305115,0.5294730067253113,0.7477777600288391
24,0.05497347190976143,0.9819999933242798,0.6050621271133423,0.7448889017105103
25,0.04429089277982712,0.9879999756813049,0.44927549362182617,0.828000009059906
26,0.043927717953920364,0.984000027179718,0.3149286210536957,0.9264444708824158
27,0.07432637363672256,0.972000002861023,0.725561797618866,0.6788889169692993
28,0.04912798851728439,0.9879999756813049,1.1559371948242188,0.6320000290870667
29,0.05014238879084587,0.984000027179718,0.7625060677528381,0.7173333168029785
30,0.0494593009352684,0.9819999933242798,0.9598092436790466,0.6377778053283691
31,0.04138876497745514,0.9879999756813049,0.3714119493961334,0.9013333320617676
32,0.0432855486869812,0.984000027179718,0.3316524624824524,0.8908888697624207
33,0.036551378667354584,0.9900000095367432,0.2820396423339844,0.9240000247955322
34,0.02303502894937992,0.9919999837875366,0.46455901861190796,0.8177777528762817
35,0.0344877615571022,0.9919999837875366,0.4687405526638031,0.8366666436195374
36,0.029347725212574005,0.9900000095367432,0.2879466116428375,0.9306666851043701
37,0.044423554092645645,0.9860000014305115,0.28942209482192993,0.9197777509689331
38,0.04056913033127785,0.9919999837875366,0.35862186551094055,0.9179999828338623
39,0.041613757610321045,0.984000027179718,0.28028690814971924,0.9462222456932068
40,0.04671107605099678,0.9900000095367432,0.4403994381427765,0.9380000233650208
41,0.06790975481271744,0.9739999771118164,0.8771936297416687,0.7575555443763733
42,0.041161879897117615,0.9819999933242798,1.1769702434539795,0.6708889007568359
43,0.028933711349964142,0.9860000014305115,0.37383854389190674,0.8882222175598145
44,0.01219073124229908,0.9980000257492065,0.29225727915763855,0.9440000057220459
45,0.018553370609879494,0.9940000176429749,0.28538936376571655,0.9259999990463257
46,0.018927600234746933,0.9940000176429749,0.3335367441177368,0.9384444355964661
47,0.031923625618219376,0.9919999837875366,0.3603529632091522,0.9411110877990723
48,0.04083939269185066,0.9819999933242798,0.31062182784080505,0.9300000071525574
49,0.04036935046315193,0.9860000014305115,0.3730858564376831,0.9197777509689331
50,0.03883940726518631,0.9879999756813049,0.3262489438056946,0.9319999814033508
51,0.020820682868361473,0.9919999837875366,0.38601016998291016,0.9328888654708862
52,0.03146076947450638,0.9860000014305115,0.4095105230808258,0.9377777576446533
53,0.019067808985710144,0.9919999837875366,0.40308502316474915,0.940666675567627
54,0.010229098610579967,0.9980000257492065,0.4141719937324524,0.9431111216545105
55,0.020270178094506264,0.9940000176429749,0.3463937044143677,0.9213333129882812
56,0.011701472103595734,1.0,0.31471043825149536,0.9359999895095825
57,0.020822618156671524,0.9900000095367432,0.3560246527194977,0.8968889117240906
58,0.02493314817547798,0.9940000176429749,0.2810894548892975,0.9353333115577698
59,0.017114054411649704,0.9959999918937683,0.33287590742111206,0.9468888640403748
60,0.027354929596185684,0.9900000095367432,0.5855960249900818,0.9397777915000916
61,0.04655667021870613,0.984000027179718,0.3969508409500122,0.891777753829956
62,0.026697643101215363,0.9919999837875366,0.7351557612419128,0.8080000281333923
63,0.023628631606698036,0.9900000095367432,0.5154441595077515,0.9124444723129272
64,0.013979793526232243,0.9980000257492065,0.3825899064540863,0.9408888816833496
65,0.008032253012061119,0.9980000257492065,0.38578999042510986,0.9173333048820496
66,0.012252897955477238,1.0,0.4101775288581848,0.9422222375869751
67,0.008703776635229588,0.9959999918937683,0.3758617043495178,0.9139999747276306
68,0.007177503779530525,0.9980000257492065,0.39988163113594055,0.9064444303512573
69,0.005012918263673782,0.9980000257492065,0.372081458568573,0.9237777590751648
70,0.004489371087402105,1.0,0.3325173556804657,0.9331111311912537
71,0.002620822750031948,1.0,0.3357119560241699,0.9377777576446533
72,0.0014567141188308597,1.0,0.3515927791595459,0.9388889074325562
73,0.0010335725964978337,1.0,0.35363662242889404,0.9333333373069763
74,0.0014617934357374907,1.0,0.3535144031047821,0.9295555353164673
75,0.0010034258011728525,1.0,0.3561209440231323,0.9286666512489319
76,0.0014656329294666648,1.0,0.35732895135879517,0.9279999732971191
77,0.0010778491850942373,1.0,0.36839181184768677,0.9204444289207458
78,0.0007150839664973319,1.0,0.35571354627609253,0.9304444193840027
79,0.000599537102971226,1.0,0.3550027012825012,0.9331111311912537
80,0.0004667655157390982,1.0,0.3537856638431549,0.9351111054420471
81,0.0010938484920188785,1.0,0.3544880151748657,0.9366666674613953
82,0.00046710987226106226,1.0,0.35698238015174866,0.9388889074325562
83,0.0004522158997133374,1.0,0.3612889051437378,0.9404444694519043
84,0.0005735267768613994,1.0,0.36215099692344666,0.9399999976158142
85,0.0007510972791351378,1.0,0.36096200346946716,0.9397777915000916
86,0.0004513980820775032,1.0,0.35913002490997314,0.9384444355964661
87,0.000893870135769248,1.0,0.35935840010643005,0.9359999895095825
88,0.0008775583701208234,1.0,0.3601783514022827,0.9362221956253052
89,0.000574950419832021,1.0,0.3626655340194702,0.9375555515289307
90,0.0006102660554461181,1.0,0.3642708361148834,0.9366666674613953
91,0.00022293275105766952,1.0,0.36527156829833984,0.9368888735771179
92,0.0003682830138131976,1.0,0.3628966510295868,0.9340000152587891
93,0.0003462705062702298,1.0,0.3645612895488739,0.9315555691719055
94,0.00043571286369115114,1.0,0.36830681562423706,0.9311110973358154
95,0.0003001057484652847,1.0,0.3696197271347046,0.9322222471237183
96,0.00048242040793411434,1.0,0.3692322075366974,0.9333333373069763
97,0.0003219890350010246,1.0,0.369751513004303,0.9348888993263245
98,0.00039051915518939495,1.0,0.3715433180332184,0.9357777833938599
99,0.0004526606062427163,1.0,0.37115588784217834,0.9342222213745117
100,0.0003275282506365329,1.0,0.372345507144928,0.9355555772781372
101,0.0004117189673706889,1.0,0.37390103936195374,0.9364444613456726
102,0.00034883784246630967,1.0,0.37482449412345886,0.9377777576446533
103,0.00021956005366519094,1.0,0.3759157359600067,0.9386666417121887
104,0.0003316726360935718,1.0,0.37765029072761536,0.9386666417121887
105,0.0003064204938709736,1.0,0.3788520097732544,0.9353333115577698
106,0.00023493012122344226,1.0,0.37999939918518066,0.9324444532394409
107,0.0003500452730804682,1.0,0.38033562898635864,0.9337777495384216
108,0.00017355105956085026,1.0,0.3806367814540863,0.9357777833938599
109,0.00025281711714342237,1.0,0.3820298910140991,0.9371111392974854
110,0.0002494717773515731,1.0,0.382625937461853,0.9357777833938599
111,0.00031772523652762175,1.0,0.382321298122406,0.9362221956253052
112,0.0002126706822309643,1.0,0.38180384039878845,0.9362221956253052
113,0.00021638725593220443,1.0,0.3838620185852051,0.9368888735771179
114,0.00024263006343971938,1.0,0.3844772279262543,0.9364444613456726
115,0.00022226545843295753,1.0,0.3838742673397064,0.9337777495384216
116,0.0001899109047371894,1.0,0.3845061659812927,0.9333333373069763
117,0.00026703221374191344,1.0,0.383415549993515,0.9353333115577698
118,0.00020825915271416306,1.0,0.3842061758041382,0.9371111392974854
119,0.00023775621957611293,1.0,0.38594871759414673,0.9382222294807434
120,0.00021901080617681146,1.0,0.38869374990463257,0.9364444613456726
121,0.00021612893033307046,1.0,0.390551894903183,0.9377777576446533
122,0.0002582485321909189,1.0,0.3887671232223511,0.9346666932106018
123,0.00030182485352270305,1.0,0.388290137052536,0.9353333115577698
124,0.00016682226851116866,1.0,0.3884178102016449,0.9355555772781372
125,0.00012776847870554775,1.0,0.3906802833080292,0.9359999895095825
126,0.00013300502905622125,1.0,0.39211341738700867,0.9364444613456726
127,0.00026435215841047466,1.0,0.39274168014526367,0.9368888735771179
128,0.0004086929839104414,1.0,0.391784131526947,0.9362221956253052
129,0.00019821155001409352,1.0,0.3904232382774353,0.9304444193840027
130,0.00037536825402639806,1.0,0.3893139660358429,0.9382222294807434
131,0.0004765922494698316,1.0,0.3877105712890625,0.9359999895095825
132,0.0003906430210918188,1.0,0.4014802575111389,0.9271110892295837
133,0.00026337444433011115,1.0,0.3976094126701355,0.9306666851043701
134,0.0002250722172902897,1.0,0.4011809527873993,0.9384444355964661
135,0.00013369799125939608,1.0,0.4060148000717163,0.9395555257797241
136,0.00019779204740189016,1.0,0.40057137608528137,0.9393333196640015
137,0.00023152750509325415,1.0,0.39684271812438965,0.9395555257797241
138,0.00018652145809028298,1.0,0.39220622181892395,0.9393333196640015
139,0.00020614959066733718,1.0,0.3937515318393707,0.9393333196640015
140,0.0001828378444770351,1.0,0.3955342173576355,0.9393333196640015
141,0.00015989967505447567,1.0,0.3973209261894226,0.9391111135482788
142,0.00013250528718344867,1.0,0.3985016644001007,0.9391111135482788
143,0.00010806895443238318,1.0,0.3990837335586548,0.9391111135482788
144,0.00015564053319394588,1.0,0.39841535687446594,0.9377777576446533
145,0.0001390563847962767,1.0,0.3986894488334656,0.9375555515289307
146,0.0001490117283537984,1.0,0.39945220947265625,0.9375555515289307
147,0.000131550885271281,1.0,0.3999476730823517,0.937333345413208
148,0.00020350802515167743,1.0,0.40152883529663086,0.937333345413208
149,0.00021114246919751167,1.0,0.40157729387283325,0.9377777576446533
150,0.00014381055370904505,1.0,0.40203434228897095,0.9377777576446533
151,0.00017704779747873545,1.0,0.4016196131706238,0.9368888735771179
152,0.0001007917380775325,1.0,0.40197181701660156,0.9368888735771179
153,0.0001491637813160196,1.0,0.40263232588768005,0.937333345413208
154,0.00013017516175750643,1.0,0.4029729962348938,0.9377777576446533
155,0.00012757244985550642,1.0,0.4042002558708191,0.9377777576446533
156,0.00017260351160075516,1.0,0.4068889021873474,0.9384444355964661
157,0.00012834907101932913,1.0,0.4081295430660248,0.9386666417121887
158,0.00014765834202989936,1.0,0.4084817171096802,0.9375555515289307
159,0.00010103439126396552,1.0,0.40831053256988525,0.9368888735771179
160,9.734687046147883e-05,1.0,0.4084688723087311,0.9368888735771179
161,0.00013625754218082875,1.0,0.40928295254707336,0.9368888735771179
162,0.0001572304026922211,1.0,0.41056644916534424,0.937333345413208
163,0.00010513453162275255,1.0,0.41001006960868835,0.9375555515289307
164,0.00010837121226359159,1.0,0.41024479269981384,0.9371111392974854
165,0.00011055278446292505,1.0,0.4101049602031708,0.9375555515289307
166,9.66241568676196e-05,1.0,0.4101380407810211,0.9380000233650208
167,8.208658982766792e-05,1.0,0.41096606850624084,0.9380000233650208
168,0.00010660672705853358,1.0,0.41136834025382996,0.9377777576446533
169,7.36651272745803e-05,1.0,0.4103429317474365,0.9375555515289307
170,9.793171193450689e-05,1.0,0.4105457663536072,0.9375555515289307
171,0.00010524374374654144,1.0,0.41132351756095886,0.937333345413208
172,9.717455395730212e-05,1.0,0.4117470383644104,0.937333345413208
173,0.00013351062079891562,1.0,0.4104765057563782,0.9366666674613953
174,8.194355177693069e-05,1.0,0.41027191281318665,0.9366666674613953
175,7.329787331400439e-05,1.0,0.4110738933086395,0.9368888735771179
176,0.0001160455503850244,1.0,0.4113326966762543,0.9368888735771179
177,8.060022082645446e-05,1.0,0.4120275676250458,0.9368888735771179
178,7.154229388106614e-05,1.0,0.4128304719924927,0.9368888735771179
179,7.907806138973683e-05,1.0,0.4135749936103821,0.9375555515289307
180,0.00011347699910402298,1.0,0.4135121703147888,0.9377777576446533
181,0.0001501783699495718,1.0,0.41280531883239746,0.9375555515289307
182,0.00015376796363852918,1.0,0.41071003675460815,0.9359999895095825
183,0.00011674325651256368,1.0,0.4103338122367859,0.9366666674613953
184,0.00011190398072358221,1.0,0.41052404046058655,0.9359999895095825
185,0.00010644590656738728,1.0,0.41045039892196655,0.9357777833938599
186,0.00010588792792987078,1.0,0.4107820391654968,0.9359999895095825
187,7.203009590739384e-05,1.0,0.41141825914382935,0.9364444613456726
188,0.00012913529644720256,1.0,0.4129450023174286,0.9375555515289307
189,6.332045450108126e-05,1.0,0.41377881169319153,0.9377777576446533
190,9.425100142834708e-05,1.0,0.41405707597732544,0.9377777576446533
191,8.219288429245353e-05,1.0,0.4142272472381592,0.9377777576446533
192,6.212925654835999e-05,1.0,0.4142170548439026,0.9380000233650208
193,6.354609649861231e-05,1.0,0.414637953042984,0.9380000233650208
194,7.632761844433844e-05,1.0,0.4149972200393677,0.9380000233650208
195,6.0376536566764116e-05,1.0,0.41532838344573975,0.9380000233650208
196,0.00010730360372690484,1.0,0.41530850529670715,0.9380000233650208
197,8.843217801768333e-05,1.0,0.4153721332550049,0.9380000233650208
198,9.875883552012965e-05,1.0,0.4157640337944031,0.9384444355964661
199,0.00015459579299204051,1.0,0.4162346422672272,0.9386666417121887
200,0.00011214735422981903,1.0,0.4157004952430725,0.9386666417121887
201,9.276869968743995e-05,1.0,0.41597697138786316,0.9386666417121887
202,8.493485802318901e-05,1.0,0.41642701625823975,0.9386666417121887
203,8.325739327119663e-05,1.0,0.4166397154331207,0.9386666417121887
204,0.00011912772606592625,1.0,0.4160107672214508,0.9386666417121887
205,6.565223156940192e-05,1.0,0.4161030352115631,0.9382222294807434
206,5.8830763009609655e-05,1.0,0.4166400730609894,0.9386666417121887
207,9.515068086329848e-05,1.0,0.41691699624061584,0.9386666417121887
208,6.205758108990267e-05,1.0,0.41690945625305176,0.9386666417121887
209,8.747282845433801e-05,1.0,0.4166869819164276,0.9384444355964661
210,7.7812495874241e-05,1.0,0.41696321964263916,0.9384444355964661
211,8.214863919420168e-05,1.0,0.4174598455429077,0.9384444355964661
212,0.00010004422074416652,1.0,0.41718024015426636,0.9382222294807434
213,8.085894660325721e-05,1.0,0.41742268204689026,0.9382222294807434
214,0.00012139008322264999,1.0,0.41891932487487793,0.9388889074325562
215,9.651274740463123e-05,1.0,0.42254284024238586,0.9388889074325562
216,8.537466055713594e-05,1.0,0.4230016767978668,0.9391111135482788
217,7.793244731146842e-05,1.0,0.4229314923286438,0.9391111135482788
218,7.252999785123393e-05,1.0,0.4225766062736511,0.9388889074325562
219,5.858569056726992e-05,1.0,0.422226220369339,0.9388889074325562
220,0.00015366179286502302,1.0,0.4205971658229828,0.9388889074325562
221,6.974342977628112e-05,1.0,0.41977113485336304,0.9388889074325562
222,8.317887841258198e-05,1.0,0.41979819536209106,0.9388889074325562
223,6.555076106451452e-05,1.0,0.41981714963912964,0.9388889074325562
224,0.000104299615486525,1.0,0.4195195436477661,0.9388889074325562
225,5.860679812030867e-05,1.0,0.41949138045310974,0.9388889074325562
226,0.00014876420027576387,1.0,0.4191274046897888,0.9388889074325562
227,6.21214130660519e-05,1.0,0.41847512125968933,0.9388889074325562
228,5.942592179053463e-05,1.0,0.4182448983192444,0.9391111135482788
229,0.0001080717338481918,1.0,0.4176219403743744,0.9386666417121887
230,0.00010611382458591834,1.0,0.416273295879364,0.937333345413208
231,0.00010443651262903586,1.0,0.41600966453552246,0.9371111392974854
232,7.601820107083768e-05,1.0,0.41638290882110596,0.9368888735771179
233,9.578805475030094e-05,1.0,0.4176346957683563,0.9371111392974854
234,0.00015137394075281918,1.0,0.41817423701286316,0.937333345413208
235,6.891541124787182e-05,1.0,0.41871100664138794,0.9380000233650208
236,8.241975592682138e-05,1.0,0.4190971553325653,0.9384444355964661
237,0.00012610742123797536,1.0,0.41955941915512085,0.9391111135482788
238,5.720649642171338e-05,1.0,0.4199223816394806,0.9391111135482788
239,7.18643786967732e-05,1.0,0.4201471209526062,0.9391111135482788
240,6.002085137879476e-05,1.0,0.42029207944869995,0.9391111135482788
241,7.94548395788297e-05,1.0,0.4204695522785187,0.9391111135482788
242,6.663591193500906e-05,1.0,0.42028674483299255,0.9391111135482788
243,0.00011701904440997168,1.0,0.420552134513855,0.9391111135482788
244,6.530927930725738e-05,1.0,0.42079034447669983,0.9391111135482788
245,5.9624748246278614e-05,1.0,0.42103204131126404,0.9388889074325562
246,9.680648508947343e-05,1.0,0.4208407700061798,0.9388889074325562
247,9.361215052194893e-05,1.0,0.4209107458591461,0.9388889074325562
248,0.00014494925562758,1.0,0.42132341861724854,0.9388889074325562
249,8.915497164707631e-05,1.0,0.42091286182403564,0.9388889074325562
250,7.690089842071757e-05,1.0,0.42095038294792175,0.9388889074325562
251,4.909111521556042e-05,1.0,0.42104843258857727,0.9388889074325562
252,0.00012089832307538018,1.0,0.4206184446811676,0.9388889074325562
253,0.00010928067786153406,1.0,0.4206901788711548,0.9388889074325562
254,9.657146438257769e-05,1.0,0.42119860649108887,0.9386666417121887
255,8.475514914607629e-05,1.0,0.4216790497303009,0.9386666417121887
256,7.267708861036226e-05,1.0,0.4219612777233124,0.9386666417121887
257,8.231067477026954e-05,1.0,0.4221320152282715,0.9386666417121887
258,9.919093281496316e-05,1.0,0.42198053002357483,0.9386666417121887
259,0.00013747134653385729,1.0,0.42167696356773376,0.9388889074325562
260,6.837559340056032e-05,1.0,0.42167842388153076,0.9388889074325562
261,0.00010052140714833513,1.0,0.4220176637172699,0.9388889074325562
262,5.3309788199840114e-05,1.0,0.4221334159374237,0.9388889074325562
263,5.240481186774559e-05,1.0,0.42243990302085876,0.9388889074325562
264,7.471714343409985e-05,1.0,0.42286667227745056,0.9388889074325562
265,0.00013998527720104903,1.0,0.42242053151130676,0.9380000233650208
266,0.0001081977752619423,1.0,0.4224151372909546,0.9375555515289307
267,0.00011128431651741266,1.0,0.42284220457077026,0.9377777576446533
268,0.00010663380089681596,1.0,0.4230039119720459,0.9377777576446533
269,0.0001416231389157474,1.0,0.42285606265068054,0.9380000233650208
270,0.00015652102592866868,1.0,0.4225024878978729,0.9386666417121887
271,9.322640107711777e-05,1.0,0.4225923717021942,0.9384444355964661
272,7.68425379646942e-05,1.0,0.4227999746799469,0.9384444355964661
273,9.699980728328228e-05,1.0,0.4230959415435791,0.9384444355964661
274,9.130781836574897e-05,1.0,0.42296352982521057,0.9384444355964661
275,9.417309775017202e-05,1.0,0.42340683937072754,0.9384444355964661
276,9.077558206627145e-05,1.0,0.4240455627441406,0.9382222294807434
277,5.692398553946987e-05,1.0,0.424093097448349,0.9382222294807434
278,0.00016358833818230778,1.0,0.4238083064556122,0.9384444355964661
279,0.00011891566100530326,1.0,0.4230044186115265,0.9386666417121887
280,6.88704167259857e-05,1.0,0.4231363832950592,0.9384444355964661
281,0.00010633799684001133,1.0,0.42341500520706177,0.9384444355964661
282,5.817583223688416e-05,1.0,0.42337656021118164,0.9384444355964661
283,7.513764285249636e-05,1.0,0.4236287772655487,0.9384444355964661
284,9.42759943427518e-05,1.0,0.42373648285865784,0.9384444355964661
285,6.94631235091947e-05,1.0,0.42345523834228516,0.9384444355964661
286,8.162029553204775e-05,1.0,0.4236791133880615,0.9384444355964661
287,0.00011036237265216187,1.0,0.4237339198589325,0.9388889074325562
288,0.0001175019278889522,1.0,0.4220757782459259,0.9386666417121887
289,5.6534398026997223e-05,1.0,0.4218832552433014,0.9386666417121887
290,5.375150794861838e-05,1.0,0.42198634147644043,0.9384444355964661
291,8.610624354332685e-05,1.0,0.42225882411003113,0.9384444355964661
292,8.568675548303872e-05,1.0,0.42270544171333313,0.9384444355964661
293,7.710867066634819e-05,1.0,0.42311376333236694,0.9388889074325562
294,0.0001772938994690776,1.0,0.421935111284256,0.9386666417121887
295,5.6852826674003154e-05,1.0,0.4204673767089844,0.9377777576446533
296,5.973738370812498e-05,1.0,0.4204322099685669,0.9375555515289307
297,8.367995178559795e-05,1.0,0.42088690400123596,0.937333345413208
298,8.032566256588325e-05,1.0,0.42142391204833984,0.937333345413208
299,5.875890201423317e-05,1.0,0.4220193326473236,0.9377777576446533
300,6.593232683371753e-05,1.0,0.42231133580207825,0.9377777576446533
301,8.081916166702285e-05,1.0,0.4225921928882599,0.9382222294807434
302,5.331099600880407e-05,1.0,0.42291343212127686,0.9384444355964661
303,6.24481908744201e-05,1.0,0.4231747090816498,0.9386666417121887
304,8.462563710054383e-05,1.0,0.4235519468784332,0.9388889074325562
305,7.727836054982617e-05,1.0,0.4240277409553528,0.9386666417121887
306,6.763069541193545e-05,1.0,0.4243431091308594,0.9386666417121887
307,9.96208400465548e-05,1.0,0.42415690422058105,0.9388889074325562
308,0.00017652638780418783,1.0,0.4234641194343567,0.9386666417121887
309,5.931908526690677e-05,1.0,0.4225093126296997,0.9368888735771179
310,6.476674025179818e-05,1.0,0.4226917028427124,0.9371111392974854
311,6.024263348081149e-05,1.0,0.4231584072113037,0.937333345413208
312,7.741466106381267e-05,1.0,0.42365726828575134,0.937333345413208
313,0.00010970163566526026,1.0,0.4241699278354645,0.9377777576446533
314,5.727795360144228e-05,1.0,0.4247649908065796,0.9388889074325562
315,5.2689490985358134e-05,1.0,0.42526161670684814,0.9388889074325562
316,7.329800428124145e-05,1.0,0.42541927099227905,0.9386666417121887
317,6.798430695198476e-05,1.0,0.4253001809120178,0.9388889074325562
318,5.9493362641660497e-05,1.0,0.4254157245159149,0.9388889074325562
319,4.943785097566433e-05,1.0,0.4253472089767456,0.9388889074325562
320,4.2670362745411694e-05,1.0,0.4253431260585785,0.9386666417121887
321,0.0003021789889317006,1.0,0.42337584495544434,0.937333345413208
322,5.349329876480624e-05,1.0,0.4217771291732788,0.9357777833938599
323,5.184638939681463e-05,1.0,0.42185479402542114,0.9357777833938599
324,6.606021634070203e-05,1.0,0.4223116338253021,0.9357777833938599
325,4.062449806951918e-05,1.0,0.4228237271308899,0.9359999895095825
326,8.252348197856918e-05,1.0,0.42376914620399475,0.9364444613456726
327,7.101447408786044e-05,1.0,0.4248635768890381,0.937333345413208
328,6.627793482039124e-05,1.0,0.42576396465301514,0.9375555515289307
329,4.626418012776412e-05,1.0,0.4264582693576813,0.9380000233650208
330,5.5938518926268443e-05,1.0,0.42701002955436707,0.9384444355964661
331,0.00024406956799793988,1.0,0.42821040749549866,0.9384444355964661
332,5.136369509273209e-05,1.0,0.42838799953460693,0.9386666417121887
333,9.256171324523166e-05,1.0,0.428676962852478,0.9388889074325562
334,7.310177170438692e-05,1.0,0.4289328455924988,0.9388889074325562
335,5.607724961009808e-05,1.0,0.42880338430404663,0.9388889074325562
336,6.538532761624083e-05,1.0,0.42899367213249207,0.9386666417121887
337,8.272135892184451e-05,1.0,0.42949530482292175,0.9386666417121887
338,4.641156192519702e-05,1.0,0.42956021428108215,0.9386666417121887
339,5.538832920137793e-05,1.0,0.42946526408195496,0.9386666417121887
340,8.028648881008849e-05,1.0,0.42934179306030273,0.9386666417121887
341,0.00012197034084238112,1.0,0.42867210507392883,0.9384444355964661
342,0.00012225531099829823,1.0,0.4275103211402893,0.9386666417121887
343,6.276171916397288e-05,1.0,0.42680823802948,0.9388889074325562
344,4.709610584541224e-05,1.0,0.42681774497032166,0.9388889074325562
345,6.878314889036119e-05,1.0,0.4269492030143738,0.9388889074325562
346,0.00010482572542969137,1.0,0.42672622203826904,0.9386666417121887
347,5.221407627686858e-05,1.0,0.4261528551578522,0.9386666417121887
348,6.235266482690349e-05,1.0,0.4262572228908539,0.9386666417121887
349,5.9533544117584825e-05,1.0,0.4263424277305603,0.9386666417121887
350,7.208704482764006e-05,1.0,0.4259188771247864,0.9388889074325562
351,3.7445999623741955e-05,1.0,0.42568105459213257,0.9388889074325562
352,6.708744331263006e-05,1.0,0.42492085695266724,0.9384444355964661
353,7.576943608000875e-05,1.0,0.4245387315750122,0.9377777576446533
354,4.275721948943101e-05,1.0,0.424835741519928,0.9375555515289307
355,7.190133328549564e-05,1.0,0.425435334444046,0.9375555515289307
356,4.8116358811967075e-05,1.0,0.4265114367008209,0.9375555515289307
357,0.00014840863877907395,1.0,0.42685601115226746,0.937333345413208
358,5.293742651701905e-05,1.0,0.4254421293735504,0.9359999895095825
359,7.895798626122996e-05,1.0,0.4255598783493042,0.9359999895095825
360,8.011479076230898e-05,1.0,0.4262275695800781,0.9362221956253052
361,6.823247531428933e-05,1.0,0.42684921622276306,0.9362221956253052
362,6.943959306227043e-05,1.0,0.4277324974536896,0.9371111392974854
363,4.3719504901673645e-05,1.0,0.42828717827796936,0.9375555515289307
364,0.0001047901896527037,1.0,0.4282113015651703,0.9382222294807434
365,4.3148491386091337e-05,1.0,0.42814871668815613,0.9382222294807434
366,7.34415152692236e-05,1.0,0.4285760521888733,0.9382222294807434
367,9.032641537487507e-05,1.0,0.42907464504241943,0.9384444355964661
368,5.0529270083643496e-05,1.0,0.4295461177825928,0.9386666417121887
369,6.036070772097446e-05,1.0,0.4297706186771393,0.9386666417121887
370,8.617179264547303e-05,1.0,0.42968395352363586,0.9384444355964661
371,4.155528586125001e-05,1.0,0.429726779460907,0.9388889074325562
372,5.5096887081163004e-05,1.0,0.4298448860645294,0.9391111135482788
373,5.000382225262001e-05,1.0,0.43001648783683777,0.9388889074325562
374,4.183976852800697e-05,1.0,0.4299798309803009,0.9388889074325562
375,7.269905472639948e-05,1.0,0.43017151951789856,0.9386666417121887
376,9.814810618991032e-05,1.0,0.4299870729446411,0.9386666417121887
377,5.190380397834815e-05,1.0,0.43012791872024536,0.9384444355964661
378,5.096302629681304e-05,1.0,0.43027326464653015,0.9384444355964661
379,7.069623825373128e-05,1.0,0.4304018020629883,0.9384444355964661
380,7.341061427723616e-05,1.0,0.43037524819374084,0.9388889074325562
381,6.504228076664731e-05,1.0,0.4305132329463959,0.9388889074325562
382,4.274557431926951e-05,1.0,0.43076780438423157,0.9388889074325562
383,5.529967893380672e-05,1.0,0.430946946144104,0.9388889074325562
384,0.00021492561791092157,1.0,0.43105548620224,0.9388889074325562
385,4.948965215589851e-05,1.0,0.431250661611557,0.9382222294807434
386,6.864888564450666e-05,1.0,0.43153709173202515,0.9382222294807434
387,4.559912486001849e-05,1.0,0.43185871839523315,0.9384444355964661
388,6.172802386572585e-05,1.0,0.4323076903820038,0.9384444355964661
389,4.704769526142627e-05,1.0,0.43270134925842285,0.9386666417121887
390,7.769180956529453e-05,1.0,0.4328394830226898,0.9382222294807434
391,4.4126474676886573e-05,1.0,0.4327261745929718,0.9380000233650208
392,5.222587788011879e-05,1.0,0.43244680762290955,0.9380000233650208
393,5.2620100177591667e-05,1.0,0.43258485198020935,0.9384444355964661
394,4.790475941263139e-05,1.0,0.43257957696914673,0.9382222294807434
395,6.972750998102129e-05,1.0,0.43278729915618896,0.9384444355964661
396,4.9282924010185525e-05,1.0,0.4326843023300171,0.9384444355964661
397,7.848635141272098e-05,1.0,0.4327636957168579,0.9384444355964661
398,5.928674727329053e-05,1.0,0.4330340325832367,0.9388889074325562
399,5.7440985983703285e-05,1.0,0.4325653910636902,0.9386666417121887
400,0.00030166757642291486,1.0,0.4264027178287506,0.93022221326828
401,6.858261622255668e-05,1.0,0.4271494746208191,0.9288889169692993
402,7.412518607452512e-05,1.0,0.4251634180545807,0.9306666851043701
403,9.476311970502138e-05,1.0,0.4235747754573822,0.9337777495384216
404,7.199760875664651e-05,1.0,0.4241311252117157,0.9362221956253052
405,0.00012467123451642692,1.0,0.4253285825252533,0.9362221956253052
406,8.785969112068415e-05,1.0,0.4271675646305084,0.9364444613456726
407,6.857410335214809e-05,1.0,0.42844530940055847,0.9366666674613953
408,5.233056072029285e-05,1.0,0.4290940463542938,0.9371111392974854
409,4.1247250919695944e-05,1.0,0.42967334389686584,0.9375555515289307
410,0.00010654879588400945,1.0,0.43070313334465027,0.9377777576446533
411,5.5817243264755234e-05,1.0,0.431976854801178,0.9391111135482788
412,5.956554741715081e-05,1.0,0.4326114058494568,0.9391111135482788
413,4.5039854740025476e-05,1.0,0.43309295177459717,0.9391111135482788
414,8.96752899279818e-05,1.0,0.4330768883228302,0.9391111135482788
415,4.8801983211888e-05,1.0,0.43344932794570923,0.9393333196640015
416,5.813134339405224e-05,1.0,0.43353620171546936,0.9391111135482788
417,5.061255433247425e-05,1.0,0.4337247908115387,0.9391111135482788
418,6.695741467410699e-05,1.0,0.4337170720100403,0.9391111135482788
419,5.1695285947062075e-05,1.0,0.4337424337863922,0.9391111135482788
420,0.0005810479633510113,1.0,0.42884182929992676,0.9344444274902344
421,0.00012448699271772057,1.0,0.42885610461235046,0.9333333373069763
422,0.00014229887165129185,1.0,0.42926549911499023,0.9357777833938599
423,7.168143201852217e-05,1.0,0.4311038553714752,0.9377777576446533
424,8.133965457091108e-05,1.0,0.4349846839904785,0.9384444355964661
425,7.587553409393877e-05,1.0,0.437343031167984,0.9386666417121887
426,6.132825365057215e-05,1.0,0.4374408721923828,0.9384444355964661
427,4.442327190190554e-05,1.0,0.4369781017303467,0.9384444355964661
428,6.695334741380066e-05,1.0,0.43636685609817505,0.9384444355964661
429,3.9720249333186075e-05,1.0,0.43610769510269165,0.9382222294807434
430,7.080009527271613e-05,1.0,0.43604904413223267,0.9382222294807434
431,5.6994478654814884e-05,1.0,0.4355148375034332,0.9382222294807434
432,4.9170932470588014e-05,1.0,0.4352782070636749,0.9382222294807434
433,5.303518264554441e-05,1.0,0.43455418944358826,0.9382222294807434
434,4.669290501624346e-05,1.0,0.4339894652366638,0.9382222294807434
435,0.00020080365356989205,1.0,0.43327566981315613,0.9384444355964661
436,4.7389021347044036e-05,1.0,0.43123412132263184,0.9384444355964661
437,4.556626299745403e-05,1.0,0.4309813976287842,0.9386666417121887
438,5.200294253882021e-05,1.0,0.43104687333106995,0.9386666417121887
439,0.00011609797365963459,1.0,0.43319642543792725,0.9382222294807434
440,3.716989522217773e-05,1.0,0.4344291388988495,0.9380000233650208
441,7.39777460694313e-05,1.0,0.43519261479377747,0.9382222294807434
442,4.742631790577434e-05,1.0,0.43515413999557495,0.9382222294807434
443,4.187469676253386e-05,1.0,0.4353502094745636,0.9382222294807434
444,5.654140477417968e-05,1.0,0.4354470670223236,0.9382222294807434
445,6.443075835704803e-05,1.0,0.4341256022453308,0.9375555515289307
446,4.850194090977311e-05,1.0,0.43390029668807983,0.9368888735771179
447,5.339769268175587e-05,1.0,0.43345847725868225,0.9366666674613953
448,5.225207132752985e-05,1.0,0.43321797251701355,0.9366666674613953
449,6.013756137690507e-05,1.0,0.4329533874988556,0.9366666674613953
450,4.4940759835299104e-05,1.0,0.4327628016471863,0.9366666674613953
451,5.2317220252007246e-05,1.0,0.43277502059936523,0.9366666674613953
452,3.9671140257269144e-05,1.0,0.4325278103351593,0.9371111392974854
453,3.832285074167885e-05,1.0,0.4326896667480469,0.9371111392974854
454,5.41592416993808e-05,1.0,0.4339864253997803,0.9380000233650208
455,5.513016731129028e-05,1.0,0.4345523416996002,0.9384444355964661
456,5.930910992901772e-05,1.0,0.4344691336154938,0.9384444355964661
457,3.801551429205574e-05,1.0,0.4345450699329376,0.9384444355964661
458,5.522686115000397e-05,1.0,0.43488427996635437,0.9382222294807434
459,3.249830842833035e-05,1.0,0.43483027815818787,0.9384444355964661
460,5.0270311476197094e-05,1.0,0.4345566928386688,0.9384444355964661
461,4.478492701309733e-05,1.0,0.4342776834964752,0.9382222294807434
462,7.773261313559487e-05,1.0,0.4346424639225006,0.9380000233650208
463,4.481799260247499e-05,1.0,0.43480756878852844,0.9380000233650208
464,6.906647467985749e-05,1.0,0.4351785182952881,0.9380000233650208
465,5.908441380597651e-05,1.0,0.43559131026268005,0.9382222294807434
466,6.779025716241449e-05,1.0,0.43555817008018494,0.9382222294807434
467,5.045215948484838e-05,1.0,0.43525636196136475,0.9380000233650208
468,5.15793108206708e-05,1.0,0.43515652418136597,0.9384444355964661
469,6.0310041590128094e-05,1.0,0.43528783321380615,0.9382222294807434
470,2.838703221641481e-05,1.0,0.4353811740875244,0.9382222294807434
471,4.495733810472302e-05,1.0,0.4358516037464142,0.9382222294807434
472,6.846923497505486e-05,1.0,0.4358002841472626,0.9382222294807434
473,2.387601307418663e-05,1.0,0.43527960777282715,0.9382222294807434
474,6.37086050119251e-05,1.0,0.43517225980758667,0.9382222294807434
475,3.044641562155448e-05,1.0,0.4351400136947632,0.9382222294807434
476,8.302903734147549e-05,1.0,0.43637585639953613,0.9388889074325562
477,8.016487117856741e-05,1.0,0.4363824725151062,0.9382222294807434
478,4.022868233732879e-05,1.0,0.4362490475177765,0.9377777576446533
479,5.4352462029783055e-05,1.0,0.43650180101394653,0.9380000233650208
480,5.3193252824712545e-05,1.0,0.43659287691116333,0.9377777576446533
481,2.9670598451048136e-05,1.0,0.4367620050907135,0.9384444355964661
482,4.222703501000069e-05,1.0,0.43708544969558716,0.9386666417121887
483,5.217977013671771e-05,1.0,0.43769535422325134,0.9391111135482788
484,4.0135910239769146e-05,1.0,0.43801048398017883,0.9391111135482788
485,3.390325582586229e-05,1.0,0.4383951425552368,0.9391111135482788
486,3.284201375208795e-05,1.0,0.4383851885795593,0.9391111135482788
487,3.2385290978709236e-05,1.0,0.438437819480896,0.9393333196640015
488,3.958742308896035e-05,1.0,0.43837621808052063,0.9395555257797241
489,2.775325810944196e-05,1.0,0.4385565221309662,0.9395555257797241
490,5.0051065045408905e-05,1.0,0.43876636028289795,0.9395555257797241
491,5.78641083848197e-05,1.0,0.43877464532852173,0.9395555257797241
492,4.277961852494627e-05,1.0,0.43804675340652466,0.9388889074325562
493,3.438789281062782e-05,1.0,0.43776655197143555,0.9388889074325562
494,5.4405336413765326e-05,1.0,0.4380376636981964,0.9388889074325562
495,3.8004764064680785e-05,1.0,0.438300758600235,0.9388889074325562
496,3.0401302865357138e-05,1.0,0.438249796628952,0.9388889074325562
497,0.000125021135318093,1.0,0.43679237365722656,0.9359999895095825
498,4.292140874895267e-05,1.0,0.4376670718193054,0.9351111054420471
499,6.0780505009461194e-05,1.0,0.43858659267425537,0.9357777833938599
500,4.925412213196978e-05,1.0,0.43915867805480957,0.9362221956253052
501,3.197099067620002e-05,1.0,0.4395733177661896,0.9366666674613953
502,2.9601036658277735e-05,1.0,0.43990787863731384,0.937333345413208
503,4.746828199131414e-05,1.0,0.44000834226608276,0.9375555515289307
504,2.657305412867572e-05,1.0,0.4401610493659973,0.9377777576446533
505,5.606361082755029e-05,1.0,0.4406876564025879,0.9382222294807434
506,4.4691343646263704e-05,1.0,0.44126802682876587,0.9382222294807434
507,5.097898974781856e-05,1.0,0.44165682792663574,0.9384444355964661
508,4.338692451710813e-05,1.0,0.44142621755599976,0.9391111135482788
509,3.375368396518752e-05,1.0,0.44146937131881714,0.9388889074325562
510,2.934927397291176e-05,1.0,0.4413686692714691,0.9388889074325562
511,4.962098682881333e-05,1.0,0.44108566641807556,0.9391111135482788
512,7.669666229048744e-05,1.0,0.4411521553993225,0.9393333196640015
513,8.932867058319971e-05,1.0,0.4409657120704651,0.9393333196640015
514,6.982900958973914e-05,1.0,0.4422945976257324,0.9391111135482788
515,5.4915115470066667e-05,1.0,0.4435831308364868,0.9397777915000916
516,4.870858901995234e-05,1.0,0.44304266571998596,0.9391111135482788
517,0.00011325383820803836,1.0,0.4406624734401703,0.9386666417121887
518,3.183215085300617e-05,1.0,0.4352518320083618,0.9371111392974854
519,3.8646576285827905e-05,1.0,0.4344233274459839,0.9366666674613953
520,2.658953599166125e-05,1.0,0.43527060747146606,0.937333345413208
521,6.236225453903899e-05,1.0,0.43734031915664673,0.937333345413208
522,2.643016523506958e-05,1.0,0.4398379325866699,0.9393333196640015
523,2.9661108783329837e-05,1.0,0.4409712553024292,0.9393333196640015
524,3.8008427509339526e-05,1.0,0.44156020879745483,0.9393333196640015
525,4.266960604581982e-05,1.0,0.4422343075275421,0.9391111135482788
526,3.7252586480462924e-05,1.0,0.4427954852581024,0.9391111135482788
527,3.445158290560357e-05,1.0,0.44294142723083496,0.9391111135482788
528,4.1779545426834375e-05,1.0,0.4428371787071228,0.9391111135482788
529,3.959174136980437e-05,1.0,0.44265252351760864,0.9391111135482788
530,4.454566442291252e-05,1.0,0.4422589838504791,0.9391111135482788
531,2.9000801077927463e-05,1.0,0.44242623448371887,0.9391111135482788
532,2.7710990252671763e-05,1.0,0.44275158643722534,0.9391111135482788
533,2.9248263672343455e-05,1.0,0.44306790828704834,0.9391111135482788
534,0.00012385610898490995,1.0,0.43531256914138794,0.937333345413208
535,5.031530963606201e-05,1.0,0.4317648112773895,0.9366666674613953
536,3.720732274814509e-05,1.0,0.43208611011505127,0.9364444613456726
537,3.590006599551998e-05,1.0,0.4338519871234894,0.937333345413208
538,5.686399163096212e-05,1.0,0.43570420145988464,0.9375555515289307
539,2.6613719455781393e-05,1.0,0.43637511134147644,0.9375555515289307
540,4.806134893442504e-05,1.0,0.437317430973053,0.9380000233650208
541,3.997180101578124e-05,1.0,0.4382471442222595,0.9377777576446533
542,4.469382838578895e-05,1.0,0.43929368257522583,0.9377777576446533
543,6.849389319540933e-05,1.0,0.4413163661956787,0.9377777576446533
544,4.36742884630803e-05,1.0,0.44252631068229675,0.9380000233650208
545,3.73533257516101e-05,1.0,0.44326692819595337,0.9382222294807434
546,3.6083078157389536e-05,1.0,0.4439978301525116,0.9384444355964661
547,5.794942262582481e-05,1.0,0.44440141320228577,0.9382222294807434
548,3.243019455112517e-05,1.0,0.4445648193359375,0.9377777576446533
549,5.752734432462603e-05,1.0,0.444476455450058,0.937333345413208
550,2.5769328203750774e-05,1.0,0.443729430437088,0.937333345413208
551,5.591241279034875e-05,1.0,0.443882018327713,0.937333345413208
552,5.722877540392801e-05,1.0,0.44438862800598145,0.9380000233650208
553,6.169679545564577e-05,1.0,0.443439245223999,0.9377777576446533
554,4.687677210313268e-05,1.0,0.4433468282222748,0.9382222294807434
555,2.5032546545844525e-05,1.0,0.4439442753791809,0.9380000233650208
556,2.4423710783594288e-05,1.0,0.44438761472702026,0.9380000233650208
557,3.3222258934983984e-05,1.0,0.4446104168891907,0.9382222294807434
558,2.5566570911905728e-05,1.0,0.444609671831131,0.9382222294807434
559,6.479737930931151e-05,1.0,0.445106565952301,0.9380000233650208
560,3.7018042348790914e-05,1.0,0.4455331563949585,0.9380000233650208
561,2.9977134545333683e-05,1.0,0.44631990790367126,0.9380000233650208
562,3.574088987079449e-05,1.0,0.44738179445266724,0.9382222294807434
563,4.717326373793185e-05,1.0,0.44580748677253723,0.937333345413208
564,3.216488767066039e-05,1.0,0.4454931616783142,0.9371111392974854
565,4.279396671336144e-05,1.0,0.4455259144306183,0.9368888735771179
566,2.361657243454829e-05,1.0,0.4456773102283478,0.9375555515289307
567,3.440543150645681e-05,1.0,0.4462774693965912,0.9375555515289307
568,3.391525024198927e-05,1.0,0.44717997312545776,0.9382222294807434
569,5.418784712674096e-05,1.0,0.446734219789505,0.9382222294807434
570,2.7168482120032422e-05,1.0,0.44639748334884644,0.9386666417121887
571,3.093810664722696e-05,1.0,0.44617560505867004,0.9386666417121887
572,5.1782011723844334e-05,1.0,0.44507288932800293,0.9386666417121887
573,3.8166192098287866e-05,1.0,0.4426787197589874,0.9382222294807434
574,5.32318081241101e-05,1.0,0.44262710213661194,0.9377777576446533
575,3.540851321304217e-05,1.0,0.4412858188152313,0.9357777833938599
576,3.3824064303189516e-05,1.0,0.44110122323036194,0.9348888993263245
577,2.7881569621968083e-05,1.0,0.44174277782440186,0.9353333115577698
578,4.135266863158904e-05,1.0,0.4428609609603882,0.937333345413208
579,4.507171252043918e-05,1.0,0.44327279925346375,0.937333345413208
580,2.9318805900402367e-05,1.0,0.4436359405517578,0.9375555515289307
581,3.158594699925743e-05,1.0,0.44413432478904724,0.9377777576446533
582,2.9634093152708374e-05,1.0,0.4448072910308838,0.9380000233650208
583,2.7367124857846648e-05,1.0,0.4453158676624298,0.9382222294807434
584,1.9901974155800417e-05,1.0,0.44596216082572937,0.9382222294807434
585,4.892572178505361e-05,1.0,0.44639137387275696,0.9384444355964661
586,3.480366649455391e-05,1.0,0.4464881122112274,0.9377777576446533
587,2.20055335375946e-05,1.0,0.4470290541648865,0.9380000233650208
588,2.631981624290347e-05,1.0,0.44779297709465027,0.9380000233650208
589,2.7118278012494557e-05,1.0,0.44811633229255676,0.9377777576446533
590,2.7448775654193014e-05,1.0,0.4484471082687378,0.9377777576446533
591,3.645162360044196e-05,1.0,0.4482510983943939,0.9382222294807434
592,4.5211054384708405e-05,1.0,0.4482351839542389,0.9386666417121887
593,2.7596570362220518e-05,1.0,0.4485185444355011,0.9388889074325562
594,3.5837503673974425e-05,1.0,0.4482661485671997,0.9382222294807434
595,3.268880391260609e-05,1.0,0.44740030169487,0.9384444355964661
596,3.44482614309527e-05,1.0,0.44701632857322693,0.9386666417121887
597,4.061140862177126e-05,1.0,0.4468895494937897,0.9384444355964661
598,4.7004363295855e-05,1.0,0.44616684317588806,0.9371111392974854
599,2.4437627871520817e-05,1.0,0.4462163746356964,0.9364444613456726
600,3.100341564277187e-05,1.0,0.44687846302986145,0.937333345413208
601,3.683746763272211e-05,1.0,0.44716840982437134,0.937333345413208
602,3.797157114604488e-05,1.0,0.44824299216270447,0.9375555515289307
603,2.1279023712850176e-05,1.0,0.4492934048175812,0.9375555515289307
604,7.268169429153204e-05,1.0,0.4501095414161682,0.9382222294807434
605,3.6758327041752636e-05,1.0,0.45002248883247375,0.9391111135482788
606,3.709441079990938e-05,1.0,0.4502457082271576,0.9393333196640015
607,2.4503073291270994e-05,1.0,0.45112964510917664,0.9395555257797241
608,3.0587732908315957e-05,1.0,0.4521822929382324,0.9397777915000916
609,2.382737693551462e-05,1.0,0.4525986313819885,0.9397777915000916
610,2.805698022712022e-05,1.0,0.4537453353404999,0.9397777915000916
611,3.262428072048351e-05,1.0,0.4548272490501404,0.9397777915000916
612,2.5303170332335867e-05,1.0,0.45439469814300537,0.9399999976158142
613,2.988285996252671e-05,1.0,0.4520130753517151,0.9388889074325562
614,2.1989970264257863e-05,1.0,0.4516173005104065,0.9386666417121887
615,2.485979894117918e-05,1.0,0.4511848986148834,0.9384444355964661
616,1.800856443878729e-05,1.0,0.45132774114608765,0.9384444355964661
617,4.229305704939179e-05,1.0,0.44990721344947815,0.9382222294807434
618,4.786776116816327e-05,1.0,0.4484395980834961,0.937333345413208
619,2.3225102268042974e-05,1.0,0.4476607143878937,0.9380000233650208
620,3.782221756409854e-05,1.0,0.4480170011520386,0.9380000233650208
621,2.4673319785506465e-05,1.0,0.44855618476867676,0.9380000233650208
622,2.9825281671946868e-05,1.0,0.4488043487071991,0.9380000233650208
623,2.500865957699716e-05,1.0,0.44947847723960876,0.9377777576446533
624,1.8916613043984398e-05,1.0,0.44964754581451416,0.9375555515289307
625,2.5353168894071132e-05,1.0,0.44934549927711487,0.9377777576446533
626,3.563431164366193e-05,1.0,0.4496714770793915,0.9377777576446533
627,2.7825388315250166e-05,1.0,0.45012497901916504,0.9382222294807434
628,2.6736144718597643e-05,1.0,0.4513011872768402,0.9382222294807434
629,2.4611052140244283e-05,1.0,0.4515991508960724,0.9382222294807434
630,4.028346302220598e-05,1.0,0.4518510699272156,0.9380000233650208
631,3.2444946555187926e-05,1.0,0.453809529542923,0.9377777576446533
632,5.443613918032497e-05,1.0,0.4550815522670746,0.9377777576446533
633,2.5281182388425805e-05,1.0,0.455114483833313,0.9380000233650208
634,2.5223793272743933e-05,1.0,0.45503857731819153,0.9380000233650208
635,4.003099093097262e-05,1.0,0.4548032581806183,0.9382222294807434
636,2.291501732543111e-05,1.0,0.45474958419799805,0.9382222294807434
637,2.28092849283712e-05,1.0,0.45476728677749634,0.9382222294807434
638,3.4020846214843914e-05,1.0,0.4553481340408325,0.9375555515289307
639,4.106094274902716e-05,1.0,0.4559083580970764,0.9375555515289307
640,2.1494039174285717e-05,1.0,0.45586085319519043,0.9380000233650208
641,2.2702615751768462e-05,1.0,0.45474353432655334,0.9377777576446533
642,2.3790977138560265e-05,1.0,0.45471054315567017,0.9382222294807434
643,2.799100911943242e-05,1.0,0.4546230733394623,0.9384444355964661
644,3.856939292745665e-05,1.0,0.45447513461112976,0.9380000233650208
645,3.613837907323614e-05,1.0,0.45281878113746643,0.937333345413208
646,2.3973479983396828e-05,1.0,0.4529746472835541,0.937333345413208
647,7.940393697936088e-05,1.0,0.4531709551811218,0.9377777576446533
648,2.5409990485059097e-05,1.0,0.4531872868537903,0.9380000233650208
649,2.497712557669729e-05,1.0,0.45325303077697754,0.9382222294807434
650,2.6294996132492088e-05,1.0,0.4541422128677368,0.9384444355964661
651,6.711068999720737e-05,1.0,0.45428913831710815,0.9382222294807434
652,2.6226127374684438e-05,1.0,0.4533032476902008,0.9384444355964661
653,2.186329584219493e-05,1.0,0.45395392179489136,0.9382222294807434
654,2.7362333639757708e-05,1.0,0.454951673746109,0.9380000233650208
655,8.574401726946235e-05,1.0,0.4555968940258026,0.9362221956253052
656,3.115846629953012e-05,1.0,0.45693349838256836,0.9362221956253052
657,3.1570416467729956e-05,1.0,0.45969200134277344,0.9371111392974854
658,2.3151611458160914e-05,1.0,0.46061408519744873,0.9382222294807434
659,3.0431849154410884e-05,1.0,0.4605802297592163,0.9382222294807434
660,5.7985580497188494e-05,1.0,0.45642074942588806,0.9388889074325562
661,0.00015203947259578854,1.0,0.4579618573188782,0.9393333196640015
662,2.6050027372548357e-05,1.0,0.462071031332016,0.9395555257797241
663,7.665823068236932e-05,1.0,0.4575287103652954,0.9397777915000916
664,2.4320886950590648e-05,1.0,0.4543618857860565,0.9395555257797241
665,2.875031168514397e-05,1.0,0.45395758748054504,0.9395555257797241
666,2.507383396732621e-05,1.0,0.453931599855423,0.9391111135482788
667,1.9390154193388298e-05,1.0,0.4533109962940216,0.9386666417121887
668,1.677755790296942e-05,1.0,0.4533367156982422,0.9384444355964661
669,2.4648936232551932e-05,1.0,0.45421385765075684,0.9382222294807434
670,1.7920565369422548e-05,1.0,0.45507317781448364,0.9382222294807434
671,2.2557358533958904e-05,1.0,0.4565010964870453,0.9382222294807434
672,2.7207359380554408e-05,1.0,0.45782390236854553,0.9380000233650208
673,1.7683732949080877e-05,1.0,0.4584720730781555,0.9380000233650208
674,1.3849449715053197e-05,1.0,0.4586362838745117,0.9380000233650208
675,2.266541196149774e-05,1.0,0.458395779132843,0.9382222294807434
676,2.634212069096975e-05,1.0,0.45891526341438293,0.9380000233650208
677,2.0349465557956137e-05,1.0,0.4589470624923706,0.9380000233650208
678,2.585896618256811e-05,1.0,0.4586349427700043,0.9380000233650208
679,1.809928653528914e-05,1.0,0.45874425768852234,0.9382222294807434
680,3.875911352224648e-05,1.0,0.45927006006240845,0.9386666417121887
681,3.7608977436320856e-05,1.0,0.45968466997146606,0.9395555257797241
682,4.305252878111787e-05,1.0,0.4559152126312256,0.9395555257797241
683,2.6762867491925135e-05,1.0,0.45755013823509216,0.9391111135482788
684,1.5108455045265146e-05,1.0,0.45935556292533875,0.9393333196640015
685,2.557792868174147e-05,1.0,0.4605865776538849,0.9393333196640015
686,1.5885783795965835e-05,1.0,0.46197471022605896,0.9397777915000916
687,1.9202101611881517e-05,1.0,0.4621732831001282,0.9397777915000916
688,2.7087104172096588e-05,1.0,0.4624382555484772,0.9393333196640015
689,3.384019873919897e-05,1.0,0.4611663520336151,0.9388889074325562
690,4.7811976401135325e-05,1.0,0.4600810408592224,0.9393333196640015
691,2.514555490051862e-05,1.0,0.4601406753063202,0.9391111135482788
692,2.1980646124575287e-05,1.0,0.46066227555274963,0.9397777915000916
693,1.7692149413051084e-05,1.0,0.46263960003852844,0.9397777915000916
694,3.1867544748820364e-05,1.0,0.4594218134880066,0.9384444355964661
695,5.4008338338462636e-05,1.0,0.4564287066459656,0.9359999895095825
696,1.901671930681914e-05,1.0,0.46000102162361145,0.9375555515289307
697,1.9520077330525964e-05,1.0,0.4616568386554718,0.9380000233650208
698,3.0035447707632557e-05,1.0,0.46370941400527954,0.9384444355964661
699,1.2013428204227239e-05,1.0,0.4656149744987488,0.9386666417121887
700,2.398139076831285e-05,1.0,0.46591129899024963,0.9386666417121887
701,1.2179569239378907e-05,1.0,0.4653139114379883,0.9386666417121887
702,2.6528799935476854e-05,1.0,0.46349409222602844,0.9382222294807434
703,2.4443068468826823e-05,1.0,0.46220970153808594,0.9380000233650208
704,1.3998215763422195e-05,1.0,0.4609242081642151,0.9377777576446533
705,3.43526917276904e-05,1.0,0.46141743659973145,0.9380000233650208
706,1.6618672816548496e-05,1.0,0.46307748556137085,0.9386666417121887
707,1.824846913223155e-05,1.0,0.4632657468318939,0.9386666417121887
708,2.677636621228885e-05,1.0,0.46136224269866943,0.9386666417121887
709,2.7452562790131196e-05,1.0,0.4618394672870636,0.9386666417121887
710,2.1786720026284456e-05,1.0,0.4615674316883087,0.9386666417121887
711,2.3352544303634204e-05,1.0,0.46107617020606995,0.9386666417121887
712,3.210737122572027e-05,1.0,0.46090152859687805,0.9382222294807434
713,1.7770067643141374e-05,1.0,0.46205681562423706,0.9388889074325562
714,1.4019988157087937e-05,1.0,0.46197250485420227,0.9384444355964661
715,1.5420466297655366e-05,1.0,0.4611624479293823,0.9384444355964661
716,3.094996282015927e-05,1.0,0.4611106216907501,0.9384444355964661
717,2.7846594093716703e-05,1.0,0.4625687897205353,0.9382222294807434
718,1.3694669178221375e-05,1.0,0.4638978838920593,0.9386666417121887
719,1.54797344293911e-05,1.0,0.4645102620124817,0.9388889074325562
720,1.6379202861571684e-05,1.0,0.4646267890930176,0.9386666417121887
721,3.233887764508836e-05,1.0,0.46287646889686584,0.9375555515289307
722,1.4578215996152721e-05,1.0,0.46233826875686646,0.9368888735771179
723,2.035956822510343e-05,1.0,0.4624131917953491,0.9366666674613953
724,2.3983749997569248e-05,1.0,0.4622161388397217,0.9368888735771179
725,1.296824211749481e-05,1.0,0.4627910554409027,0.9371111392974854
726,2.2020098185748793e-05,1.0,0.4643794000148773,0.9371111392974854
727,1.239515495399246e-05,1.0,0.46675753593444824,0.9382222294807434
728,1.922751107485965e-05,1.0,0.4670093357563019,0.9382222294807434
729,1.5694864487159066e-05,1.0,0.46664226055145264,0.9384444355964661
730,2.3851274818298407e-05,1.0,0.4659767150878906,0.9380000233650208
731,2.56559196714079e-05,1.0,0.46532535552978516,0.9386666417121887
732,1.573856752656866e-05,1.0,0.46498817205429077,0.9386666417121887
733,2.3775724912411533e-05,1.0,0.4633500874042511,0.9384444355964661
734,2.3211388906929642e-05,1.0,0.46329498291015625,0.9375555515289307
735,1.397302548866719e-05,1.0,0.46422845125198364,0.9371111392974854
736,3.389637276995927e-05,1.0,0.46643927693367004,0.9377777576446533
737,3.65835840057116e-05,1.0,0.4677206575870514,0.9377777576446533
738,1.225550840899814e-05,1.0,0.4677456021308899,0.9371111392974854
739,3.618769551394507e-05,1.0,0.4660852253437042,0.9362221956253052
740,3.7430487282108516e-05,1.0,0.4559318721294403,0.9351111054420471
741,2.01443526748335e-05,1.0,0.45392102003097534,0.9348888993263245
742,1.6660533219692297e-05,1.0,0.45623767375946045,0.9355555772781372
743,3.6555320548359305e-05,1.0,0.4596886932849884,0.9368888735771179
744,9.181347195408307e-06,1.0,0.4621831178665161,0.9371111392974854
745,2.662601946212817e-05,1.0,0.46356603503227234,0.9364444613456726
746,1.7340455087833107e-05,1.0,0.46466779708862305,0.9362221956253052
747,9.377676178701222e-06,1.0,0.4650994539260864,0.9364444613456726
748,1.7784359442885034e-05,1.0,0.4678594768047333,0.9371111392974854
749,1.0859910617000423e-05,1.0,0.46978747844696045,0.9377777576446533
750,1.1168738637934439e-05,1.0,0.47034531831741333,0.9380000233650208
751,9.269324436900206e-06,1.0,0.47056451439857483,0.9380000233650208
752,1.4598675079469103e-05,1.0,0.4705751836299896,0.9382222294807434
753,1.9472514395602047e-05,1.0,0.4700468182563782,0.9384444355964661
754,1.8387610907666385e-05,1.0,0.4689980447292328,0.9380000233650208
755,9.385374141857028e-06,1.0,0.4680655300617218,0.9377777576446533
756,2.3577173124067485e-05,1.0,0.4676576554775238,0.9371111392974854
757,9.364190191263333e-06,1.0,0.4674232304096222,0.9371111392974854
758,1.6938163753366098e-05,1.0,0.4671349823474884,0.9368888735771179
759,1.3410294741333928e-05,1.0,0.46881791949272156,0.9375555515289307
760,1.3548901733884122e-05,1.0,0.4694507420063019,0.9382222294807434
761,2.3394111849484034e-05,1.0,0.4678400158882141,0.9382222294807434
762,1.4032765648153145e-05,1.0,0.46846288442611694,0.9384444355964661
763,1.7932854461832903e-05,1.0,0.46776872873306274,0.9384444355964661
764,9.467132258578204e-06,1.0,0.46738460659980774,0.9384444355964661
765,1.243080259882845e-05,1.0,0.4677697420120239,0.9382222294807434
766,3.157892933813855e-05,1.0,0.469212144613266,0.9386666417121887
767,1.2485216757340822e-05,1.0,0.46991103887557983,0.9386666417121887
768,1.2081447493983433e-05,1.0,0.4698342978954315,0.9386666417121887
769,1.7869546354631893e-05,1.0,0.4701419174671173,0.9386666417121887
770,1.4918759916326962e-05,1.0,0.4698195457458496,0.9386666417121887
771,7.952098712848965e-06,1.0,0.4700932502746582,0.9386666417121887
772,3.170624768245034e-05,1.0,0.4682105481624603,0.9382222294807434
773,2.3814560336177237e-05,1.0,0.46779823303222656,0.9382222294807434
774,1.6812480680528097e-05,1.0,0.46977636218070984,0.9380000233650208
775,1.4693199773319066e-05,1.0,0.4730365574359894,0.9388889074325562
776,1.2753035662171897e-05,1.0,0.47350001335144043,0.9388889074325562
777,1.3187151125748642e-05,1.0,0.47030794620513916,0.9380000233650208
778,1.400333258061437e-05,1.0,0.46976691484451294,0.9377777576446533
779,1.587598308105953e-05,1.0,0.47096961736679077,0.9384444355964661
780,1.2741155842377339e-05,1.0,0.4704498052597046,0.9380000233650208
781,3.389644552953541e-05,1.0,0.46968668699264526,0.9375555515289307
782,2.905640758399386e-05,1.0,0.46984580159187317,0.9366666674613953
783,2.124631828337442e-05,1.0,0.47038617730140686,0.9371111392974854
784,3.351177292643115e-05,1.0,0.4716027081012726,0.9382222294807434
785,1.0151051355933305e-05,1.0,0.47371989488601685,0.9388889074325562
786,1.544863698654808e-05,1.0,0.4745708405971527,0.9395555257797241
787,1.0907618161581922e-05,1.0,0.47500932216644287,0.9395555257797241
788,1.5155334949668031e-05,1.0,0.4748634397983551,0.9393333196640015
789,9.646377293393016e-06,1.0,0.47426140308380127,0.9391111135482788
790,1.3853220480086748e-05,1.0,0.4743421673774719,0.9391111135482788
791,3.0137958674458787e-05,1.0,0.47326937317848206,0.9386666417121887
792,2.3695349227637053e-05,1.0,0.4681152403354645,0.9362221956253052
793,1.5791076293680817e-05,1.0,0.4684649407863617,0.9348888993263245
794,1.53237851918675e-05,1.0,0.46998563408851624,0.9359999895095825
795,1.4782013749936596e-05,1.0,0.4705637991428375,0.9366666674613953
796,3.113053389824927e-05,1.0,0.47142860293388367,0.9375555515289307
797,1.5819694453966804e-05,1.0,0.47343283891677856,0.9384444355964661
798,1.226975928148022e-05,1.0,0.4747670292854309,0.9388889074325562
799,1.1680994248308707e-05,1.0,0.47577130794525146,0.9391111135482788
