,loss,recall,val_loss,val_recall
0,0.4801176190376282,0.7900000214576721,0.9229751825332642,0.6399999856948853
1,0.39446043968200684,0.8100000023841858,1.9629831314086914,0.6399999856948853
2,0.28935980796813965,0.8799999952316284,0.9386324286460876,0.6399999856948853
3,0.21463170647621155,0.9300000071525574,0.424066424369812,0.800000011920929
4,0.1284654140472412,0.9700000286102295,0.4990758001804352,0.7900000214576721
5,0.14495430886745453,0.9300000071525574,0.32906168699264526,0.8999999761581421
6,0.21427883207798004,0.9100000262260437,0.40451598167419434,0.8199999928474426
7,0.15216784179210663,0.9300000071525574,0.33724936842918396,0.8399999737739563
8,0.1366431713104248,0.9300000071525574,1.5345410108566284,0.36000001430511475
9,0.10517873615026474,0.9800000190734863,1.3528273105621338,0.36000001430511475
10,0.0341227650642395,0.9900000095367432,2.249420404434204,0.36000001430511475
11,0.07433313131332397,0.9800000190734863,4.525613307952881,0.36000001430511475
12,0.10930239409208298,0.9599999785423279,0.42563068866729736,0.8399999737739563
13,0.11038833856582642,0.9700000286102295,0.339176744222641,0.8700000047683716
14,0.06752709299325943,0.9599999785423279,2.0512375831604004,0.4000000059604645
15,0.06467530876398087,0.9800000190734863,5.062385559082031,0.36000001430511475
16,0.17422518134117126,0.9399999976158142,4.444941997528076,0.36000001430511475
17,0.11470875144004822,0.949999988079071,1.4059964418411255,0.4300000071525574
18,0.063382588326931,0.9700000286102295,0.45607051253318787,0.8700000047683716
19,0.09990620613098145,0.9599999785423279,0.45452865958213806,0.8600000143051147
20,0.06702779978513718,0.9900000095367432,0.4386226534843445,0.8600000143051147
21,0.0491458922624588,0.9800000190734863,0.5166191458702087,0.8700000047683716
22,0.043370336294174194,0.9800000190734863,1.330572247505188,0.5799999833106995
23,0.02073086053133011,0.9900000095367432,2.081721305847168,0.41999998688697815
24,0.018929829820990562,1.0,0.8492423892021179,0.7699999809265137
25,0.008240281604230404,1.0,0.723573625087738,0.8199999928474426
26,0.005869467277079821,1.0,0.7363210320472717,0.8199999928474426
27,0.20591925084590912,0.9300000071525574,0.6853931546211243,0.7599999904632568
28,0.08679912239313126,0.949999988079071,0.9853453636169434,0.7099999785423279
29,0.03747480362653732,1.0,0.5255642533302307,0.8299999833106995
30,0.03933791443705559,0.9900000095367432,0.4234146475791931,0.8399999737739563
31,0.02303415723145008,1.0,0.4564683139324188,0.8600000143051147
32,0.08123639971017838,0.949999988079071,0.31681880354881287,0.8999999761581421
33,0.05286918580532074,0.9800000190734863,0.30005601048469543,0.8999999761581421
34,0.048757437616586685,0.9800000190734863,0.5549225807189941,0.8399999737739563
35,0.03878368064761162,0.9900000095367432,0.367041677236557,0.8600000143051147
36,0.01654728874564171,1.0,0.3307115137577057,0.8999999761581421
37,0.04558011144399643,0.9800000190734863,0.3854732811450958,0.8700000047683716
38,0.049397945404052734,0.9800000190734863,0.30567848682403564,0.9200000166893005
39,0.08307565003633499,0.9599999785423279,0.6022626161575317,0.8600000143051147
40,0.029580559581518173,0.9900000095367432,2.058892011642456,0.6700000166893005
41,0.04192868620157242,0.9900000095367432,1.6053314208984375,0.75
42,0.01658266969025135,0.9900000095367432,0.3953971564769745,0.8899999856948853
43,0.014217508025467396,1.0,0.3340449929237366,0.8700000047683716
44,0.01224913913756609,1.0,0.3681880235671997,0.8799999952316284
45,0.004947187844663858,1.0,0.3147113025188446,0.9100000262260437
46,0.036602869629859924,0.9800000190734863,0.47136250138282776,0.8199999928474426
47,0.03203844651579857,1.0,0.46452245116233826,0.8500000238418579
48,0.009699207730591297,1.0,0.5458135008811951,0.8700000047683716
49,0.02579183503985405,0.9900000095367432,0.7126167416572571,0.8399999737739563
50,0.028914961963891983,0.9900000095367432,0.6476500034332275,0.8600000143051147
51,0.038915399461984634,0.9800000190734863,0.4491972029209137,0.8799999952316284
52,0.011788398027420044,1.0,0.48910632729530334,0.8700000047683716
53,0.038362909108400345,0.9900000095367432,0.5618091225624084,0.8600000143051147
54,0.008758616633713245,1.0,0.5181699395179749,0.8700000047683716
55,0.0029665855690836906,1.0,0.44243866205215454,0.8899999856948853
56,0.0037758033722639084,1.0,0.42772582173347473,0.8899999856948853
57,0.002196037210524082,1.0,0.42845189571380615,0.9100000262260437
58,0.002086042193695903,1.0,0.4051820635795593,0.9100000262260437
59,0.002708200830966234,1.0,0.38990768790245056,0.8899999856948853
60,0.0009428018820472062,1.0,0.3799656629562378,0.8999999761581421
61,0.0007389019592665136,1.0,0.36472222208976746,0.8899999856948853
62,0.0024236871395260096,1.0,0.3499901592731476,0.9200000166893005
63,0.0012462821323424578,1.0,0.34226346015930176,0.9200000166893005
64,0.006457507144659758,1.0,0.44531822204589844,0.8999999761581421
65,0.005424213595688343,1.0,0.3677234351634979,0.9100000262260437
66,0.0028913775458931923,1.0,0.33692800998687744,0.9200000166893005
67,0.0038197257090359926,1.0,0.3328096866607666,0.9300000071525574
68,0.0027208207175135612,1.0,0.33409279584884644,0.9300000071525574
69,0.0009061635937541723,1.0,0.32871752977371216,0.9399999976158142
70,0.0024549271911382675,1.0,0.3318556547164917,0.9300000071525574
71,0.002908252412453294,1.0,0.38402166962623596,0.9200000166893005
72,0.000349683512467891,1.0,0.4046783745288849,0.9200000166893005
73,0.0009697034256532788,1.0,0.4001697301864624,0.9200000166893005
74,0.0008293296559713781,1.0,0.3756546676158905,0.9200000166893005
75,0.0008520794799551368,1.0,0.3610665500164032,0.9300000071525574
76,0.0021442475263029337,1.0,0.32242393493652344,0.9399999976158142
77,0.0007008045795373619,1.0,0.3197356164455414,0.9399999976158142
78,0.0022821081802248955,1.0,0.3301980495452881,0.9300000071525574
79,0.001699645770713687,1.0,0.34366375207901,0.9200000166893005
80,0.0005409609293565154,1.0,0.35127294063568115,0.9200000166893005
81,0.00040360717684961855,1.0,0.35591790080070496,0.9200000166893005
82,0.00034672662150114775,1.0,0.3577319383621216,0.9200000166893005
83,0.0005084827425889671,1.0,0.36082637310028076,0.9200000166893005
84,0.0001759675651555881,1.0,0.3642638027667999,0.9200000166893005
85,0.00014558585826307535,1.0,0.3682303726673126,0.9200000166893005
86,0.0005432188045233488,1.0,0.3726747930049896,0.9100000262260437
87,0.00020114752987865359,1.0,0.37683841586112976,0.9100000262260437
88,6.0972855862928554e-05,1.0,0.3798823654651642,0.9100000262260437
89,0.00024159510212484747,1.0,0.38261544704437256,0.9100000262260437
90,0.000342540442943573,1.0,0.3858482241630554,0.9100000262260437
91,0.00010584415576886386,1.0,0.3894992768764496,0.9100000262260437
92,0.0008558322442695498,1.0,0.40317994356155396,0.9100000262260437
93,0.00023164205776993185,1.0,0.4136236608028412,0.9100000262260437
94,0.00022108388657215983,1.0,0.4196653366088867,0.9100000262260437
95,0.0001645427691983059,1.0,0.4211365580558777,0.9100000262260437
96,0.00015403208089992404,1.0,0.42136964201927185,0.9100000262260437
97,0.000605987966991961,1.0,0.4210890233516693,0.9100000262260437
98,0.0003587384126149118,1.0,0.42003363370895386,0.9100000262260437
99,0.001350554171949625,1.0,0.4275861978530884,0.9100000262260437
100,0.0004992922767996788,1.0,0.4260566234588623,0.9200000166893005
101,0.00010983766696881503,1.0,0.4265006184577942,0.9200000166893005
102,0.0018192477291449904,1.0,0.47015243768692017,0.9100000262260437
103,0.0006037001148797572,1.0,0.5088322162628174,0.9100000262260437
104,0.0002985416795127094,1.0,0.5262844562530518,0.9100000262260437
105,0.000720313168130815,1.0,0.4996238946914673,0.9100000262260437
106,0.00018266812548972666,1.0,0.4727572500705719,0.9100000262260437
107,0.0002611535310279578,1.0,0.46919363737106323,0.9100000262260437
108,0.00021636731980834156,1.0,0.4717347025871277,0.9200000166893005
109,0.0007719528512097895,1.0,0.45769959688186646,0.9200000166893005
110,0.0001325734774582088,1.0,0.44877421855926514,0.9200000166893005
111,0.0005190980155020952,1.0,0.4433584213256836,0.9200000166893005
112,0.00014185457257553935,1.0,0.438838392496109,0.9200000166893005
113,0.0001903347292682156,1.0,0.436979740858078,0.9200000166893005
114,0.0001322375173913315,1.0,0.4382445514202118,0.9200000166893005
115,0.000200126989511773,1.0,0.4356187880039215,0.9200000166893005
116,0.00017632884555496275,1.0,0.43479451537132263,0.9100000262260437
117,0.0003167055838275701,1.0,0.43106552958488464,0.9100000262260437
118,0.00010924276284640655,1.0,0.42863693833351135,0.9100000262260437
119,0.0010399202583357692,1.0,0.42114949226379395,0.9200000166893005
120,0.00011438866204116493,1.0,0.4145859479904175,0.9200000166893005
121,0.00036285919486545026,1.0,0.4206506311893463,0.9200000166893005
122,0.0007209819741547108,1.0,0.4280017614364624,0.9200000166893005
123,0.0003810595371760428,1.0,0.42577511072158813,0.9200000166893005
124,0.0010157955111935735,1.0,0.41668787598609924,0.9100000262260437
125,0.00016545433027204126,1.0,0.4114716351032257,0.9200000166893005
126,0.0017653569811955094,1.0,0.38388457894325256,0.9399999976158142
127,0.04282276704907417,0.9900000095367432,0.9372744560241699,0.800000011920929
128,0.14087437093257904,0.9300000071525574,4.760472774505615,0.6499999761581421
129,0.0854131281375885,0.9700000286102295,1.3303643465042114,0.8100000023841858
130,0.2126825451850891,0.9399999976158142,8.885171890258789,0.6499999761581421
131,0.13114401698112488,0.9599999785423279,38.904178619384766,0.6399999856948853
132,0.1094464659690857,0.949999988079071,13.808122634887695,0.6399999856948853
133,0.03133369982242584,0.9900000095367432,10.099823951721191,0.6399999856948853
134,0.029916398227214813,0.9900000095367432,4.2582573890686035,0.6899999976158142
135,0.026493702083826065,1.0,3.261826753616333,0.699999988079071
136,0.010064641013741493,1.0,3.4675116539001465,0.7300000190734863
137,0.006928229704499245,1.0,2.8851494789123535,0.75
138,0.008720764890313148,0.9900000095367432,2.1992812156677246,0.7400000095367432
139,0.0033524101600050926,1.0,1.8106731176376343,0.7400000095367432
140,0.010029103606939316,0.9900000095367432,1.4028695821762085,0.7699999809265137
141,0.0035655274987220764,1.0,1.004718542098999,0.8100000023841858
142,0.0061270748265087605,1.0,1.0032777786254883,0.8100000023841858
143,0.0026454227045178413,1.0,1.054915189743042,0.800000011920929
144,0.0021501672454178333,1.0,0.9865833520889282,0.800000011920929
145,0.0036334374453872442,1.0,0.8386897444725037,0.8100000023841858
146,0.0013483830261975527,1.0,0.6877235174179077,0.8600000143051147
147,0.0007053936133161187,1.0,0.6026676893234253,0.8700000047683716
148,0.0003691372985485941,1.0,0.5552821159362793,0.8799999952316284
149,0.001324972021393478,1.0,0.5309088230133057,0.8799999952316284
150,0.004064921289682388,1.0,0.43468689918518066,0.8999999761581421
151,0.006670650094747543,1.0,0.4286497235298157,0.8999999761581421
152,0.004814639687538147,1.0,0.4937484860420227,0.8899999856948853
153,0.0037323045544326305,1.0,0.4958316385746002,0.8999999761581421
154,0.0016413319390267134,1.0,0.5250840187072754,0.8799999952316284
155,0.000778618676122278,1.0,0.5134335160255432,0.8799999952316284
156,0.0015877735568210483,1.0,0.499672532081604,0.8899999856948853
157,0.0007651775376871228,1.0,0.4778772294521332,0.8899999856948853
158,0.0005690534599125385,1.0,0.464791864156723,0.8999999761581421
159,0.0011656193528324366,1.0,0.45145079493522644,0.8999999761581421
160,0.0025326909963041544,1.0,0.42948487401008606,0.9100000262260437
161,0.0010414804564788938,1.0,0.4177921414375305,0.9200000166893005
162,0.0005482729757204652,1.0,0.40807804465293884,0.9100000262260437
163,0.0005349702551029623,1.0,0.4023781716823578,0.9100000262260437
164,0.001653274055570364,1.0,0.4000493586063385,0.9100000262260437
165,0.0013910150155425072,1.0,0.401981920003891,0.9100000262260437
166,0.0005389870493672788,1.0,0.39985665678977966,0.9100000262260437
167,0.0006362386047840118,1.0,0.4005894958972931,0.9100000262260437
168,0.0006668631685897708,1.0,0.4013080596923828,0.9100000262260437
169,0.000469242746476084,1.0,0.4050728678703308,0.9100000262260437
170,0.002616633428260684,1.0,0.4541095793247223,0.8999999761581421
171,0.0005083712749183178,1.0,0.4660412669181824,0.8999999761581421
172,0.000533617683686316,1.0,0.4601059854030609,0.8999999761581421
173,0.0005551590584218502,1.0,0.45145630836486816,0.8999999761581421
174,0.0009514156263321638,1.0,0.4367324113845825,0.8999999761581421
175,0.00039138959255069494,1.0,0.42969977855682373,0.8999999761581421
176,0.0007321491139009595,1.0,0.4280320703983307,0.8999999761581421
177,0.00023478420916944742,1.0,0.4280744194984436,0.8999999761581421
178,0.0004083257808815688,1.0,0.4278813898563385,0.8999999761581421
179,0.0003854511014651507,1.0,0.42653805017471313,0.8999999761581421
180,0.0005008011939935386,1.0,0.42752864956855774,0.8999999761581421
181,0.0011534373043105006,1.0,0.4303140640258789,0.8999999761581421
182,0.00037413451354950666,1.0,0.43014422059059143,0.8999999761581421
183,0.00016904962831176817,1.0,0.4311760663986206,0.8999999761581421
184,9.888836939353496e-05,1.0,0.4314105212688446,0.9100000262260437
185,0.0007923160446807742,1.0,0.4301433563232422,0.9100000262260437
186,0.003019915893673897,1.0,0.4026292860507965,0.8999999761581421
187,9.601969213690609e-05,1.0,0.40059271454811096,0.8899999856948853
188,0.0006546501535922289,1.0,0.3956342339515686,0.8999999761581421
189,0.0005807229317724705,1.0,0.3936331570148468,0.8999999761581421
190,0.0002015432546613738,1.0,0.394413560628891,0.8999999761581421
191,0.0030471161007881165,1.0,0.39597663283348083,0.8899999856948853
192,0.0004863340000156313,1.0,0.40038734674453735,0.8899999856948853
193,0.0007437117164954543,1.0,0.4070874750614166,0.8899999856948853
194,0.0003121101181022823,1.0,0.41220414638519287,0.8899999856948853
195,0.0023682392202317715,1.0,0.41904720664024353,0.8999999761581421
196,0.0011563937878236175,1.0,0.4234105050563812,0.9100000262260437
197,0.00031231401953846216,1.0,0.4261794984340668,0.9100000262260437
198,0.0003417034458834678,1.0,0.42858725786209106,0.9100000262260437
199,0.0006167647079564631,1.0,0.4313961863517761,0.9100000262260437
200,0.003016963368281722,1.0,0.45082053542137146,0.8999999761581421
201,0.00018075123080052435,1.0,0.46789225935935974,0.9100000262260437
202,0.0008109879563562572,1.0,0.465442955493927,0.9100000262260437
203,0.0002531226782593876,1.0,0.4614875018596649,0.9100000262260437
204,0.0011528151808306575,1.0,0.4619115889072418,0.8999999761581421
205,0.00010788263898575678,1.0,0.4634331464767456,0.8999999761581421
206,0.009676743298768997,1.0,0.5476320385932922,0.9100000262260437
207,0.003208226291462779,1.0,0.5701485872268677,0.9100000262260437
208,0.022300386801362038,0.9800000190734863,0.5679579973220825,0.8899999856948853
209,0.009342231787741184,1.0,1.4026801586151123,0.7900000214576721
210,0.020556379109621048,0.9900000095367432,2.173673152923584,0.7200000286102295
211,0.0025609596632421017,1.0,1.9322303533554077,0.7599999904632568
212,0.0035696281120181084,1.0,1.464414358139038,0.7799999713897705
213,0.0031659987289458513,1.0,1.0166279077529907,0.8199999928474426
214,0.0016184418927878141,1.0,0.7893133759498596,0.8500000238418579
215,0.004922057967633009,1.0,0.6489764451980591,0.8799999952316284
216,0.001028071972541511,1.0,0.5399656891822815,0.8899999856948853
217,0.0005571102374233305,1.0,0.48230186104774475,0.9200000166893005
218,0.000335363409249112,1.0,0.4518251121044159,0.9200000166893005
219,0.0006722028483636677,1.0,0.43703240156173706,0.9100000262260437
220,0.00047437817556783557,1.0,0.4290170967578888,0.9200000166893005
221,0.0012707158457487822,1.0,0.42161405086517334,0.8999999761581421
222,0.0014361098874360323,1.0,0.4189223051071167,0.8999999761581421
223,0.0003510580863803625,1.0,0.4180213212966919,0.8999999761581421
224,0.00015860050916671753,1.0,0.41748881340026855,0.8999999761581421
225,0.0007617607479915023,1.0,0.41634368896484375,0.8999999761581421
226,0.0007633075583726168,1.0,0.4134543538093567,0.8999999761581421
227,0.0008170638466253877,1.0,0.41154852509498596,0.8999999761581421
228,0.001753832446411252,1.0,0.3979499936103821,0.8999999761581421
229,0.00035459440550766885,1.0,0.3956645727157593,0.8999999761581421
230,0.00017168580961879343,1.0,0.39546024799346924,0.8999999761581421
231,0.0004313921963330358,1.0,0.39644184708595276,0.8999999761581421
232,0.00013095798203721642,1.0,0.3975549638271332,0.8999999761581421
233,0.0018776938086375594,1.0,0.4021150469779968,0.8999999761581421
234,0.00016830427921377122,1.0,0.4050721228122711,0.8999999761581421
235,0.0003433452220633626,1.0,0.4071367681026459,0.8999999761581421
236,0.00011044280836358666,1.0,0.40840065479278564,0.8999999761581421
237,0.00013433270214591175,1.0,0.4095689058303833,0.8999999761581421
238,0.0001912200968945399,1.0,0.41055718064308167,0.9100000262260437
239,0.0008246191428042948,1.0,0.4123394787311554,0.9100000262260437
240,7.489218114642426e-05,1.0,0.4139675199985504,0.9200000166893005
241,0.0010602135444059968,1.0,0.414468377828598,0.9200000166893005
242,8.267749944934621e-05,1.0,0.4149656593799591,0.9200000166893005
243,0.00024805846624076366,1.0,0.4159822165966034,0.9200000166893005
244,0.0003634694148786366,1.0,0.4172064960002899,0.9200000166893005
245,0.00044656265527009964,1.0,0.41811397671699524,0.9100000262260437
246,0.0005590918590314686,1.0,0.4193951487541199,0.9200000166893005
247,0.00027269142447039485,1.0,0.4201204776763916,0.9200000166893005
248,0.0003430892829783261,1.0,0.4212670922279358,0.9200000166893005
249,0.0004968821885995567,1.0,0.42153260111808777,0.9200000166893005
250,0.00047579052625223994,1.0,0.4221040606498718,0.9200000166893005
251,0.002718411386013031,1.0,0.416828453540802,0.9100000262260437
252,9.598972974345088e-05,1.0,0.41417503356933594,0.9100000262260437
253,0.00022838333097752184,1.0,0.413491815328598,0.9100000262260437
254,0.0009307212894782424,1.0,0.4104251563549042,0.9100000262260437
255,0.0005247333901934326,1.0,0.40870580077171326,0.9100000262260437
256,0.0004061278305016458,1.0,0.4092273414134979,0.9100000262260437
257,0.0007499086786992848,1.0,0.41208207607269287,0.9100000262260437
258,0.00020792076247744262,1.0,0.4138195812702179,0.9100000262260437
259,0.0013205771101638675,1.0,0.41627898812294006,0.9100000262260437
260,0.002047993941232562,1.0,0.4185935854911804,0.9200000166893005
261,0.00014044767885934561,1.0,0.42039167881011963,0.9200000166893005
262,9.951747779268771e-05,1.0,0.42151427268981934,0.9200000166893005
263,0.0010205574799329042,1.0,0.4259191155433655,0.9200000166893005
264,0.00031078068423084915,1.0,0.42885518074035645,0.9100000262260437
265,0.00017860483785625547,1.0,0.4296363592147827,0.9200000166893005
266,0.00021025343448854983,1.0,0.4303019046783447,0.9100000262260437
267,0.0002584067406132817,1.0,0.4306834042072296,0.9100000262260437
268,0.0009801698615774512,1.0,0.43022263050079346,0.9100000262260437
269,0.00013258567196317017,1.0,0.43060302734375,0.9100000262260437
270,0.00010183086851611733,1.0,0.4307914078235626,0.9100000262260437
271,0.0003101197653450072,1.0,0.4309547543525696,0.9100000262260437
272,0.0002573697129264474,1.0,0.4312625527381897,0.9100000262260437
273,0.0023385388776659966,1.0,0.4266732335090637,0.9200000166893005
274,0.0007991050952114165,1.0,0.4277587831020355,0.9200000166893005
275,7.701387949055061e-05,1.0,0.42904195189476013,0.9200000166893005
276,0.0008488594903610647,1.0,0.4302069842815399,0.9200000166893005
277,0.00030668050749227405,1.0,0.43008914589881897,0.9200000166893005
278,0.00011936503142351285,1.0,0.43042540550231934,0.9200000166893005
279,0.0016651139594614506,1.0,0.43181610107421875,0.9200000166893005
280,9.842385770753026e-05,1.0,0.43333855271339417,0.9200000166893005
281,0.00014318511239252985,1.0,0.43429091572761536,0.9200000166893005
282,0.0010687826434150338,1.0,0.4345267117023468,0.9200000166893005
283,0.0005642629694193602,1.0,0.4350946843624115,0.9200000166893005
284,0.00039665837539359927,1.0,0.43567946553230286,0.9200000166893005
285,0.0008145398460328579,1.0,0.43367812037467957,0.9200000166893005
286,0.00017825845861807466,1.0,0.4332824647426605,0.9200000166893005
287,0.00020380906062200665,1.0,0.4334709048271179,0.9200000166893005
288,0.00024348506121896207,1.0,0.4335170090198517,0.9200000166893005
289,0.00021264720999170095,1.0,0.43311089277267456,0.9200000166893005
290,0.0005733997095376253,1.0,0.4324001967906952,0.9200000166893005
291,0.0014025440905243158,1.0,0.42516106367111206,0.9100000262260437
292,7.016352174105123e-05,1.0,0.4225877821445465,0.9100000262260437
293,0.00022886561055202037,1.0,0.42240646481513977,0.9100000262260437
294,0.0002931429189629853,1.0,0.42288094758987427,0.9100000262260437
295,0.0002226956421509385,1.0,0.4238741397857666,0.9100000262260437
296,0.000136319431476295,1.0,0.4245392084121704,0.9100000262260437
297,5.130488352733664e-05,1.0,0.4250013828277588,0.9100000262260437
298,0.0004465577658265829,1.0,0.4261329770088196,0.9100000262260437
299,8.680627070134506e-05,1.0,0.4267898499965668,0.9100000262260437
300,0.0009159853798337281,1.0,0.42997658252716064,0.9100000262260437
301,5.4060801630839705e-05,1.0,0.4310845136642456,0.9100000262260437
302,8.88383001438342e-05,1.0,0.43142127990722656,0.9100000262260437
303,0.00015062512829899788,1.0,0.43156734108924866,0.9100000262260437
304,5.5170490668388084e-05,1.0,0.43167275190353394,0.9100000262260437
305,0.0003434229292906821,1.0,0.4308983087539673,0.9100000262260437
306,0.00015012023504823446,1.0,0.4309731423854828,0.9100000262260437
307,0.00018763508705887944,1.0,0.4314269721508026,0.9100000262260437
308,0.000861325126606971,1.0,0.43226566910743713,0.9100000262260437
309,0.0006360253901220858,1.0,0.43177932500839233,0.9100000262260437
310,0.0004248610930517316,1.0,0.431613951921463,0.9100000262260437
311,0.00015627738321200013,1.0,0.43180760741233826,0.9100000262260437
312,7.610694592585787e-05,1.0,0.4320227801799774,0.9100000262260437
313,0.0006588957621715963,1.0,0.4333958923816681,0.9100000262260437
314,7.58771420805715e-05,1.0,0.4343685209751129,0.9100000262260437
315,0.0008656291174702346,1.0,0.4368959069252014,0.9200000166893005
316,0.0014799544587731361,1.0,0.4353317320346832,0.9100000262260437
317,0.00020889201550744474,1.0,0.4327910244464874,0.9100000262260437
318,0.00010631199984345585,1.0,0.43256568908691406,0.9100000262260437
319,8.237768633989617e-05,1.0,0.4331463575363159,0.9100000262260437
320,0.00022109717247076333,1.0,0.4344397783279419,0.9100000262260437
321,0.00030495887040160596,1.0,0.436034619808197,0.9100000262260437
322,0.0002275996666867286,1.0,0.43706923723220825,0.9100000262260437
323,0.00020425622642505914,1.0,0.4374689757823944,0.9100000262260437
324,0.0001402150810463354,1.0,0.43813300132751465,0.9100000262260437
325,5.7704502978594974e-05,1.0,0.4388050138950348,0.9100000262260437
326,9.46198488236405e-05,1.0,0.43977612257003784,0.9100000262260437
327,9.425386087968946e-05,1.0,0.4406534433364868,0.9200000166893005
328,9.934603440342471e-05,1.0,0.4410856366157532,0.9200000166893005
329,0.00011499777610879391,1.0,0.44200074672698975,0.9200000166893005
330,8.964687731349841e-05,1.0,0.44275224208831787,0.9200000166893005
331,0.00010458575707161799,1.0,0.44352638721466064,0.9200000166893005
332,0.00041683446033857763,1.0,0.44412800669670105,0.9200000166893005
333,0.0008171650697477162,1.0,0.44397684931755066,0.9200000166893005
334,0.0004967463319189847,1.0,0.44611549377441406,0.9200000166893005
335,0.00041461113141849637,1.0,0.44744011759757996,0.9200000166893005
336,0.00033370114397257566,1.0,0.45013853907585144,0.9200000166893005
337,0.0004080904182046652,1.0,0.4504975974559784,0.9200000166893005
338,0.00011798695777542889,1.0,0.4503161907196045,0.9200000166893005
339,0.00018230025307275355,1.0,0.44967177510261536,0.9200000166893005
340,5.834013791172765e-05,1.0,0.4492689371109009,0.9200000166893005
341,6.09611306572333e-05,1.0,0.4491071403026581,0.9200000166893005
342,0.0029938709922134876,1.0,0.47365131974220276,0.9100000262260437
343,0.00038633894291706383,1.0,0.48234909772872925,0.8899999856948853
344,0.0006425061146728694,1.0,0.48246270418167114,0.8899999856948853
345,0.0004987457650713623,1.0,0.4794054925441742,0.8999999761581421
346,0.00016835954738780856,1.0,0.4757843017578125,0.8999999761581421
347,0.00011848525900859386,1.0,0.47256016731262207,0.8999999761581421
348,0.00018704913964029402,1.0,0.47010692954063416,0.9100000262260437
349,0.0008134072995744646,1.0,0.4661977291107178,0.9100000262260437
350,0.0004067379340995103,1.0,0.4626544117927551,0.9100000262260437
351,3.678035500342958e-05,1.0,0.459694504737854,0.9100000262260437
352,0.0006914167897775769,1.0,0.45814093947410583,0.9100000262260437
353,7.99214540165849e-05,1.0,0.4565683603286743,0.9100000262260437
354,0.0003095954598393291,1.0,0.4560739994049072,0.9100000262260437
355,0.00012334644270595163,1.0,0.4560117721557617,0.9100000262260437
356,8.80445004440844e-05,1.0,0.45551925897598267,0.9100000262260437
357,0.0010159036610275507,1.0,0.45764920115470886,0.9100000262260437
358,8.711232658242807e-05,1.0,0.4578198194503784,0.9200000166893005
359,0.00016371364472433925,1.0,0.45739078521728516,0.9200000166893005
360,0.00036037873360328376,1.0,0.45694610476493835,0.9200000166893005
361,0.00399416359141469,1.0,0.44411036372184753,0.9200000166893005
362,4.512075975071639e-05,1.0,0.4169701039791107,0.9100000262260437
363,0.00014190463116392493,1.0,0.41181573271751404,0.8999999761581421
364,0.00040538355824537575,1.0,0.4111081063747406,0.8999999761581421
365,0.00020259767188690603,1.0,0.4125434458255768,0.9200000166893005
366,8.229036029661074e-05,1.0,0.41399946808815,0.9200000166893005
367,0.000347587134456262,1.0,0.41593292355537415,0.9200000166893005
368,4.483117299969308e-05,1.0,0.4173514246940613,0.9200000166893005
369,0.00020074054191354662,1.0,0.41933655738830566,0.9200000166893005
370,0.00013605819549411535,1.0,0.42073968052864075,0.9200000166893005
371,8.521929703420028e-05,1.0,0.4220338463783264,0.9200000166893005
372,6.160501652630046e-05,1.0,0.4234634041786194,0.9200000166893005
373,0.00013163620315026492,1.0,0.4250901937484741,0.9200000166893005
374,0.00042119715362787247,1.0,0.42841875553131104,0.9200000166893005
375,0.00013167684664949775,1.0,0.4304641783237457,0.9200000166893005
376,0.00018099520821124315,1.0,0.4320441782474518,0.9200000166893005
377,0.00022974856256041676,1.0,0.4334556460380554,0.9200000166893005
378,0.00020018195209559053,1.0,0.4344220757484436,0.9200000166893005
379,0.0002974459493998438,1.0,0.4356693923473358,0.9200000166893005
380,3.269963781349361e-05,1.0,0.43637025356292725,0.9200000166893005
381,0.00020279880845919251,1.0,0.436939001083374,0.9200000166893005
382,5.0133610784541816e-05,1.0,0.4374961853027344,0.9200000166893005
383,9.25075146369636e-05,1.0,0.4379149377346039,0.9200000166893005
384,0.00013717415276914835,1.0,0.43865731358528137,0.9200000166893005
385,5.5666645494056866e-05,1.0,0.43931323289871216,0.9200000166893005
386,0.0005836927448399365,1.0,0.443683922290802,0.9200000166893005
387,0.00017107203893829137,1.0,0.44852402806282043,0.9300000071525574
388,0.00024622015189379454,1.0,0.4493940472602844,0.9300000071525574
389,0.00012329059245530516,1.0,0.4501093924045563,0.9300000071525574
390,0.00010583989933365956,1.0,0.45010262727737427,0.9300000071525574
391,0.00018055802502203733,1.0,0.4501749873161316,0.9300000071525574
392,0.00014628043572884053,1.0,0.45038291811943054,0.9300000071525574
393,0.00021307966380845755,1.0,0.45089876651763916,0.9300000071525574
394,0.00014976950478740036,1.0,0.45098626613616943,0.9300000071525574
395,0.00025645943242125213,1.0,0.4527258276939392,0.9300000071525574
396,7.299373828573152e-05,1.0,0.4536699652671814,0.9300000071525574
397,0.0001338909933110699,1.0,0.45435595512390137,0.9300000071525574
398,8.55866601341404e-05,1.0,0.4543127417564392,0.9300000071525574
399,4.376096694613807e-05,1.0,0.45427894592285156,0.9300000071525574
400,0.0003028375213034451,1.0,0.45502930879592896,0.9300000071525574
401,0.0006314785568974912,1.0,0.4536340832710266,0.9300000071525574
402,5.6719956774031743e-05,1.0,0.4520127773284912,0.9300000071525574
403,3.889952495228499e-05,1.0,0.45137283205986023,0.9200000166893005
404,0.001078692963346839,1.0,0.45460399985313416,0.9300000071525574
405,0.00018757293582893908,1.0,0.4562235176563263,0.9200000166893005
406,2.0991088604205288e-05,1.0,0.4561621844768524,0.9200000166893005
407,7.978659414220601e-05,1.0,0.4563300311565399,0.9200000166893005
408,0.00038249485078267753,1.0,0.45642077922821045,0.9200000166893005
409,0.00016409855743404478,1.0,0.4572243392467499,0.9300000071525574
410,0.0001906591496663168,1.0,0.45641857385635376,0.9300000071525574
411,0.0004186062142252922,1.0,0.4555046558380127,0.9300000071525574
412,0.00034579652128741145,1.0,0.4538668096065521,0.9200000166893005
413,6.464016041718423e-05,1.0,0.4533679187297821,0.9200000166893005
414,2.4254741219920106e-05,1.0,0.4531902074813843,0.9200000166893005
415,2.8553038646350615e-05,1.0,0.45321208238601685,0.9200000166893005
416,0.000418884155806154,1.0,0.4550338387489319,0.9200000166893005
417,9.109295206144452e-05,1.0,0.4553776979446411,0.9200000166893005
418,3.221969018341042e-05,1.0,0.45558884739875793,0.9200000166893005
419,6.651099101873115e-05,1.0,0.45596083998680115,0.9200000166893005
420,3.390112760826014e-05,1.0,0.4562717080116272,0.9200000166893005
421,0.00029544293647632003,1.0,0.4585132598876953,0.9200000166893005
422,0.00016013816639315337,1.0,0.4592331051826477,0.9200000166893005
423,8.296843589050695e-05,1.0,0.45927104353904724,0.9200000166893005
424,3.119863322353922e-05,1.0,0.4593505859375,0.9200000166893005
425,4.186238584225066e-05,1.0,0.4596114456653595,0.9200000166893005
426,5.964821684756316e-05,1.0,0.46015655994415283,0.9200000166893005
427,0.00014911136531736702,1.0,0.4599485695362091,0.9200000166893005
428,0.0005762753426097333,1.0,0.45735785365104675,0.9200000166893005
429,0.00019984421669505537,1.0,0.4551781713962555,0.9200000166893005
430,0.00035073765320703387,1.0,0.4558044373989105,0.9200000166893005
431,0.0031331232748925686,1.0,0.4764226973056793,0.9100000262260437
432,0.0001108892829506658,1.0,0.4893203675746918,0.9100000262260437
433,4.845177318202332e-05,1.0,0.4902089834213257,0.9100000262260437
434,0.00015016700490377843,1.0,0.4887011647224426,0.9100000262260437
435,0.00035470566945150495,1.0,0.48578616976737976,0.9100000262260437
436,0.00012456119293347,1.0,0.4823662042617798,0.9100000262260437
437,0.0005757936160080135,1.0,0.47942742705345154,0.9100000262260437
438,0.0006272154278121889,1.0,0.47623154520988464,0.9100000262260437
439,8.264559437520802e-05,1.0,0.47260281443595886,0.9100000262260437
440,9.551821131026372e-05,1.0,0.4697660803794861,0.9100000262260437
441,0.00026384854572825134,1.0,0.4676158130168915,0.9100000262260437
442,0.00011150520003866404,1.0,0.4657082259654999,0.9100000262260437
443,0.05788135528564453,0.9700000286102295,0.4719616174697876,0.9200000166893005
444,0.002431605476886034,1.0,0.5587813854217529,0.8999999761581421
445,0.009621890261769295,1.0,0.4818829596042633,0.9100000262260437
446,0.0017407197738066316,1.0,0.47949305176734924,0.8999999761581421
447,0.012523820623755455,0.9900000095367432,0.4837239384651184,0.8999999761581421
448,0.0007662852294743061,1.0,0.5055731534957886,0.8899999856948853
449,0.012515075504779816,1.0,0.5811222791671753,0.8799999952316284
450,0.0014054954517632723,1.0,0.84987473487854,0.8399999737739563
451,0.002369019202888012,1.0,0.9063579440116882,0.8399999737739563
452,0.0006349959876388311,1.0,0.8671071529388428,0.8399999737739563
453,0.0014222949976101518,1.0,0.7813217043876648,0.8399999737739563
454,0.00019299180712550879,1.0,0.7210547924041748,0.8399999737739563
455,0.002068872097879648,1.0,0.6829301714897156,0.8500000238418579
456,0.0003150611009914428,1.0,0.6549684405326843,0.8600000143051147
457,0.0008540790295228362,1.0,0.6169256567955017,0.8700000047683716
458,0.00043278507655486465,1.0,0.5887603759765625,0.8899999856948853
459,0.0033740526996552944,1.0,0.5679183006286621,0.8799999952316284
460,0.00028533366275951266,1.0,0.5633220076560974,0.8700000047683716
461,0.00019061310740653425,1.0,0.5577290058135986,0.8700000047683716
462,0.0013362426543608308,1.0,0.5736544132232666,0.8700000047683716
463,0.007024931255728006,1.0,0.6528756618499756,0.8799999952316284
464,0.0001726703776512295,1.0,0.6698684096336365,0.8700000047683716
465,0.0029667497146874666,1.0,0.6370071768760681,0.8700000047683716
466,0.0014749689726158977,1.0,0.5911406874656677,0.8799999952316284
467,0.00037832409725524485,1.0,0.5678287744522095,0.8899999856948853
468,0.0004801976028829813,1.0,0.5547207593917847,0.8899999856948853
469,0.000454984896350652,1.0,0.5447054505348206,0.8899999856948853
470,9.518233855487779e-05,1.0,0.5393158793449402,0.8999999761581421
471,0.0002501655835658312,1.0,0.5355996489524841,0.8999999761581421
472,0.0005272423150017858,1.0,0.5300531387329102,0.8899999856948853
473,8.72852688189596e-05,1.0,0.527309238910675,0.8899999856948853
474,0.00019784037431236356,1.0,0.5257200002670288,0.8899999856948853
475,9.719099034555256e-05,1.0,0.52425217628479,0.8899999856948853
476,0.001354898908175528,1.0,0.5166316032409668,0.8999999761581421
477,0.0008160588331520557,1.0,0.5105157494544983,0.8999999761581421
478,0.00010121058585355058,1.0,0.5004180073738098,0.8999999761581421
479,0.0008112710784189403,1.0,0.4968586266040802,0.8999999761581421
480,0.00011353664012858644,1.0,0.49453994631767273,0.8999999761581421
481,0.00013171850878279656,1.0,0.49577003717422485,0.8999999761581421
482,0.0001450180570827797,1.0,0.4976678490638733,0.8999999761581421
483,0.00010642509732861072,1.0,0.4984647035598755,0.8999999761581421
484,0.00024518839200027287,1.0,0.49957790970802307,0.8999999761581421
485,9.539022721583024e-05,1.0,0.5010949373245239,0.8999999761581421
486,0.0004907926777377725,1.0,0.5027622580528259,0.8999999761581421
487,0.0001362862385576591,1.0,0.5033708214759827,0.8999999761581421
488,6.17939222138375e-05,1.0,0.5049951076507568,0.8999999761581421
489,0.00023746701481286436,1.0,0.5079363584518433,0.8999999761581421
490,0.0003084991767536849,1.0,0.5104535818099976,0.8999999761581421
491,0.00025291499332524836,1.0,0.5121209621429443,0.8999999761581421
492,0.0003337111556902528,1.0,0.5116531848907471,0.8999999761581421
493,0.0001609365426702425,1.0,0.5120574831962585,0.8999999761581421
494,0.0005875410279259086,1.0,0.5141510963439941,0.8999999761581421
495,0.00022241039550863206,1.0,0.517214298248291,0.8999999761581421
496,0.000768516503740102,1.0,0.5162389874458313,0.8999999761581421
497,0.00013108126586303115,1.0,0.5148689150810242,0.9100000262260437
498,7.590379391331226e-05,1.0,0.5144031047821045,0.9100000262260437
499,0.0003425921604502946,1.0,0.5151682496070862,0.9100000262260437
500,0.0008828522404655814,1.0,0.5108842849731445,0.9100000262260437
501,0.0002455396461300552,1.0,0.5090147256851196,0.9100000262260437
502,0.0004034604935441166,1.0,0.5081068277359009,0.9100000262260437
503,0.00015171372797340155,1.0,0.5082420110702515,0.9100000262260437
504,0.00012548478844109923,1.0,0.5091567635536194,0.9100000262260437
505,7.450974226230755e-05,1.0,0.509782612323761,0.9100000262260437
506,0.00016213914204854518,1.0,0.5117111206054688,0.9100000262260437
507,0.001632890198379755,1.0,0.511130154132843,0.9100000262260437
508,0.00020862322708126158,1.0,0.5077240467071533,0.9100000262260437
509,0.0004989767912775278,1.0,0.5029518008232117,0.9100000262260437
510,0.00012676132610067725,1.0,0.5013923645019531,0.9200000166893005
511,7.417564484057948e-05,1.0,0.5011036396026611,0.9200000166893005
512,0.001020333613269031,1.0,0.5130992531776428,0.9200000166893005
513,0.0002284993970533833,1.0,0.5192043781280518,0.9100000262260437
514,0.00025764096062630415,1.0,0.5194500088691711,0.9100000262260437
515,0.0009210488060489297,1.0,0.5171887278556824,0.9100000262260437
516,0.00022947003890294582,1.0,0.514014720916748,0.8999999761581421
517,0.0010139771038666368,1.0,0.509330689907074,0.8999999761581421
518,0.00030258792685344815,1.0,0.5085198283195496,0.8999999761581421
519,0.00020144201698713005,1.0,0.5105273723602295,0.8999999761581421
520,0.0008208602084778249,1.0,0.5154131054878235,0.8999999761581421
521,0.0013498516054823995,1.0,0.5455320477485657,0.8999999761581421
522,4.6901797759346664e-05,1.0,0.5522411465644836,0.8999999761581421
523,0.001111626741476357,1.0,0.5491479635238647,0.8999999761581421
524,0.00015354782226495445,1.0,0.5385295748710632,0.8999999761581421
525,0.0006667046109214425,1.0,0.5297445058822632,0.8999999761581421
526,0.0007269637426361442,1.0,0.5194354057312012,0.8999999761581421
527,0.0004077662597410381,1.0,0.5139405131340027,0.8999999761581421
528,7.238688704092056e-05,1.0,0.5105189681053162,0.8899999856948853
529,0.0004370309761725366,1.0,0.5092624425888062,0.8899999856948853
530,0.00014279817696660757,1.0,0.5063503384590149,0.8899999856948853
531,0.00020229231449775398,1.0,0.5056583881378174,0.8999999761581421
532,0.0001284707395825535,1.0,0.5051738023757935,0.8999999761581421
533,0.001123103080317378,1.0,0.5027203559875488,0.8899999856948853
534,0.0005558764096349478,1.0,0.4970273971557617,0.8899999856948853
535,5.5924858315847814e-05,1.0,0.49402832984924316,0.8899999856948853
536,3.6363631807034835e-05,1.0,0.4938778579235077,0.8899999856948853
537,0.00016210228204727173,1.0,0.49419230222702026,0.8899999856948853
538,5.0731952796923e-05,1.0,0.4953957796096802,0.8999999761581421
539,8.163911115843803e-05,1.0,0.49631577730178833,0.8999999761581421
540,0.00010407050285721198,1.0,0.49725958704948425,0.8999999761581421
541,0.00014287733938544989,1.0,0.4990323781967163,0.8999999761581421
542,0.00030198239255696535,1.0,0.4997948110103607,0.8999999761581421
543,0.0006979888421483338,1.0,0.5035789608955383,0.8999999761581421
544,4.437951429281384e-05,1.0,0.5077105164527893,0.8999999761581421
545,0.0002833744219969958,1.0,0.5092752575874329,0.8999999761581421
546,2.3277500076801516e-05,1.0,0.5079746842384338,0.8999999761581421
547,6.0712456615874544e-05,1.0,0.5083519816398621,0.8999999761581421
548,6.912492244737223e-05,1.0,0.5094366669654846,0.8999999761581421
549,2.604834116937127e-05,1.0,0.5099696516990662,0.8999999761581421
550,7.619286043336615e-05,1.0,0.5103843212127686,0.8999999761581421
551,0.0001076115295290947,1.0,0.5109841823577881,0.8999999761581421
552,7.271157664945349e-05,1.0,0.5110076069831848,0.8999999761581421
553,6.342629058053717e-05,1.0,0.5116460919380188,0.8999999761581421
554,7.095737964846194e-05,1.0,0.5130109786987305,0.8999999761581421
555,0.00022990467550698668,1.0,0.5139784216880798,0.8999999761581421
556,0.0001143041008617729,1.0,0.5138676762580872,0.8999999761581421
557,0.00015960984455887228,1.0,0.5133243799209595,0.8999999761581421
558,0.00018474292301107198,1.0,0.5144633650779724,0.8999999761581421
559,4.067493136972189e-05,1.0,0.5154150128364563,0.8999999761581421
560,0.00012454994430299848,1.0,0.515231192111969,0.8999999761581421
561,0.0001799883903004229,1.0,0.5150757431983948,0.8999999761581421
562,5.4647585784550756e-05,1.0,0.5156598091125488,0.8999999761581421
563,0.0005923286662437022,1.0,0.5156170129776001,0.8999999761581421
564,0.00018292693130206317,1.0,0.5142116546630859,0.8999999761581421
565,0.0002045000874204561,1.0,0.5153730511665344,0.8999999761581421
566,0.00029753934359177947,1.0,0.5183892250061035,0.8999999761581421
567,7.532528979936615e-05,1.0,0.5220581293106079,0.8999999761581421
568,2.4829339963616803e-05,1.0,0.5228517055511475,0.8999999761581421
569,0.00022266646556090564,1.0,0.5262502431869507,0.8999999761581421
570,0.0005301676574163139,1.0,0.5274437665939331,0.8999999761581421
571,5.6460368796251714e-05,1.0,0.5221238732337952,0.8999999761581421
572,0.00030359975062310696,1.0,0.520530104637146,0.8999999761581421
573,0.0003269930894020945,1.0,0.5199565291404724,0.8999999761581421
574,0.00010288685734849423,1.0,0.5194398760795593,0.8999999761581421
575,9.030556248035282e-05,1.0,0.5193703770637512,0.8999999761581421
576,0.0001038529007928446,1.0,0.5201706886291504,0.8999999761581421
577,4.67509453301318e-05,1.0,0.520842432975769,0.8999999761581421
578,0.0009337626397609711,1.0,0.5235036015510559,0.8999999761581421
579,9.402086288901046e-05,1.0,0.5281791687011719,0.8999999761581421
580,6.694644980598241e-05,1.0,0.5288140773773193,0.8899999856948853
581,1.2396137208270375e-05,1.0,0.5290800333023071,0.8899999856948853
582,5.2168878028169274e-05,1.0,0.5295822620391846,0.8899999856948853
583,3.853562884614803e-05,1.0,0.5295529961585999,0.8899999856948853
584,4.9351947382092476e-05,1.0,0.5293206572532654,0.8899999856948853
585,1.5587562302243896e-05,1.0,0.5290279984474182,0.8899999856948853
586,1.8680389985092916e-05,1.0,0.5290569067001343,0.8899999856948853
587,0.00033055859967134893,1.0,0.5306867957115173,0.8899999856948853
588,0.00015908520435914397,1.0,0.5331371426582336,0.8999999761581421
589,2.5004528652061708e-05,1.0,0.5330570340156555,0.8999999761581421
590,0.0002088514738716185,1.0,0.5328075885772705,0.8999999761581421
591,1.6925780073506758e-05,1.0,0.5332507491111755,0.8999999761581421
592,4.9110905820271e-05,1.0,0.5334584712982178,0.8999999761581421
593,7.610387547174469e-05,1.0,0.5328629016876221,0.8999999761581421
594,1.8442946384311654e-05,1.0,0.5320563912391663,0.8999999761581421
595,8.829236321616918e-05,1.0,0.532174825668335,0.8999999761581421
596,6.763858982594684e-05,1.0,0.532453715801239,0.8999999761581421
597,4.727513078250922e-05,1.0,0.5326212644577026,0.8999999761581421
598,1.7495045540272258e-05,1.0,0.5324950218200684,0.8999999761581421
599,0.00016605369455646724,1.0,0.5321835875511169,0.8999999761581421
600,9.959876479115337e-05,1.0,0.5310669541358948,0.8999999761581421
601,0.00010859542817343026,1.0,0.53094482421875,0.8999999761581421
602,3.431463846936822e-05,1.0,0.5311237573623657,0.8999999761581421
603,2.0511097318376414e-05,1.0,0.5317835807800293,0.8999999761581421
604,0.0004790043749380857,1.0,0.529589831829071,0.8999999761581421
605,2.5002420443343e-05,1.0,0.5265080332756042,0.8999999761581421
606,1.4832408851361834e-05,1.0,0.5261009931564331,0.8999999761581421
607,3.333430868224241e-05,1.0,0.5261868834495544,0.8999999761581421
608,4.7800967877265066e-05,1.0,0.5270297527313232,0.8999999761581421
609,0.0003376200038474053,1.0,0.5279778838157654,0.8999999761581421
610,0.0005101291462779045,1.0,0.5232324004173279,0.8999999761581421
611,0.000338997517246753,1.0,0.5187416672706604,0.8999999761581421
612,9.473873069509864e-05,1.0,0.5178794860839844,0.8999999761581421
613,3.581018609111197e-05,1.0,0.5192674994468689,0.8999999761581421
614,0.00020494118507485837,1.0,0.5197978019714355,0.8999999761581421
615,5.030978354625404e-05,1.0,0.5208224058151245,0.8999999761581421
616,6.0332080465741456e-05,1.0,0.5221302509307861,0.8999999761581421
617,0.0002530218043830246,1.0,0.5220984816551208,0.8999999761581421
618,9.460575529374182e-05,1.0,0.5218961238861084,0.8999999761581421
619,2.2239473764784634e-05,1.0,0.5221235752105713,0.8999999761581421
620,5.837536809849553e-05,1.0,0.5224732160568237,0.8999999761581421
621,0.00021214880689512938,1.0,0.5241152048110962,0.8999999761581421
622,5.717161184293218e-05,1.0,0.5256099104881287,0.8999999761581421
623,0.00012942784815095365,1.0,0.5270116925239563,0.8999999761581421
624,8.79117360454984e-05,1.0,0.5292375087738037,0.8999999761581421
625,0.00022078673646319658,1.0,0.5278670191764832,0.8999999761581421
626,0.0001207933746627532,1.0,0.5270905494689941,0.8999999761581421
627,0.0001248317857971415,1.0,0.5267826318740845,0.8999999761581421
628,0.00018897703557740897,1.0,0.5270549654960632,0.8999999761581421
629,5.69761214137543e-05,1.0,0.528267502784729,0.8999999761581421
630,0.00010382850450696424,1.0,0.5294555425643921,0.8999999761581421
631,2.1098681827425025e-05,1.0,0.5304515361785889,0.8999999761581421
632,0.0002985849278047681,1.0,0.5316122174263,0.8999999761581421
633,0.00013959706120658666,1.0,0.5322661399841309,0.8999999761581421
634,2.715162918320857e-05,1.0,0.5326741933822632,0.8999999761581421
635,5.507116293301806e-05,1.0,0.5311673879623413,0.8999999761581421
636,1.1502051165734883e-05,1.0,0.5302974581718445,0.8999999761581421
637,0.00031511366250924766,1.0,0.5277184844017029,0.8999999761581421
638,6.272600148804486e-05,1.0,0.5277628302574158,0.8999999761581421
639,4.1086295823333785e-05,1.0,0.5287435054779053,0.8999999761581421
640,2.5857645596261136e-05,1.0,0.5291909575462341,0.8999999761581421
641,0.00032026597182266414,1.0,0.5345377326011658,0.8999999761581421
642,6.419309647753835e-05,1.0,0.5420531630516052,0.8899999856948853
643,0.00011179094872204587,1.0,0.5447952747344971,0.8899999856948853
644,1.4975466910982504e-05,1.0,0.545876145362854,0.8899999856948853
645,1.6610834791208617e-05,1.0,0.5458044409751892,0.8899999856948853
646,2.876627513614949e-05,1.0,0.5453324317932129,0.8899999856948853
647,6.722902617184445e-05,1.0,0.545484185218811,0.8999999761581421
648,1.8936421838589013e-05,1.0,0.5452620983123779,0.8999999761581421
649,2.6213287128484808e-05,1.0,0.5448079705238342,0.8999999761581421
650,2.6974459615303203e-05,1.0,0.5444813370704651,0.8899999856948853
651,0.00012038121349178255,1.0,0.545042097568512,0.8899999856948853
652,2.9458105927915312e-05,1.0,0.5443410277366638,0.8899999856948853
653,2.4129536541295238e-05,1.0,0.5445456504821777,0.8899999856948853
654,0.00024694629246369004,1.0,0.5417726635932922,0.8899999856948853
655,1.0339920663682278e-05,1.0,0.5398570895195007,0.8899999856948853
656,1.249973320227582e-05,1.0,0.5397264957427979,0.8899999856948853
657,1.1864622138091363e-05,1.0,0.539736270904541,0.8899999856948853
658,4.8959063860820606e-05,1.0,0.5401286482810974,0.8899999856948853
659,0.0004420409386511892,1.0,0.5387905836105347,0.8899999856948853
660,7.031221321085468e-05,1.0,0.5332662463188171,0.8899999856948853
661,4.643107604351826e-05,1.0,0.5319145917892456,0.8899999856948853
662,2.6635834728949703e-05,1.0,0.5315049290657043,0.8899999856948853
663,0.00023917799990158528,1.0,0.5308452248573303,0.8899999856948853
664,1.302650707657449e-05,1.0,0.5311112403869629,0.8899999856948853
665,4.95284293720033e-05,1.0,0.5311181545257568,0.8899999856948853
666,0.0001698374981060624,1.0,0.5334117412567139,0.8899999856948853
667,0.00016386022616643459,1.0,0.5369538068771362,0.8899999856948853
668,8.101660932879895e-05,1.0,0.5393573045730591,0.8899999856948853
669,2.2190135496202856e-05,1.0,0.5391259789466858,0.8899999856948853
670,5.1415372581686825e-05,1.0,0.538667619228363,0.8899999856948853
671,8.072132186498493e-05,1.0,0.5393385887145996,0.8899999856948853
672,3.438986823312007e-05,1.0,0.5389904379844666,0.8899999856948853
673,0.00016534705355297774,1.0,0.5377281904220581,0.8899999856948853
674,3.9588554500369355e-05,1.0,0.5355979204177856,0.8899999856948853
675,1.5635976524208672e-05,1.0,0.5353946685791016,0.8899999856948853
676,6.118403689470142e-05,1.0,0.5352036356925964,0.8899999856948853
677,1.9909955881303176e-05,1.0,0.5351376533508301,0.8899999856948853
678,5.8615220041247085e-05,1.0,0.535521924495697,0.8999999761581421
679,7.838845340302214e-05,1.0,0.5355578660964966,0.8999999761581421
680,4.934351454721764e-05,1.0,0.535531222820282,0.8999999761581421
681,0.0002200923627242446,1.0,0.5372310876846313,0.8999999761581421
682,1.0467429092386737e-05,1.0,0.5385547876358032,0.8999999761581421
683,0.00013623957056552172,1.0,0.5409092307090759,0.8999999761581421
684,2.345331449760124e-05,1.0,0.54131680727005,0.8999999761581421
685,7.99383815319743e-06,1.0,0.5411975383758545,0.8999999761581421
686,3.159683910780586e-05,1.0,0.5414382219314575,0.8999999761581421
687,0.00015498792345169932,1.0,0.5409442782402039,0.8999999761581421
688,0.00029640275170095265,1.0,0.5406019687652588,0.8999999761581421
689,1.4311483027995564e-05,1.0,0.5399501919746399,0.8999999761581421
690,2.3323362256633118e-05,1.0,0.5403764843940735,0.8999999761581421
691,3.362370625836775e-05,1.0,0.5411304831504822,0.8999999761581421
692,0.00029115218785591424,1.0,0.5448640584945679,0.8999999761581421
693,4.9064430641010404e-05,1.0,0.553591787815094,0.8999999761581421
694,1.807236549211666e-05,1.0,0.5562857985496521,0.8999999761581421
695,0.00022485561203211546,1.0,0.5619721412658691,0.8999999761581421
696,4.329134389990941e-05,1.0,0.563518762588501,0.8999999761581421
697,0.00010501367796678096,1.0,0.5638145804405212,0.8999999761581421
698,0.00020586713799275458,1.0,0.5685595870018005,0.9100000262260437
699,3.18444253935013e-05,1.0,0.5746703147888184,0.9100000262260437
700,9.18418008950539e-05,1.0,0.5757710933685303,0.9100000262260437
701,2.698766729736235e-05,1.0,0.5744556188583374,0.9100000262260437
702,0.00011123930016765371,1.0,0.5711384415626526,0.9100000262260437
703,1.8929791622213088e-05,1.0,0.5684455633163452,0.8999999761581421
704,0.00017460483650211245,1.0,0.5637030005455017,0.8999999761581421
705,1.135028651333414e-05,1.0,0.5603907108306885,0.9100000262260437
706,0.00025650442694313824,1.0,0.5678158402442932,0.9100000262260437
707,0.00021822450798936188,1.0,0.5724796056747437,0.9100000262260437
708,5.3961844969308004e-05,1.0,0.5716906189918518,0.9100000262260437
709,0.00013516272883862257,1.0,0.5654321312904358,0.8999999761581421
710,3.227730849175714e-05,1.0,0.5614308714866638,0.9100000262260437
711,9.32741240831092e-05,1.0,0.5594141483306885,0.9100000262260437
712,2.482119634805713e-05,1.0,0.5587936043739319,0.9100000262260437
713,4.419027391122654e-06,1.0,0.5582125186920166,0.9100000262260437
714,1.8613125575939193e-05,1.0,0.5583212971687317,0.9100000262260437
715,2.6464455004315823e-05,1.0,0.5585107207298279,0.9100000262260437
716,3.607157486840151e-05,1.0,0.5585606098175049,0.9100000262260437
717,0.00024560076417401433,1.0,0.5616853833198547,0.9100000262260437
718,1.9355309632373974e-05,1.0,0.5632337927818298,0.9100000262260437
719,2.053791467915289e-05,1.0,0.5635835528373718,0.9100000262260437
720,0.00010588695295155048,1.0,0.5641075372695923,0.9100000262260437
721,2.5924871806637384e-05,1.0,0.5636904239654541,0.9100000262260437
722,2.404477709205821e-05,1.0,0.5631598830223083,0.9100000262260437
723,5.8752317272592336e-05,1.0,0.5627251267433167,0.9100000262260437
724,9.717212378745899e-05,1.0,0.5604749917984009,0.9100000262260437
725,1.227438133355463e-05,1.0,0.5594764351844788,0.9100000262260437
726,1.4516221199301071e-05,1.0,0.5590230822563171,0.9100000262260437
727,0.0023416997864842415,1.0,0.7474203705787659,0.8899999856948853
728,0.0011722494382411242,1.0,0.8011044263839722,0.8899999856948853
729,0.00024685749667696655,1.0,0.7096320390701294,0.8999999761581421
730,0.00012062436144333333,1.0,0.6704862117767334,0.8999999761581421
731,0.0003516894648782909,1.0,0.6610292792320251,0.8999999761581421
732,3.195501631125808e-05,1.0,0.650463342666626,0.8999999761581421
733,7.144601113395765e-05,1.0,0.6400404572486877,0.8999999761581421
734,0.0003219974460080266,1.0,0.63786780834198,0.9100000262260437
735,7.96432068455033e-05,1.0,0.6376467943191528,0.9100000262260437
736,0.00015599375183228403,1.0,0.6330855488777161,0.9100000262260437
737,2.869558011298068e-05,1.0,0.6301451921463013,0.9100000262260437
738,5.530860653379932e-05,1.0,0.6239532828330994,0.9100000262260437
739,6.018940985086374e-05,1.0,0.6165424585342407,0.9100000262260437
740,2.291236523888074e-05,1.0,0.6088699102401733,0.9100000262260437
741,3.424732858547941e-05,1.0,0.6028057336807251,0.9100000262260437
742,0.0002241510956082493,1.0,0.5975364446640015,0.8999999761581421
743,0.00010156025382457301,1.0,0.5973749160766602,0.8999999761581421
744,6.65475454297848e-05,1.0,0.5924051403999329,0.8999999761581421
745,8.929028990678489e-05,1.0,0.5875227451324463,0.8999999761581421
746,2.3508400772698224e-05,1.0,0.5818665623664856,0.8999999761581421
747,0.00016705543384887278,1.0,0.5795644521713257,0.8999999761581421
748,5.911967673455365e-05,1.0,0.5772274136543274,0.8999999761581421
749,2.746470272541046e-05,1.0,0.5730559825897217,0.8999999761581421
750,3.118734457530081e-05,1.0,0.5708757042884827,0.8999999761581421
751,0.0002090935013256967,1.0,0.5697479844093323,0.8999999761581421
752,0.00011509697651490569,1.0,0.5683465003967285,0.8999999761581421
753,2.050926377705764e-05,1.0,0.5690887570381165,0.8999999761581421
754,6.14714008406736e-05,1.0,0.5694034695625305,0.8999999761581421
755,0.0002405805716989562,1.0,0.5680190920829773,0.8999999761581421
756,0.00026453682221472263,1.0,0.5527305603027344,0.8899999856948853
757,6.235893670236692e-05,1.0,0.5422195196151733,0.8899999856948853
758,2.394411785644479e-05,1.0,0.5407545566558838,0.8899999856948853
759,3.233196912333369e-05,1.0,0.5417806506156921,0.8899999856948853
760,0.0004822629562113434,1.0,0.5412291884422302,0.8899999856948853
761,2.114803828590084e-05,1.0,0.5397325158119202,0.8899999856948853
762,4.576142237056047e-05,1.0,0.5412591695785522,0.8999999761581421
763,2.2583024474442936e-05,1.0,0.5430546402931213,0.8899999856948853
764,8.145286301441956e-06,1.0,0.5447893738746643,0.8899999856948853
765,1.2538508599391207e-05,1.0,0.5469039082527161,0.8899999856948853
766,1.9405653802095912e-05,1.0,0.5473565459251404,0.8899999856948853
767,5.881459583179094e-05,1.0,0.5485007166862488,0.8899999856948853
768,2.8443879273254424e-05,1.0,0.5485604405403137,0.8899999856948853
769,8.778889423410874e-06,1.0,0.5495577454566956,0.8899999856948853
770,9.839839549385943e-06,1.0,0.5511322617530823,0.8899999856948853
771,3.0072873414610513e-05,1.0,0.5529802441596985,0.8899999856948853
772,5.384201358538121e-05,1.0,0.5548154711723328,0.8899999856948853
773,2.1645617380272597e-05,1.0,0.5549929738044739,0.8899999856948853
774,1.0088215276482515e-05,1.0,0.5555429458618164,0.8899999856948853
775,2.912962736445479e-05,1.0,0.5563870072364807,0.8899999856948853
776,0.00011669661762425676,1.0,0.5564654469490051,0.8899999856948853
777,0.00012202744983369485,1.0,0.5545101761817932,0.8899999856948853
778,9.599448276276235e-06,1.0,0.5550601482391357,0.8899999856948853
779,8.486106708005536e-06,1.0,0.5567747950553894,0.8899999856948853
780,6.797090009058593e-06,1.0,0.5587060451507568,0.8899999856948853
781,2.033587770711165e-05,1.0,0.5606504678726196,0.8899999856948853
782,0.0005648739170283079,1.0,0.5609925389289856,0.8899999856948853
783,2.8202855901326984e-05,1.0,0.5577275156974792,0.8999999761581421
784,0.00011178718705195934,1.0,0.5566688179969788,0.8999999761581421
785,2.5881303372443654e-05,1.0,0.5540087819099426,0.8999999761581421
786,1.771825918694958e-05,1.0,0.5528619289398193,0.8999999761581421
787,1.2415694072842598e-05,1.0,0.5531858205795288,0.8999999761581421
788,2.7413540010456927e-05,1.0,0.5528798699378967,0.8999999761581421
789,2.1741883756476454e-05,1.0,0.5531155467033386,0.8999999761581421
790,8.842747774906456e-05,1.0,0.5552043318748474,0.8999999761581421
791,1.5770627214806154e-05,1.0,0.5563089847564697,0.8999999761581421
792,2.5481504053459503e-05,1.0,0.5565698146820068,0.8999999761581421
793,2.1564857888733968e-05,1.0,0.5573046803474426,0.8999999761581421
794,1.2095514648535755e-05,1.0,0.5583678483963013,0.8999999761581421
795,4.423243080964312e-05,1.0,0.5573396682739258,0.8999999761581421
796,0.00036509864730760455,1.0,0.5614752173423767,0.8999999761581421
797,8.421965503657702e-06,1.0,0.567655086517334,0.8999999761581421
798,0.00019937667821068317,1.0,0.5707404613494873,0.8999999761581421
799,2.2298318071989343e-05,1.0,0.5717757940292358,0.8999999761581421
