,loss,recall,val_loss,val_recall
0,0.6526524424552917,0.33482142857142855,0.6577948331832886,0.3125
1,0.6553279161453247,0.33482142857142855,0.6513234972953796,0.3125
2,0.6342032551765442,0.33482142857142855,0.6611664891242981,0.3125
3,0.614771842956543,0.33482142857142855,0.6468011736869812,0.3125
4,0.6171689629554749,0.33482142857142855,0.6434798836708069,0.3125
5,0.6080309748649597,0.33482142857142855,0.6389424204826355,0.3125
6,0.5897983312606812,0.33482142857142855,0.6298364400863647,0.3125
7,0.5743885636329651,0.5592261904761905,0.6199674606323242,0.3110119047619047
8,0.568734347820282,0.5064952904238619,0.6090965867042542,0.30718537414965985
9,0.5633776783943176,0.5431449502878074,0.5983489751815796,0.5383241758241758
10,0.5436626076698303,0.5913003663003663,0.5819424390792847,0.5379632272489415
11,0.5376388430595398,0.6490711669283097,0.5852963328361511,0.6025890775890776
12,0.5160531401634216,0.7588161838161838,0.5937126874923706,0.6770332841761413
13,0.5031458735466003,0.6664704343275771,0.5824018716812134,0.7058080808080808
14,0.5116472840309143,0.7516003837432408,0.5968321561813354,0.7041125541125541
15,0.4839494824409485,0.6925241425241425,0.6016018986701965,0.760343228200371
16,0.47663235664367676,0.6815006422149279,0.6270235776901245,0.6650381364667078
17,0.47317376732826233,0.7849721706864564,0.6149225234985352,0.6312177901463615
18,0.4361511766910553,0.7551829123257694,0.6078498959541321,0.6893707482993197
19,0.4409578740596771,0.7815184815184815,0.6307693123817444,0.6185580292723151
20,0.457069456577301,0.6619547119547119,0.6194720268249512,0.6985466914038342
21,0.42057275772094727,0.7527472527472527,0.634802520275116,0.638888888888889
22,0.45136895775794983,0.7759407259407259,0.6792088747024536,0.5367218099360956
23,0.4569907486438751,0.7283002711574139,0.736989438533783,0.4819906284191999
24,0.47641462087631226,0.6426303854875284,0.6750411987304688,0.5595521541950114
25,0.4153946340084076,0.7949590092447235,0.6621702909469604,0.6185025292168148
26,0.3960740268230438,0.7882783882783883,0.6912617683410645,0.5043868829583115
27,0.42354878783226013,0.7667166167166167,0.6363077759742737,0.6465136054421768
28,0.43010804057121277,0.7406307977736548,0.7451800107955933,0.4880179344465058
29,0.4320739805698395,0.8092918985776129,0.6552931666374207,0.6544655741084312
30,0.4380113482475281,0.7519480519480518,0.621055006980896,0.6907879818594104
31,0.4090797007083893,0.8002164502164503,0.7181888818740845,0.5619832548403976
32,0.41449233889579773,0.776085026085026,0.6805967688560486,0.6413626056483199
33,0.43661144375801086,0.7295910438767581,0.6931738257408142,0.6115864294435722
34,0.41489121317863464,0.7636569779426922,0.7222356200218201,0.488718820861678
35,0.4638323187828064,0.7232933732933733,0.798382580280304,0.4693207586064729
36,0.41941311955451965,0.7073902288188003,0.6200529932975769,0.6839002267573696
37,0.44217485189437866,0.7342609771181199,0.8211456537246704,0.5728806907378335
38,0.45847371220588684,0.7769397269397268,0.8717060685157776,0.43373233908948194
39,0.42771515250205994,0.76869400440829,0.8119755983352661,0.5347985347985348
40,0.4341895878314972,0.6791410969982399,0.9251441955566406,0.43373233908948194
41,0.48267897963523865,0.743040293040293,0.7966533303260803,0.4702844774273346
42,0.42279186844825745,0.642673100708815,0.8144230246543884,0.5215110286538858
43,0.4433461129665375,0.7680272108843537,0.7733820080757141,0.48033395176252325
44,0.4319847524166107,0.783865341008198,0.7313117384910583,0.614935064935065
45,0.43122729659080505,0.7335807050092765,0.7625743746757507,0.47067614924757784
46,0.4123386740684509,0.7705869527298098,0.8045485615730286,0.45898387326958756
47,0.4092878997325897,0.7837391774891774,0.680450975894928,0.6288265306122449
48,0.411008358001709,0.7634690706119277,0.7032967805862427,0.6685013399299115
49,0.4356769919395447,0.7102421388135675,0.7240890264511108,0.5637755102040816
50,0.4211677610874176,0.8300532800532799,0.8747566938400269,0.5139868068439497
51,0.40424400568008423,0.7941558441558441,0.6924967765808105,0.6635378510378509
52,0.41266125440597534,0.8054029304029303,0.8811222910881042,0.5111804861804862
53,0.4361433982849121,0.7824461253032681,0.7205191254615784,0.5956632653061226
54,0.43042469024658203,0.7821892393320964,0.7929553389549255,0.5732600732600732
55,0.44475677609443665,0.8044733044733043,0.6355012655258179,0.6329004329004329
56,0.41703322529792786,0.7475643404214832,0.7664229273796082,0.5708307565450422
57,0.4258398711681366,0.6607162678591251,0.7194985151290894,0.5732323232323233
58,0.448085218667984,0.6991841491841492,0.6473253965377808,0.6216269841269841
59,0.4259391129016876,0.7006493506493506,0.7836107015609741,0.5301805337519623
60,0.41272178292274475,0.8028550814265099,0.5821426510810852,0.6793083900226756
61,0.39715078473091125,0.820241663098806,0.6507623791694641,0.6405818387961245
62,0.3763442933559418,0.8414038342609771,0.7519963383674622,0.5611008039579468
63,0.3617275357246399,0.86000666000666,0.7016611099243164,0.616542980828695
64,0.41285160183906555,0.7902133580705009,0.6221035122871399,0.6686714079571222
65,0.38688865303993225,0.8001700680272109,0.670208752155304,0.6086631622345908
66,0.3896341025829315,0.7334451263022691,0.6362935900688171,0.6364718614718614
67,0.4125659763813019,0.7722222222222221,0.7168174386024475,0.616542980828695
68,0.4169861972332001,0.7206246134817563,0.6336578130722046,0.6330705009276437
69,0.38222622871398926,0.8760239760239761,0.8830379247665405,0.5331567242281527
70,0.41205525398254395,0.7905011655011654,0.6395925879478455,0.6188414759843331
71,0.38332659006118774,0.7997165532879817,0.616425633430481,0.6702020202020202
72,0.3778877854347229,0.8325396825396825,0.6952160596847534,0.6000077303648732
73,0.4122074246406555,0.7934973756402327,0.757718563079834,0.5601364904936333
74,0.39959123730659485,0.7569977641406213,0.5645418167114258,0.6865130900845186
75,0.40861982107162476,0.7794990723562151,0.6625632643699646,0.6261337868480725
76,0.39815855026245117,0.7687229437229437,0.712128221988678,0.6005849309420738
77,0.3741568922996521,0.8187728937728938,0.5936409831047058,0.6673675530818388
78,0.37125644087791443,0.8087198515769944,0.6201731562614441,0.625870954442383
79,0.3606572151184082,0.8035131535131533,0.636707603931427,0.638200886415172
80,0.35481613874435425,0.7812764616336045,0.5888134837150574,0.6388785817357246
81,0.3804527223110199,0.8126984126984126,0.6355745196342468,0.6152133580705009
82,0.42491593956947327,0.7854875283446712,0.6343992948532104,0.6045557616986189
83,0.3959798514842987,0.764450628736343,0.6413331031799316,0.6344774273345701
84,0.3753458559513092,0.8098108240965383,0.5733565092086792,0.6842423449566306
85,0.36255717277526855,0.7643023643023643,0.6147182583808899,0.6179415822272966
86,0.37924328446388245,0.7857967429396,0.5874658226966858,0.7061688311688312
87,0.4567703902721405,0.7722396650968079,0.6367865800857544,0.6393630179344465
88,0.3738459050655365,0.805122655122655,0.7820643186569214,0.5267573696145125
89,0.4098827838897705,0.8000594643451786,0.6504055261611938,0.6499149659863945
90,0.3700229525566101,0.8098021026592456,0.6118691563606262,0.6370387548958977
91,0.3497742712497711,0.8264687693259122,0.6385743021965027,0.617934446505875
92,0.3599075675010681,0.8234765234765234,0.6141216158866882,0.6377055484198342
93,0.34586212038993835,0.7941043083900227,0.6295300126075745,0.6237064522778809
94,0.37008166313171387,0.7625283446712018,0.5987612009048462,0.633704390847248
95,0.3912040591239929,0.8310554524840238,0.5758038759231567,0.6827922077922077
96,0.36181727051734924,0.7589030017601447,0.655245304107666,0.6063672438672439
97,0.3974466621875763,0.736954711954712,0.5963760614395142,0.6561605061605061
98,0.3756036162376404,0.8383116883116883,0.6144075989723206,0.612708719851577
99,0.36917802691459656,0.7947433518862089,0.6467178463935852,0.6542980828695114
100,0.38703879714012146,0.7590909090909089,0.6426035761833191,0.6226963512677798
101,0.40837356448173523,0.7545954045954045,0.5934935212135315,0.6561605061605061
102,0.3109957277774811,0.8550401978973408,0.6608394384384155,0.6129251700680273
103,0.3996211588382721,0.6614488685917258,0.6175059080123901,0.6077303648732221
104,0.3719742000102997,0.7761337868480724,0.6897983551025391,0.5989795918367348
105,0.38874611258506775,0.7613636363636364,0.590055525302887,0.6637497423211709
106,0.3607930839061737,0.8275641025641026,0.7423141598701477,0.6012368583797156
107,0.3960716724395752,0.7540895612324183,0.5927513241767883,0.6693516800659659
108,0.3700017035007477,0.7921356421356421,0.6443639993667603,0.6273629148629148
109,0.34299346804618835,0.818087468087468,0.6495023965835571,0.6180555555555556
110,0.3736438453197479,0.8065965780251494,0.5695971250534058,0.6944721944721943
111,0.3782084882259369,0.8134817563388993,0.6944573521614075,0.6180555555555556
112,0.3718796372413635,0.7808956916099773,0.7066643834114075,0.6228200371057514
113,0.3971862196922302,0.7977058655630084,0.6231746077537537,0.6377087198515768
114,0.35791024565696716,0.8042665667665668,0.6437414884567261,0.6578153988868275
115,0.3773936629295349,0.7619915798487227,0.6548233032226562,0.6378890950319522
116,0.42314597964286804,0.699008927580356,0.6360701322555542,0.6262677798392084
117,0.4035402834415436,0.7848484848484849,0.7058595418930054,0.6012368583797156
118,0.3950660526752472,0.8095186559472273,0.6314942240715027,0.602752009894867
119,0.3344874978065491,0.8416797488226059,0.606147825717926,0.6286178107606679
120,0.3619614243507385,0.7906411049268192,0.6133862137794495,0.6246134817563388
121,0.40988317131996155,0.6552875695732839,0.584945559501648,0.6273809523809524
122,0.42485982179641724,0.7799268192125334,0.5797735452651978,0.7283652855081426
123,0.3733448386192322,0.7951453308596166,0.546105682849884,0.7343989343989344
124,0.370943158864975,0.8676323676323676,0.6420383453369141,0.6176767676767676
125,0.43303439021110535,0.7546049188906331,0.5728487372398376,0.7479104229104229
126,0.39297327399253845,0.8028756957328386,0.5716972351074219,0.701511187225473
127,0.365988552570343,0.8169449598021027,0.579155445098877,0.6460638567781424
128,0.3635372817516327,0.7978021978021977,0.5658833384513855,0.6760616367759225
129,0.3719877302646637,0.8061739847454134,0.5909629464149475,0.6479231086373944
130,0.3913924992084503,0.7566017316017316,0.6142233610153198,0.6637497423211709
131,0.35548195242881775,0.8243970315398886,0.5802587866783142,0.6570140177283034
132,0.3850109875202179,0.7938723974438259,0.5728557705879211,0.6570140177283034
133,0.37676480412483215,0.768073593073593,0.5852910280227661,0.6321345321345321
134,0.4200015068054199,0.7762445887445886,0.6660195589065552,0.5758241758241758
135,0.5070832371711731,0.7821428571428571,0.663620114326477,0.6144819466248037
136,0.5730972290039062,0.7407003710575139,0.6613503694534302,0.6804112554112555
137,0.44988176226615906,0.6997629354772211,0.6517046689987183,0.661896436896437
138,0.3794342577457428,0.8125457875457874,0.732973039150238,0.6873840445269016
139,0.42805618047714233,0.7745879120879121,0.7168869376182556,0.6860544217687075
140,0.43073728680610657,0.7754174397031539,0.7248794436454773,0.6787286126571841
141,0.39883023500442505,0.7562306740878169,0.7161415219306946,0.6043934240362813
142,0.4033513069152832,0.6943389943389944,0.6989010572433472,0.6109126984126984
143,0.39336153864860535,0.8250035678607107,0.6637480854988098,0.6160997732426304
144,0.3723585307598114,0.8235510521224808,0.6796978712081909,0.6305194805194806
145,0.36287254095077515,0.8539460539460538,0.5905295014381409,0.66504329004329
146,0.3772934377193451,0.79247002997003,0.6627345085144043,0.653968253968254
147,0.42442482709884644,0.79220263863121,0.6235352754592896,0.6601989280560707
148,0.34868815541267395,0.8306354359925788,0.6476396918296814,0.630571016285302
149,0.3929104804992676,0.7418456543456544,0.6581258773803711,0.6295815295815296
150,0.3861719071865082,0.7300532800532801,0.6804772019386292,0.6166950113378685
151,0.3810635507106781,0.8103148835291692,0.7067450881004333,0.6342403628117914
152,0.34504225850105286,0.8524412095840667,0.6775223612785339,0.6384250669964955
153,0.3540816307067871,0.8445217480931767,0.7003499269485474,0.5982142857142857
154,0.36707472801208496,0.8318594104308389,0.6693333983421326,0.6271258503401361
155,0.3924514353275299,0.7963282748997035,0.7109338641166687,0.6321067821067821
156,0.3668452203273773,0.7923701298701298,0.694006085395813,0.6158369408369408
157,0.37601253390312195,0.8250035678607107,0.707412838935852,0.6303004535147393
158,0.3820188343524933,0.8180813234384663,0.6771401762962341,0.6576788291074005
159,0.4109433591365814,0.7223522509236796,0.7556915879249573,0.6115897990897992
160,0.3870363235473633,0.8326169861884146,0.6559694409370422,0.6279014636157493
161,0.3599208891391754,0.8416048237476809,0.6650789380073547,0.6745722531436816
162,0.37460142374038696,0.799587912087912,0.6676040887832642,0.6576788291074005
163,0.3909221589565277,0.8111800897515183,0.739776611328125,0.6285714285714287
164,0.4395614266395569,0.6929112554112554,0.6606847643852234,0.6757575757575758
165,0.4348094165325165,0.7434654631083203,0.6603050231933594,0.6596268810554525
166,0.3820708394050598,0.8003686789401074,0.6455245018005371,0.6495387548958977
167,0.3854536712169647,0.8402133580705009,0.5980588793754578,0.6975468975468975
168,0.37787532806396484,0.7661213786213785,0.6036038994789124,0.7103999175427747
169,0.395600289106369,0.7730596784168212,0.6111742258071899,0.6933003504432076
170,0.3839300572872162,0.7976269761984048,0.587806761264801,0.6712037962037962
171,0.3942072093486786,0.7761904761904761,0.574012279510498,0.7238773131630275
172,0.37348780035972595,0.8320425606139893,0.6139979958534241,0.6770047412904556
173,0.3804391324520111,0.7614900972043829,0.6281876564025879,0.6675324675324675
174,0.3683042824268341,0.839280560709132,0.6217433214187622,0.6758574758574758
175,0.3854164481163025,0.7377705627705627,0.6207350492477417,0.6686725972440257
176,0.359730988740921,0.8092403628117915,0.6080990433692932,0.6787795537795537
177,0.3529387414455414,0.8559163059163061,0.6173696517944336,0.6945435516864088
178,0.36353781819343567,0.8487803862803862,0.6296935081481934,0.6654008689722976
179,0.3062535226345062,0.8544449598021027,0.6340811848640442,0.6678067963782249
180,0.3471347689628601,0.8195845820845821,0.6394452452659607,0.6537125572839858
181,0.3656594753265381,0.8075087610801897,0.6039912104606628,0.6735478806907379
182,0.3434774875640869,0.8432147217861504,0.6175599098205566,0.695987345987346
183,0.3784966468811035,0.7910714285714286,0.6360082626342773,0.6632117882117882
184,0.3244044780731201,0.8193800247371675,0.6321017146110535,0.6735478806907379
185,0.34221312403678894,0.8375166500166501,0.6270607709884644,0.6780766852195423
186,0.3787774443626404,0.7955705009276437,0.609048068523407,0.6612102183530756
187,0.3592308461666107,0.8051278086992372,0.6178475618362427,0.6618294404008689
188,0.3464801013469696,0.8175401978973407,0.6341841816902161,0.6743054564483136
189,0.3353462219238281,0.8272092986378701,0.6314286589622498,0.6525220810935097
190,0.33953049778938293,0.8272806558520845,0.6617797613143921,0.6546382189239333
191,0.36622387170791626,0.7882575757575757,0.6358684301376343,0.6743054564483136
192,0.3334304690361023,0.8046616082330368,0.681671679019928,0.6185837971552257
193,0.33426839113235474,0.831060606060606,0.6229607462882996,0.6765068265068265
194,0.3565288186073303,0.8194662480376766,0.6391688585281372,0.6746753246753247
195,0.36376890540122986,0.7902264402264402,0.6291058659553528,0.6741671027385312
196,0.33869725465774536,0.8394851180565466,0.6344780325889587,0.6655392226820798
197,0.3783571422100067,0.726931005502434,0.6463721990585327,0.6580253080253079
198,0.35939955711364746,0.7912337662337662,0.6360915303230286,0.6581168831168832
199,0.3468789756298065,0.8278096903096903,0.6437507271766663,0.6662337662337663
200,0.37661033868789673,0.8312873634302206,0.6438258290290833,0.6744755244755244
201,0.3532445728778839,0.8137188208616779,0.6354913711547852,0.628932178932179
202,0.3452305495738983,0.853937332508761,0.6653565168380737,0.6889610389610389
203,0.3627561926841736,0.8861971361971361,0.6459977030754089,0.6744588744588744
204,0.3247569501399994,0.8329004329004329,0.6679948568344116,0.6311894454751599
205,0.33842727541923523,0.8346938775510203,0.6647240519523621,0.6589259946402803
206,0.35721355676651,0.8316929102643388,0.6537945866584778,0.675798804370233
207,0.338858038187027,0.7828463203463203,0.6786679029464722,0.6279014636157493
208,0.3484276831150055,0.8290285111713683,0.6675316691398621,0.6314265099979386
209,0.33185243606567383,0.828937728937729,0.6739334464073181,0.623260667903525
210,0.32267147302627563,0.84923211708926,0.6488761901855469,0.6460285746000032
211,0.38058599829673767,0.8020451770451771,0.6629598736763,0.6197485054627911
212,0.33586663007736206,0.7665996701710988,0.6466416120529175,0.6659007659007659
213,0.3078901171684265,0.8695966731681016,0.6785848736763,0.6403596403596404
214,0.35567706823349,0.7969758416186987,0.6680036187171936,0.6699154020582592
215,0.35650715231895447,0.8127164502164501,0.6542678475379944,0.6944472194472194
216,0.36238718032836914,0.7699498913784627,0.5953754782676697,0.7108605680034251
217,0.3363240361213684,0.8003659039373324,0.6553393602371216,0.6822716965574109
218,0.36963340640068054,0.7873453927025355,0.6438247561454773,0.6805658627087199
219,0.3545679450035095,0.8334415584415584,0.6664127111434937,0.6496727478870336
220,0.3128642737865448,0.8942830978545265,0.666396975517273,0.6762007833436404
221,0.45031753182411194,0.7960164835164835,0.6838160753250122,0.7058441558441559
222,0.3998818099498749,0.7795866831581116,0.6389034390449524,0.6822427572427572
223,0.35350364446640015,0.8654710368996082,0.6898633241653442,0.6303004535147393
224,0.35823899507522583,0.8556776556776556,0.6733689904212952,0.6224644403215832
225,0.36991748213768005,0.817041292041292,0.6432504653930664,0.6561184846899132
226,0.3244481086730957,0.8248247783962069,0.66624915599823,0.6368377654091939
227,0.3319478929042816,0.8626452912167197,0.6505843997001648,0.6852564102564102
228,0.34192514419555664,0.8510697635697636,0.6638229489326477,0.6381539095824811
229,0.3607165813446045,0.8231276659848088,0.6650449633598328,0.7031516102944675
230,0.3326728940010071,0.8195217480931766,0.6581053733825684,0.6650226757369614
231,0.3303129971027374,0.8002705627705627,0.6510308384895325,0.7037545787545787
232,0.3262852132320404,0.856296877725449,0.6749261021614075,0.6469800041228613
233,0.31984683871269226,0.8621005978148835,0.6584315299987793,0.6809852845567131
234,0.3185552954673767,0.8588693052978768,0.6553067564964294,0.652223173651745
235,0.3385041654109955,0.6864238935667507,0.6235286593437195,0.7024891774891776
236,0.3618168532848358,0.821507659007659,0.7001258730888367,0.6296846011131726
237,0.3295383155345917,0.8290455576169862,0.6660483479499817,0.6851061636775923
238,0.35394978523254395,0.8258669901527044,0.6746736764907837,0.6521645021645021
239,0.35977715253829956,0.8023500309214595,0.6520913243293762,0.6845321345321346
240,0.36850348114967346,0.8522144522144522,0.6518923044204712,0.6940024261452832
241,0.35653916001319885,0.8153009688723973,0.7059303522109985,0.6253865182436611
242,0.34015488624572754,0.851015254586683,0.6577485203742981,0.6557061985633414
243,0.3008389174938202,0.8686725972440258,0.6697969436645508,0.6610968396682682
244,0.3326881229877472,0.8572278911564626,0.6654154062271118,0.6727355977355979
245,0.3513331413269043,0.785805464376893,0.6723068952560425,0.6737342023056309
246,0.34154024720191956,0.7647566718995289,0.6826953887939453,0.6610968396682682
247,0.3137706220149994,0.8570304695304696,0.6810083389282227,0.6562389990961418
248,0.3373611271381378,0.8513898799613087,0.6691871881484985,0.7097485847485847
249,0.3521812856197357,0.8165620094191521,0.6846340894699097,0.6050917336631622
250,0.3268079459667206,0.8116841491841491,0.6619121432304382,0.686013986013986
251,0.3329617977142334,0.9171899529042385,0.6349585652351379,0.7152264402264402
252,0.3552083969116211,0.8275432900432901,0.6403675079345703,0.7131868131868132
253,0.32698768377304077,0.8358974358974358,0.6596360206604004,0.7112934684363257
254,0.30475011467933655,0.8822340358054644,0.6899981498718262,0.6223252937538651
255,0.30792003870010376,0.8357745429174,0.6660701036453247,0.6345624613481756
256,0.31127414107322693,0.8681493110064539,0.6640411019325256,0.6792207792207792
257,0.33330845832824707,0.8185641739213168,0.6670562028884888,0.6231189445475159
258,0.33291786909103394,0.7791676577390864,0.6769024729728699,0.6430632859204287
259,0.29955077171325684,0.8326169861884146,0.6867095828056335,0.6173263244691816
260,0.33365893363952637,0.8119606583892297,0.6631237268447876,0.614859743431172
261,0.3577222228050232,0.8288832199546484,0.6753926277160645,0.6381673881673882
262,0.33838027715682983,0.7144789734075447,0.6692264676094055,0.6610968396682682
263,0.29632940888404846,0.8552360338074624,0.7150479555130005,0.6749226963512678
264,0.35220903158187866,0.8095317381031667,0.6916717886924744,0.6507575757575756
265,0.33408644795417786,0.84496336996337,0.7219825983047485,0.6339466089466089
266,0.3439306616783142,0.8617382617382617,0.6678833365440369,0.6778768850197421
267,0.3246345520019531,0.8236343022057309,0.7208079099655151,0.6342687074829932
268,0.3065400719642639,0.805885384456813,0.712990403175354,0.6506493506493507
269,0.29753923416137695,0.8338780267351696,0.7145906686782837,0.6270871985157699
270,0.2995333969593048,0.8450628736343022,0.6866159439086914,0.6575757575757575
271,0.28480929136276245,0.9020975056689343,0.6848017573356628,0.6417832167832168
272,0.32649025321006775,0.8304653679653679,0.6865180134773254,0.6649453720882292
273,0.3319976031780243,0.8045652759938473,0.6941890120506287,0.6575757575757575
274,0.2780773639678955,0.8565821083678227,0.7040945887565613,0.6427025355596784
275,0.3113601505756378,0.8602272727272727,0.6910822987556458,0.6477974406545834
276,0.31666299700737,0.8374316160030446,0.6991892457008362,0.6482683982683983
277,0.30648860335350037,0.8119650191078762,0.6711992025375366,0.6716366966366966
278,0.2809961438179016,0.831686765615337,0.6721821427345276,0.6482683982683983
279,0.3078165054321289,0.819788148359577,0.6751607060432434,0.6333416583416583
280,0.28248220682144165,0.8631101041815328,0.6641801595687866,0.6705627705627705
281,0.32252785563468933,0.8375000000000001,0.6466785669326782,0.668090243090243
282,0.2758372128009796,0.8910121624407338,0.664929211139679,0.6784961070675356
283,0.32510384917259216,0.8022435897435897,0.6775369644165039,0.6486568986568987
284,0.26153066754341125,0.9019379430093715,0.7060361504554749,0.6645846217274789
285,0.2975316345691681,0.7836159871874157,0.6665757298469543,0.682677639820497
286,0.30619803071022034,0.8687986616558047,0.6605820059776306,0.6610968396682682
287,0.2883915305137634,0.8359136894851181,0.7032409310340881,0.6658627087198515
288,0.31989556550979614,0.8718031968031968,0.6825238466262817,0.6482683982683983
289,0.31559842824935913,0.8770975056689342,0.6595430970191956,0.6472087436373151
290,0.25892600417137146,0.9053942089656376,0.6713722944259644,0.6673326673326674
291,0.31387826800346375,0.8483286554715127,0.6561457514762878,0.6387053422767709
292,0.2840797007083893,0.8777730206301635,0.6933966875076294,0.6292517006802721
293,0.3080383241176605,0.873449764521193,0.6709474921226501,0.6700545486259771
294,0.3364265263080597,0.7656755942470228,0.6707634925842285,0.6794475365903937
295,0.33596938848495483,0.8017857142857144,0.6810812950134277,0.6405380333951763
296,0.30514806509017944,0.8305539698396841,0.6596893072128296,0.6127241805813234
297,0.27816689014434814,0.8641981034838179,0.6828025579452515,0.653133374561946
298,0.3069867789745331,0.838746372674944,0.6632369756698608,0.6548927263212977
299,0.257007896900177,0.9035339660339661,0.6935855746269226,0.6673326673326674
300,0.3264756500720978,0.83941970727685,0.6659532189369202,0.6623646195074766
301,0.28127917647361755,0.8514146567717996,0.6828309893608093,0.6277674706246135
302,0.256785124540329,0.8344449201592059,0.6627727150917053,0.6315101565101565
303,0.27442309260368347,0.8735605664177094,0.6941174268722534,0.6293444650587509
304,0.26855960488319397,0.8478432282003711,0.6862004399299622,0.6683982683982682
305,0.2990836501121521,0.873900702472131,0.684203028678894,0.6423179994608567
306,0.27970364689826965,0.883965637537066,0.7190274000167847,0.6606060606060605
307,0.29794785380363464,0.8188723974438259,0.7184208631515503,0.6520665842094413
308,0.32005518674850464,0.8375148660862947,0.7474173903465271,0.6497448979591837
309,0.28899016976356506,0.8403009688723975,0.7028706669807434,0.640586397729255
310,0.2953135073184967,0.8713161838161838,0.7178706526756287,0.6518037518037518
311,0.25019365549087524,0.8653009688723975,0.686982274055481,0.6462057783486355
312,0.3233802318572998,0.8213282748997035,0.7040871381759644,0.6528963100391671
313,0.27994516491889954,0.8522057307771593,0.6837981343269348,0.6524245595674169
314,0.2889569103717804,0.8680446537589395,0.6622160077095032,0.6829004329004328
315,0.32747358083724976,0.837920016491445,0.6644394993782043,0.6596526489383632
316,0.30978408455848694,0.7999999999999999,0.7035608291625977,0.632519068233354
317,0.3023669421672821,0.8548701298701299,0.6944909691810608,0.6331787260358689
318,0.30069684982299805,0.838835767407196,0.6780608296394348,0.6521890807605093
319,0.30412378907203674,0.7926819212533498,0.7125813364982605,0.6309420737992166
320,0.31688013672828674,0.7935090702947845,0.6885941624641418,0.6457915100772244
321,0.2940463125705719,0.8411084946799233,0.7105017900466919,0.6201710987425273
322,0.3523484170436859,0.7732374768089053,0.7355004549026489,0.5843228200371057
323,0.4134466350078583,0.799827355184498,0.6969939470291138,0.6213151927437642
324,0.3168952763080597,0.8269928484214198,0.7525807023048401,0.6261234796949083
325,0.3073699176311493,0.8395975056689341,0.7328263521194458,0.6198484055626913
326,0.2673777937889099,0.8540467469038899,0.7701777815818787,0.6170068027210884
327,0.31295332312583923,0.8374149659863946,0.7357624173164368,0.6260667903525047
328,0.27867716550827026,0.8657116692830978,0.7489818334579468,0.6248866213151928
329,0.306749552488327,0.8310064935064936,0.7789422273635864,0.5422129457843743
330,0.34194016456604004,0.7495670995670994,0.7677396535873413,0.5748660070088641
331,0.23389825224876404,0.9055024340738625,0.7593892216682434,0.6125489589775304
332,0.26450076699256897,0.8884389420103707,0.709543764591217,0.6293444650587509
333,0.3070427477359772,0.8487092272806559,0.737078070640564,0.5996521335807049
334,0.3134825825691223,0.8261234796949084,0.7825257182121277,0.5362296433725006
335,0.32929787039756775,0.8500911786626072,0.7303533554077148,0.5732600732600732
336,0.3307880759239197,0.8238043702329417,0.7268224358558655,0.5790610183467325
337,0.3069141209125519,0.8505952380952381,0.7158383727073669,0.6288213770356628
338,0.27408960461616516,0.8568681318681319,0.7389920949935913,0.5849458081600938
339,0.30062851309776306,0.8385693671407957,0.703102707862854,0.6562308723023008
340,0.30388501286506653,0.850511988011988,0.6914775967597961,0.7147186147186145
341,0.3386707007884979,0.8339285714285714,0.6533477902412415,0.7003163503163503
342,0.2856995165348053,0.854430490144776,0.6902596354484558,0.7099567099567098
343,0.34244295954704285,0.8744178440607013,0.6736648678779602,0.7036094857523428
344,0.29306915402412415,0.8341487877202163,0.6777858138084412,0.6546865832580118
345,0.29539331793785095,0.8514146567717996,0.6654046177864075,0.6798618048618048
346,0.24934223294258118,0.869642857142857,0.6606345772743225,0.6868262689691261
347,0.30955642461776733,0.850511988011988,0.663960337638855,0.6919675562532707
348,0.2655046880245209,0.8948696145124718,0.6708964705467224,0.70497002997003
349,0.27198079228401184,0.8700527646956219,0.6830448508262634,0.645719954648526
350,0.31071552634239197,0.8527159348587919,0.6944049596786499,0.6302895517181231
351,0.2744486629962921,0.8130163487306344,0.6923364400863647,0.6410121624407338
352,0.30530744791030884,0.8549860853432281,0.690032422542572,0.63518981018981
353,0.2741550803184509,0.8932234432234433,0.698357105255127,0.6374625374625374
354,0.2641468942165375,0.8840429411857984,0.7057899236679077,0.6375850340136054
355,0.2752056419849396,0.86272854129997,0.734345018863678,0.5877164502164501
356,0.25516465306282043,0.8282261389404246,0.7147858738899231,0.6200022200022198
357,0.2777439057826996,0.8490467865467866,0.7066246271133423,0.6244124922696351
358,0.3042460083961487,0.8364334078619793,0.6803349852561951,0.666668648811506
359,0.2753365933895111,0.8680944055944055,0.6842800378799438,0.6483952555381126
360,0.2194988876581192,0.9112048665620095,0.6806409955024719,0.6465946751661037
361,0.3006674349308014,0.843432757718472,0.6795840859413147,0.6654008689722976
362,0.2864508330821991,0.8386054421768707,0.678144633769989,0.6521890807605093
363,0.2556733787059784,0.8557147217861504,0.6831340789794922,0.6602001173429743
364,0.24561218917369843,0.8917233560090703,0.6957924962043762,0.6906070120355834
365,0.23194202780723572,0.9121943532657818,0.6968847513198853,0.6648371469800042
366,0.2502872347831726,0.859698238269667,0.688547670841217,0.6741671027385313
367,0.21711036562919617,0.945870399441828,0.6854715943336487,0.6725377796806369
368,0.245551198720932,0.85532622139765,0.6750761270523071,0.6640962212390784
369,0.2720785439014435,0.8795474366902939,0.6974796056747437,0.6293444650587509
370,0.2922682464122772,0.8423160173160174,0.6814674735069275,0.6488198309626879
371,0.2246943563222885,0.8897693576265004,0.6802891492843628,0.6519417090845663
372,0.2463390976190567,0.8565166975881261,0.6735435724258423,0.6881055452484024
373,0.23434236645698547,0.8857709750566894,0.6796057820320129,0.6364988186416758
374,0.2503645122051239,0.8741823652537937,0.6724938154220581,0.6339466089466088
375,0.26553839445114136,0.8235260770975057,0.6601791977882385,0.6521890807605093
376,0.2729955017566681,0.8563182848897135,0.6791044473648071,0.6431972789115646
377,0.26837217807769775,0.8838806035234607,0.7041597962379456,0.6175633889919604
378,0.22927740216255188,0.9291666666666666,0.6748884320259094,0.6439413760842331
379,0.2868001163005829,0.824512987012987,0.6751604080200195,0.618243661100804
380,0.23542071878910065,0.8780303030303029,0.6492999792098999,0.6815038136466709
381,0.2514818608760834,0.8685606060606059,0.6476526260375977,0.6708874458874459
382,0.22034136950969696,0.8948783359497645,0.637373149394989,0.6866986188414759
383,0.24147860705852509,0.868229984301413,0.6556136012077332,0.6412872841444269
384,0.20606987178325653,0.9392482517482518,0.6543488502502441,0.6425594247022818
385,0.2142218053340912,0.8860492681921254,0.6603197455406189,0.6309523809523808
386,0.22498618066310883,0.8669871794871795,0.6639865636825562,0.6700486021914595
387,0.21258416771888733,0.8952947845804989,0.6566826701164246,0.6722047793476366
388,0.23364616930484772,0.9049159174159175,0.7067943811416626,0.6370232941661513
389,0.36110788583755493,0.7481560106560107,0.7236953377723694,0.5921871779014636
390,0.254895955324173,0.8600383743240887,0.7044209241867065,0.6525161346589918
391,0.2858850061893463,0.8865158650872936,0.7202094197273254,0.604421768707483
392,0.28606826066970825,0.8178571428571428,0.7355283498764038,0.6002473716759431
393,0.2920663356781006,0.8724489795918368,0.7084341645240784,0.6374014874014874
394,0.3055145740509033,0.8693877551020408,0.6730948686599731,0.7045557616986188
395,0.3017134666442871,0.8094928880643166,0.6707237958908081,0.68572459286745
396,0.2762482464313507,0.8466444270015698,0.6804364323616028,0.6786745001030715
397,0.32265153527259827,0.8185064935064935,0.7060715556144714,0.6597505668934242
398,0.3217526972293854,0.8667011559868704,0.6808752417564392,0.6484868306296877
399,0.2542697787284851,0.879220779220779,0.6749545335769653,0.6137755102040815
400,0.2891581654548645,0.8740624454910169,0.7095279693603516,0.642667649810507
401,0.30082330107688904,0.8724878296306867,0.6661643981933594,0.6754741290455576
402,0.28539130091667175,0.8794562580276866,0.6780773401260376,0.6642960214388786
403,0.24986591935157776,0.8791357452071739,0.6571817398071289,0.6425954997383568
404,0.24336758255958557,0.8977411477411478,0.6851659417152405,0.7506410256410255
405,0.23784279823303223,0.8606946624803767,0.6722903251647949,0.6733167626024769
406,0.2257746160030365,0.8688252223966508,0.6848611235618591,0.6568368139796712
407,0.24723108112812042,0.884589220303506,0.6988340020179749,0.6463893249607535
408,0.28433525562286377,0.8442765567765568,0.6912885904312134,0.6785817357245928
409,0.21524767577648163,0.916618698761556,0.6996116042137146,0.6486477807906379
410,0.19320276379585266,0.9538086913086914,0.704468846321106,0.6581271902700474
411,0.26010170578956604,0.858821337392766,0.7054114937782288,0.6634385455814027
412,0.29033762216567993,0.840118215118215,0.720215380191803,0.6634508348794064
413,0.284129798412323,0.8546899529042385,0.694857656955719,0.6464531500245786
414,0.25946205854415894,0.893413134484563,0.674132227897644,0.6641961213389784
415,0.24407050013542175,0.8856088356088355,0.7154354453086853,0.6198309626881056
416,0.23155510425567627,0.8326530612244898,0.7216871976852417,0.6200751629323058
417,0.1948561668395996,0.9416357452071739,0.7070913314819336,0.6582354153782725
418,0.22721382975578308,0.884750566893424,0.7219535112380981,0.6248473748473747
419,0.3246268332004547,0.8417338613767186,0.7216768860816956,0.690249433106576
420,0.3390938341617584,0.8132601525458669,0.699108898639679,0.6549926264211978
421,0.27797022461891174,0.881464368964369,0.7297901511192322,0.6150407132549989
422,0.2883780598640442,0.8425824175824176,0.6808080673217773,0.6241278562707133
423,0.2255038022994995,0.8945134230848516,0.6585081219673157,0.6421530850102278
424,0.26724088191986084,0.8477324263038549,0.6696723103523254,0.6491528312956883
425,0.241328164935112,0.8995595674167104,0.7178732752799988,0.6210039960039959
426,0.1999984234571457,0.8871874157588443,0.7263798713684082,0.6203153988868275
427,0.22017809748649597,0.8767547928262214,0.7013870477676392,0.6508491508491508
428,0.2946924865245819,0.877713358070501,0.7153541445732117,0.6550968872397444
429,0.2575383484363556,0.8396603396603396,0.7493709325790405,0.5883574758574758
430,0.32747870683670044,0.8412545787545788,0.6752058863639832,0.645889428032285
431,0.30131998658180237,0.854402145473574,0.7004612684249878,0.5648613291470435
432,0.3198060691356659,0.8237219130076273,0.6462671160697937,0.7145188145188145
433,0.2615297734737396,0.8418290043290043,0.6647995114326477,0.671095571095571
434,0.23925258219242096,0.8732291518005804,0.6660680174827576,0.6736949558378128
435,0.277942031621933,0.8730477855477855,0.6509407758712769,0.6651701473130045
436,0.27543163299560547,0.8542647828362114,0.6407355666160583,0.647356215213358
437,0.1744776964187622,0.9337620712620713,0.6444874405860901,0.6641961213389784
438,0.25316062569618225,0.8514800675514962,0.6508801579475403,0.656728588871446
439,0.20028157532215118,0.8925824175824176,0.6664090752601624,0.632312925170068
440,0.2272392362356186,0.8893685679399965,0.6752457618713379,0.6718801040229613
441,0.24472083151340485,0.8544562580276865,0.7060853242874146,0.6411358482787054
442,0.2633724808692932,0.8706039991754276,0.7115168571472168,0.645889428032285
443,0.2413780689239502,0.8180839002267574,0.7906762361526489,0.6194238301381159
444,0.26042768359184265,0.8744701726844585,0.728706955909729,0.5945861678004535
445,0.22996631264686584,0.8609515484515484,0.6990699768066406,0.6410327767470624
446,0.23648007214069366,0.860635396349682,0.6671901345252991,0.6773056308770594
447,0.20120473206043243,0.9445578231292516,0.6855860352516174,0.6586909122623409
448,0.22269514203071594,0.914795918367347,0.6843866109848022,0.6375790875790875
449,0.20856942236423492,0.9016003837432408,0.6606213450431824,0.7094258915687488
450,0.2558154761791229,0.8543367346938775,0.6922076940536499,0.649156795585367
451,0.23307816684246063,0.8895299145299145,0.7226982712745667,0.64568130282416
452,0.2526254653930664,0.8127895913610199,0.7544746994972229,0.6429962894248609
453,0.27918341755867004,0.82574568288854,0.6934963464736938,0.6571511821511821
454,0.18605218827724457,0.9371315192743764,0.6798019409179688,0.6517399267399266
455,0.22937491536140442,0.8678178963893249,0.6997054219245911,0.6462493855350998
456,0.2442212551832199,0.8883219954648526,0.6941443681716919,0.6533736105164677
457,0.2105133831501007,0.9155895691609978,0.7294883728027344,0.6829828901257473
458,0.2157173901796341,0.8909013605442178,0.6802554726600647,0.6460143031571602
459,0.2781306803226471,0.7650444793301937,0.6777215600013733,0.6754182325610897
460,0.25266653299331665,0.8767857142857143,0.7296085357666016,0.6617172510029653
461,0.23191304504871368,0.8560064935064935,0.6767231822013855,0.6343537414965985
462,0.24084512889385223,0.8820578231292517,0.680351197719574,0.6773809523809523
463,0.22610393166542053,0.9163522984951555,0.6939936876296997,0.6543476364904937
464,0.25979265570640564,0.9120181405895692,0.7028136253356934,0.661715268858126
465,0.2076103240251541,0.9191387977102262,0.7028308510780334,0.6718801040229613
466,0.21145305037498474,0.8872623408337693,0.6946777701377869,0.6922180993609565
467,0.2525841295719147,0.8791666666666665,0.6979231834411621,0.6608958501815645
468,0.21623803675174713,0.8857600732600732,0.6669901013374329,0.656728588871446
469,0.1961228847503662,0.935666317809175,0.6642872095108032,0.6805761698618841
470,0.20312698185443878,0.8646206967635539,0.6699628233909607,0.6650084042941186
471,0.22170694172382355,0.8551587301587301,0.702083170413971,0.6402783724212295
472,0.19073329865932465,0.9121315192743763,0.7053780555725098,0.6835497835497836
473,0.2111787050962448,0.8554465375893947,0.7214182615280151,0.6680839002267573
474,0.1988638937473297,0.9058150183150183,0.6998081803321838,0.6689766582623725
475,0.2030051201581955,0.9017660910518054,0.7223132848739624,0.6508360686932116
476,0.2768923342227936,0.853756957328386,0.6753082275390625,0.6438323581180724
477,0.23904918134212494,0.8787458573172858,0.6699353456497192,0.6603083424511996
478,0.2644585072994232,0.8721913007627293,0.6719868779182434,0.6884135705564276
479,0.22837671637535095,0.8500457875457875,0.6779560446739197,0.677568463282749
480,0.16943641006946564,0.8864177489177489,0.6598002314567566,0.6884135705564276
481,0.23650766909122467,0.8457605886177316,0.6825076341629028,0.6514945372088228
482,0.20126667618751526,0.9096320346320346,0.7630935907363892,0.6395794681508967
483,0.17904727160930634,0.92267316017316,0.6972091794013977,0.6441887477601763
484,0.17402325570583344,0.9136904761904762,0.6663429141044617,0.6874478695907266
485,0.22517143189907074,0.916618698761556,0.7078269720077515,0.6515987980273694
486,0.17493584752082825,0.9309044130472702,0.7435537576675415,0.6640982033839177
487,0.1734229475259781,0.95006105006105,0.6980698704719543,0.6557648700505843
488,0.18372872471809387,0.9166186987615558,0.6901295781135559,0.6804279054279055
489,0.23674693703651428,0.8137816548530834,0.7539224624633789,0.6511595547309833
490,0.22307200729846954,0.8726731601731601,0.7185006737709045,0.6804679447536589
491,0.3599664866924286,0.8425685425685426,0.6723757982254028,0.6862407433836005
492,0.27513235807418823,0.899685631828489,0.6366024613380432,0.6971861471861472
493,0.2755343019962311,0.8706127206127207,0.6530207395553589,0.6810257203114346
494,0.22452810406684875,0.8478354978354978,0.6377807259559631,0.6862407433836005
495,0.19252093136310577,0.9409863945578232,0.633446991443634,0.6771193092621663
496,0.2326994240283966,0.8529761904761904,0.691463053226471,0.6801052122480693
497,0.3130172789096832,0.8444222444222443,0.6710841059684753,0.6891108891108891
498,0.29087090492248535,0.8675685425685425,0.6842395663261414,0.7031635031635031
499,0.23135730624198914,0.8803262213976499,0.6473565697669983,0.6600601779173207
500,0.2324223816394806,0.9005643166357452,0.6372090578079224,0.6984551163122592
501,0.2253633588552475,0.8391981034838176,0.6936822533607483,0.6507226900084042
502,0.2096945196390152,0.9099489795918367,0.6939438581466675,0.6445907267335839
503,0.24888141453266144,0.8773613291470433,0.6491594314575195,0.6729984301412874
504,0.25605231523513794,0.8381493506493507,0.6378642320632935,0.6875707625707624
505,0.20082460343837738,0.935354526425955,0.6373100876808167,0.6422624994053565
506,0.18102076649665833,0.9337061747776033,0.6849018931388855,0.6578005328005327
507,0.20251134037971497,0.8905743066457352,0.6588160395622253,0.6796834118262689
508,0.1948162168264389,0.8963702963702964,0.6826419830322266,0.6848377812663528
509,0.19367407262325287,0.9161796536796537,0.6672151684761047,0.6996420246420246
510,0.1761888712644577,0.9139259549973836,0.6527117490768433,0.7063436563436564
511,0.20023028552532196,0.892497383568812,0.6564688086509705,0.7258360686932116
512,0.21678520739078522,0.8844183594183593,0.7075111269950867,0.6631241774098917
513,0.16893219947814941,0.8972069597069596,0.7401460409164429,0.6245290423861852
514,0.18161652982234955,0.9210688121402407,0.6997992396354675,0.673449962735677
515,0.20665660500526428,0.9200174825174825,0.7087993025779724,0.6873170480313338
516,0.18498435616493225,0.9193001443001442,0.737913966178894,0.6651701473130045
517,0.15883834660053253,0.925907029478458,0.7126745581626892,0.6597672169100741
518,0.12948910892009735,0.958843537414966,0.7055181860923767,0.6568368139796712
519,0.254141628742218,0.8517617303331589,0.7307160496711731,0.6935001506430079
520,0.2177734524011612,0.9096742543171115,0.724236011505127,0.6975211296639868
521,0.23967598378658295,0.8794021454735741,0.7902084589004517,0.630913134484563
522,0.201711505651474,0.8851535369392513,0.7562273740768433,0.6647764933479218
523,0.20051634311676025,0.9163832199546486,0.7344301342964172,0.6675510996939568
524,0.15300655364990234,0.9562728937728938,0.7149933576583862,0.6641961213389784
525,0.20514404773712158,0.8701901273329844,0.7553600072860718,0.6573779395207967
526,0.2322395294904709,0.896999825571254,0.7598362565040588,0.6796949082663369
527,0.21615955233573914,0.9206127206127206,0.768222987651825,0.6913729128014843
528,0.1823798567056656,0.9154761904761904,0.7602440118789673,0.6782570603999175
529,0.16861894726753235,0.8669039294039295,0.7495208382606506,0.6887652030509173
530,0.18726859986782074,0.9106096284667713,0.6913303732872009,0.6535797535797536
531,0.20624186098575592,0.9084245119959407,0.7936063408851624,0.661715268858126
532,0.21014373004436493,0.8785208838780267,0.7102848291397095,0.6349115170543742
533,0.18961116671562195,0.8683760683760683,0.6938930749893188,0.7392627214055786
534,0.16323931515216827,0.9177721088435374,0.6883062124252319,0.6909205873491587
535,0.18994168937206268,0.931547619047619,0.6936802268028259,0.6981704803133375
536,0.20047883689403534,0.9071995464852608,0.7269999384880066,0.7063182848897134
537,0.30207034945487976,0.8641192141192141,0.8530512452125549,0.5497835497835498
538,0.28495079278945923,0.8416702345273774,0.7585920691490173,0.6417027417027417
539,0.4416339099407196,0.7676819212533498,0.7462114095687866,0.6936147186147185
540,0.32715436816215515,0.8589826839826838,0.6902039647102356,0.7146516182230468
541,0.35179227590560913,0.7609075448361162,0.6222726702690125,0.7324045002616432
542,0.24780604243278503,0.8829055864770152,0.6442435383796692,0.7379663986806843
543,0.24185727536678314,0.8681096681096682,0.6250333189964294,0.6679312750741323
544,0.23732443153858185,0.8435322613894043,0.7148832082748413,0.7028511171368315
545,0.26395925879478455,0.8394361590790161,0.7104372978210449,0.6897558790415933
546,0.2384825050830841,0.9021603396603396,0.6576803922653198,0.684767216910074
547,0.19235458970069885,0.8884585652442796,0.6413578391075134,0.728308596165739
548,0.18419888615608215,0.8984384662956091,0.6458689570426941,0.6596486846486845
549,0.1827157884836197,0.9171201814058956,0.6680325865745544,0.6802578374006946
550,0.17535391449928284,0.8986961451247166,0.6632214188575745,0.6697136197136198
551,0.159017413854599,0.9345238095238094,0.6900292634963989,0.6908638980067552
552,0.15341217815876007,0.8954906204906204,0.675413191318512,0.6789373325087611
553,0.19211336970329285,0.8967490842490842,0.7437002062797546,0.6736303379160521
554,0.2106034755706787,0.9332482993197279,0.8057517409324646,0.685081585081585
555,0.2135184109210968,0.9067717996289425,0.7463839650154114,0.6789064110492681
556,0.16111312806606293,0.9435976721691007,0.7055798768997192,0.6816183816183816
557,0.1791495382785797,0.9409013605442177,0.8320072889328003,0.6758786848072562
558,0.19671890139579773,0.8939625850340136,0.8341196775436401,0.6715070643642072
559,0.15614847838878632,0.9452922077922078,0.793095588684082,0.6723780188065902
560,0.18183757364749908,0.8847680097680097,0.7728108167648315,0.6719819862677004
561,0.15798445045948029,0.9240140811569383,0.856380045413971,0.5932385075242218
562,0.22333984076976776,0.8865079365079364,0.7990798950195312,0.6284683570397857
563,0.24111308157444,0.8714852607709751,0.9313724637031555,0.37387374530231676
564,0.18116755783557892,0.9536848072562358,0.744037926197052,0.6808189826046969
565,0.1717061847448349,0.908653846153846,0.7217585444450378,0.6625457875457875
566,0.23522505164146423,0.9213326356183499,0.7535786628723145,0.6830833848690991
567,0.20010621845722198,0.9009353741496599,0.7968111634254456,0.6530509173366317
568,0.1930529624223709,0.8848443223443224,0.7835167050361633,0.6913065109493681
569,0.1495300531387329,0.910034013605442,0.7281303405761719,0.6574346288632003
570,0.1355903297662735,0.9512987012987012,0.809901237487793,0.6724212295640868
571,0.1890689879655838,0.900595238095238,0.8557311296463013,0.6599115170543742
572,0.16579826176166534,0.904402145473574,0.7878252863883972,0.6510112902970046
573,0.2524641156196594,0.8626700680272109,0.8403015732765198,0.6829170829170829
574,0.23564985394477844,0.8745181405895691,0.9115842580795288,0.5392000856286571
575,0.17442123591899872,0.9657029478458049,0.7561529874801636,0.7317848817848818
576,0.1607874184846878,0.9610347985347986,0.8040310144424438,0.6784760874046588
577,0.17311711609363556,0.9389259549973836,0.8015580773353577,0.689589775304061
578,0.1432073563337326,0.9791666666666666,0.7983250617980957,0.6647764933479218
579,0.18898248672485352,0.922077922077922,0.7786099314689636,0.6688105545248402
580,0.35842132568359375,0.884577922077922,0.8300957679748535,0.6803351410494266
581,0.27819469571113586,0.8831864564007421,0.8676580786705017,0.6599773242630386
582,0.34736377000808716,0.7994668030382315,0.7298860549926758,0.6744941566370138
583,0.3416387438774109,0.8455163883735313,0.8416091203689575,0.6376004947433519
584,0.36847230792045593,0.7915336647479504,0.7707847952842712,0.6477819799248372
585,0.32428649067878723,0.8590367965367964,0.7830130457878113,0.6823501894930466
586,0.31273573637008667,0.8024102881245738,0.8394745588302612,0.5051936159079016
587,0.238462433218956,0.8496315192743763,0.8018402457237244,0.5082013224870369
588,0.2137758880853653,0.8916666666666666,0.781398355960846,0.6573779395207967
589,0.17298755049705505,0.9463435374149659,0.7280610203742981,0.6587210408638979
590,0.1812320053577423,0.9003349824778396,0.7411101460456848,0.6729623551052123
591,0.21523264050483704,0.8637136672850957,0.7724670767784119,0.6492979242979243
592,0.15249691903591156,0.9562728937728938,0.760250449180603,0.652418216703931
593,0.23161223530769348,0.8842094413522984,0.7529422044754028,0.643956043956044
594,0.1540781408548355,0.9238945578231291,0.7338411211967468,0.6463833785262355
595,0.19490374624729156,0.8821428571428571,0.7504430413246155,0.6030869923727067
596,0.1947539895772934,0.8659340659340659,0.6971302628517151,0.684074259074259
597,0.14763247966766357,0.9341313448456304,0.763285756111145,0.630960705960706
598,0.18237090110778809,0.9011682761682762,0.7389605641365051,0.6753080253080253
599,0.15850429236888885,0.937329931972789,0.7517244219779968,0.6325305646734218
600,0.1710275113582611,0.9095041862899006,0.78826904296875,0.6549434692291836
601,0.17181244492530823,0.9252525252525253,0.7833306193351746,0.6722777222777222
602,0.14378271996974945,0.944368131868132,0.7919073104858398,0.6320512820512819
603,0.14756694436073303,0.9094387755102041,0.7944212555885315,0.6543476364904937
604,0.17805396020412445,0.9265109890109889,0.717100977897644,0.6770832342260914
605,0.25179094076156616,0.8705988455988456,0.776929497718811,0.6730725623582766
606,0.21438780426979065,0.898155019583591,0.7245941758155823,0.668165168165168
607,0.16986560821533203,0.9217944753659039,0.7739094495773315,0.7270265448836878
608,0.16751910746097565,0.9041666666666667,0.7755680084228516,0.6637097029954173
609,0.16894228756427765,0.9517617303331589,0.8105712532997131,0.6665378272521129
610,0.17542771995067596,0.9031436817151103,0.6869980692863464,0.6587951730808873
611,0.15708661079406738,0.8806776556776557,0.7107388377189636,0.7174991674991675
612,0.17069676518440247,0.9392290249433106,0.7765458822250366,0.6652700474129045
613,0.20924754440784454,0.8915707308564451,0.7461292147636414,0.6338911088911089
614,0.11118722707033157,0.994047619047619,0.7440555691719055,0.6496507460793175
615,0.15361182391643524,0.9256606488749346,0.8190826177597046,0.6362353915925344
616,0.15826694667339325,0.9273809523809523,0.8007397055625916,0.712449851735566
617,0.17392244935035706,0.9360801896516183,0.8212082982063293,0.6626274519131662
618,0.16901804506778717,0.909438775510204,0.7817980051040649,0.6603083424511996
619,0.2202313393354416,0.8898809523809523,0.7308177351951599,0.6904627118912833
620,0.19670459628105164,0.9006493506493507,0.7875089049339294,0.6631241774098917
621,0.1849696785211563,0.9545936206650492,0.7907174229621887,0.650736961451247
622,0.19442477822303772,0.9072562358276645,0.7622519731521606,0.6766047444618872
623,0.16849330067634583,0.9396062271062272,0.6977190971374512,0.6952547452547453
624,0.1900477558374405,0.8994047619047618,0.7030348777770996,0.6804279054279055
625,0.15921832621097565,0.9584314495028782,0.7529111504554749,0.6963867481724624
626,0.15324623882770538,0.9374149659863945,0.8015663027763367,0.6522747094175665
627,0.18326504528522491,0.8984497645211932,0.7119935154914856,0.7637445887445887
628,0.2294992208480835,0.8903096903096903,0.7414159774780273,0.6585065727922872
629,0.21687981486320496,0.8975659261373546,0.9226506352424622,0.4406926406926407
630,0.15802249312400818,0.9339285714285713,0.8734965920448303,0.4349642421070992
631,0.2130948305130005,0.9220608756323042,0.7381643652915955,0.6783922426779568
632,0.3082926571369171,0.838373531230674,0.7288414239883423,0.6718801040229613
633,0.16794690489768982,0.9245722531436816,0.733566164970398,0.6877681841967556
634,0.2707184851169586,0.8532828282828283,0.7834233641624451,0.6892044463473034
635,0.2013547122478485,0.9208394779823352,0.8363221883773804,0.7053494124922697
636,0.16924810409545898,0.909494671994672,0.894718587398529,0.5819644641073213
637,0.18927808105945587,0.8939316635745207,0.8286440968513489,0.6853761318047031
638,0.17073798179626465,0.9147043432757719,0.7494717836380005,0.7063955885384458
639,0.12394518405199051,0.9430926216640502,0.7804331183433533,0.701708608851466
640,0.14368151128292084,0.8892857142857142,0.8488736748695374,0.664625850340136
641,0.15552343428134918,0.92267316017316,0.7785322070121765,0.6900924472353044
642,0.17500002682209015,0.9246031746031745,0.7914886474609375,0.6679923251351824
643,0.12743380665779114,0.9558150183150182,0.7337787747383118,0.6639879961308532
644,0.17666256427764893,0.9113465899180184,0.7739794850349426,0.6822161965019108
645,0.13317492604255676,0.9761054421768708,0.8373888731002808,0.6731974374831518
646,0.16903741657733917,0.9137445887445886,0.7387288212776184,0.7247641247641248
647,0.14260205626487732,0.9532570603999176,0.7884378433227539,0.6519654948226377
648,0.18241621553897858,0.9235889110889112,0.9327789545059204,0.4130837416551702
649,0.20589634776115417,0.8833874458874459,0.8857823014259338,0.4076376004947434
650,0.15822318196296692,0.9404761904761905,0.9123348593711853,0.5135780885780886
651,0.1801241934299469,0.9359668109668109,0.8643021583557129,0.5133219954648526
652,0.18440580368041992,0.9319291819291821,0.8744674921035767,0.5502834467120181
653,0.16949331760406494,0.9307840968555254,0.8443674445152283,0.6514352710781283
654,0.1859084516763687,0.9073783359497645,0.8414316177368164,0.6027417027417028
655,0.15240725874900818,0.9082457225314367,0.902564525604248,0.666206610849468
656,0.15429551899433136,0.8687641723356008,0.7876740097999573,0.6685231435231435
657,0.21134795248508453,0.8866300366300365,0.856740415096283,0.7181881610453039
658,0.1430300921201706,0.9517006802721089,0.9089646339416504,0.5444051979766266
659,0.15800686180591583,0.924980376766091,0.8439235687255859,0.6663689485118056
660,0.12477844953536987,0.9532967032967034,0.8043118715286255,0.6947433518862091
661,0.16498151421546936,0.9256493506493506,0.8228882551193237,0.6254483611626469
662,0.20770499110221863,0.9243197278911565,0.8170157670974731,0.6718801040229613
663,0.15964113175868988,0.9446660482374768,0.7496800422668457,0.7148906648906649
664,0.1547548621892929,0.9334467120181407,0.7707949876785278,0.739141414141414
665,0.12950196862220764,0.9214285714285715,0.7714877128601074,0.6860762253619396
666,0.14283734560012817,0.884577922077922,0.8082032203674316,0.6860762253619396
667,0.14551720023155212,0.904402145473574,0.8411377668380737,0.7092403628117914
668,0.11190494149923325,0.96984126984127,0.7498659491539001,0.6666317809174951
669,0.14107733964920044,0.9374149659863945,0.7548965215682983,0.6593711843711844
670,0.15251581370830536,0.927106227106227,0.7533802390098572,0.6857876250733393
671,0.169266939163208,0.8744588744588745,0.7910233736038208,0.6671265242693813
672,0.10487373173236847,0.9529761904761905,0.7795887589454651,0.6479139907711337
673,0.15925633907318115,0.8551365301365301,0.7767710089683533,0.716295609152752
674,0.15174970030784607,0.954090354090354,0.8274041414260864,0.716295609152752
675,0.13454227149486542,0.9466030001744288,0.7361657023429871,0.729844361987219
676,0.16461968421936035,0.9249999999999999,0.7550111413002014,0.6727542298970871
677,0.16089972853660583,0.9042207792207791,0.7879048585891724,0.683406672692387
678,0.12737663090229034,0.964383830455259,0.7532828450202942,0.6802360338074624
679,0.12713946402072906,0.9511904761904761,0.7226899862289429,0.6598671170099742
680,0.16376356780529022,0.92636926565498,0.7674611806869507,0.6696053946053946
681,0.21208105981349945,0.8976648351648351,0.8706431984901428,0.6476963512677798
682,0.13354799151420593,0.9325680272108843,0.7616339325904846,0.6815668458525602
683,0.18929946422576904,0.938788592360021,0.8408375978469849,0.6685231435231435
684,0.17195375263690948,0.9320054945054944,0.9507216215133667,0.4302721088435374
685,0.16020865738391876,0.9381493506493506,0.8814096450805664,0.6502596609739467
686,0.1248595342040062,0.9511054421768707,0.8122528791427612,0.677699284842142
687,0.18121491372585297,0.9018939393939395,0.7868620753288269,0.6823779395207966
688,0.12080391496419907,0.9412432805289949,0.8637085556983948,0.6680922252350824
689,0.11196428537368774,0.9433106575963718,0.8749457001686096,0.6745322138179282
690,0.11836040765047073,0.9410714285714284,0.8155097961425781,0.6384777920492206
691,0.14413772523403168,0.9116841491841491,0.8530622720718384,0.6535210820925107
692,0.1560923159122467,0.972854526425955,0.8903589844703674,0.6700505843362986
693,0.20950749516487122,0.8627568859711717,0.8475600481033325,0.5988713667285096
694,0.16759753227233887,0.8996925693354264,0.7882458567619324,0.682299446585161
695,0.24020527303218842,0.852899877899878,0.8966067433357239,0.6930942073799217
696,0.266636461019516,0.8803375196232339,0.7583560347557068,0.6990961419532847
697,0.17047664523124695,0.9043290043290043,0.7343233823776245,0.7483766233766234
698,0.16823318600654602,0.9010221920936206,0.8433038592338562,0.6884250669964956
699,0.17822350561618805,0.9145408163265306,0.9143280386924744,0.6618698761555903
700,0.2585431933403015,0.848992673992674,0.7655670046806335,0.6774975024975026
701,0.22477208077907562,0.8623273551844982,0.8465287089347839,0.671165739022882
702,0.31490960717201233,0.8512816548530834,0.9671599268913269,0.5736806843949702
703,0.139851376414299,0.8938775510204081,0.8877118229866028,0.5976602762317048
704,0.21808815002441406,0.8939342403628119,0.8229262232780457,0.6698412698412698
705,0.16653501987457275,0.8747990105132963,0.8665727972984314,0.6100907029478458
706,0.1377602517604828,0.9648809523809524,0.9128279089927673,0.5575396825396826
707,0.13717691600322723,0.922982374768089,0.9880834221839905,0.38792517006802724
708,0.11620171368122101,0.9349816849816851,0.9283296465873718,0.5916305916305917
709,0.11934786289930344,0.9309214594928881,0.8308483958244324,0.6575963718820862
710,0.1732155829668045,0.9614770150484436,0.9113401770591736,0.604875283446712
711,0.18044929206371307,0.9396585557299842,0.8577681183815002,0.6522856112141826
712,0.1589420884847641,0.9164442700156987,0.8170384764671326,0.6728664192949907
713,0.09850132465362549,0.9498626373626374,0.7475743293762207,0.6757762079190651
714,0.1746322363615036,0.927891156462585,0.7258049845695496,0.7177425748854319
715,0.18120177090168,0.9113327149041434,0.8653621673583984,0.676530612244898
716,0.19899271428585052,0.9481292517006803,0.8464723229408264,0.6502679859822716
717,0.18973584473133087,0.8863636363636364,0.9130897521972656,0.6840637537066109
718,0.2296987920999527,0.9190166975881261,0.9438623785972595,0.6691641691641692
719,0.22688567638397217,0.889998691784406,0.8995599150657654,0.6811874633303204
720,0.18591555953025818,0.9042207792207791,0.9886004328727722,0.5513486513486513
721,0.21901991963386536,0.9051365301365301,0.8709961771965027,0.51996336996337
722,0.15917561948299408,0.9332482993197279,0.9095245003700256,0.40924908424908424
723,0.23834681510925293,0.8833943833943833,0.9885250329971313,0.4416666666666666
724,0.14843781292438507,0.9570578231292517,0.8910825848579407,0.6117965367965369
725,0.15132664144039154,0.9606292517006804,0.7488322257995605,0.6798970870399442
726,0.16704154014587402,0.9267547928262214,0.7549548149108887,0.6537498216069645
727,0.1844906061887741,0.8910474446188733,0.8794483542442322,0.603617810760668
728,0.23172101378440857,0.8714896214896214,0.7936685681343079,0.6607606679035251
729,0.2797399163246155,0.8366135848278705,0.7701731324195862,0.7406617192331478
730,0.18983200192451477,0.8614795918367346,0.7900732159614563,0.6811874633303204
731,0.11900240182876587,0.9396585557299842,0.9565736055374146,0.6146980004122861
732,0.16438427567481995,0.9090677179962894,0.9008455872535706,0.6069057926200784
733,0.144809752702713,0.9511054421768707,0.7889164090156555,0.6615297401011687
734,0.1878690868616104,0.92267316017316,0.7775214314460754,0.6944658516087087
735,0.1534358412027359,0.9074829931972789,0.909856915473938,0.6350732600732601
736,0.16953231394290924,0.8758866133866133,0.9765640497207642,0.44527060241345956
737,0.1780533343553543,0.8973922902494331,0.8837751746177673,0.5654968047825191
738,0.10941358655691147,0.9706959706959707,0.7884182333946228,0.6797575440432583
739,0.24589398503303528,0.9019557823129251,0.7651827931404114,0.6963369963369964
740,0.2813931703567505,0.8505102040816326,0.8098317384719849,0.6231163677592247
741,0.205812007188797,0.909981684981685,0.7624905705451965,0.6979308390022675
742,0.23738667368888855,0.8914399092970522,0.7822138667106628,0.6334728763300193
743,0.1911987066268921,0.8856768231768231,0.7679673433303833,0.6997502497502497
744,0.1526656150817871,0.9714285714285714,0.841800332069397,0.689781646924504
745,0.16369584202766418,0.9251133786848074,0.883728563785553,0.6714117231974376
746,0.15723338723182678,0.9363636363636364,0.7977789640426636,0.6561605061605061
747,0.21904949843883514,0.9070054945054944,0.8980672955513,0.6023809523809524
748,0.17504218220710754,0.8946119356833642,1.0630831718444824,0.4138980067551496
749,0.28966647386550903,0.7969928880643167,1.0080475807189941,0.44841269841269843
750,0.201982781291008,0.9087585034013606,0.9011427164077759,0.6654478458049887
751,0.19426004588603973,0.940391156462585,0.8255683779716492,0.6811874633303204
752,0.15709970891475677,0.9055024340738625,0.8528948426246643,0.7175633889919604
753,0.1903243064880371,0.9136904761904762,0.8273715376853943,0.6501042608185464
754,0.13201002776622772,0.9113465899180184,0.8173677325248718,0.6653846153846154
755,0.12104745209217072,0.9503205128205128,0.8118335008621216,0.6822736787022501
756,0.13722437620162964,0.9322562358276644,0.8056273460388184,0.6710226281654853
757,0.12864084541797638,0.9328558346415489,0.8969452977180481,0.5955679241393527
758,0.12665042281150818,0.9396585557299844,0.8880100250244141,0.5684781488352917
759,0.13396503031253815,0.9049363335077621,0.8438823819160461,0.6387612387612388
760,0.15003155171871185,0.9261054421768707,0.8512600064277649,0.6646940361226076
761,0.12218684703111649,0.9702380952380951,0.8711100220680237,0.6783922426779568
762,0.1335146129131317,0.9018511250654108,0.9326435923576355,0.6204545454545455
763,0.17152845859527588,0.903486394557823,0.8254597783088684,0.6736239950525665
764,0.15589867532253265,0.9279565672422816,0.7819362878799438,0.7077573220430363
765,0.1184551864862442,0.9612244897959183,0.8307008743286133,0.6714491857349001
766,0.15057942271232605,0.9520975056689343,0.8609182238578796,0.6698593073593074
767,0.15697741508483887,0.9164115646258503,0.8394948244094849,0.667934446505875
768,0.14810584485530853,0.9206959706959706,0.800634503364563,0.6711308532737105
769,0.1019202470779419,0.9695578231292518,0.8380952477455139,0.6683530754959327
770,0.1950814574956894,0.9041074005359719,0.8106021285057068,0.6773849166706309
771,0.1927480399608612,0.9055926216640503,0.8493142127990723,0.6634817563388992
772,0.17796660959720612,0.9094387755102041,0.8776482343673706,0.6395858110143824
773,0.11631051450967789,0.9556689342403628,0.8500838875770569,0.6493589743589744
774,0.13506785035133362,0.9354395604395603,0.9232383966445923,0.6209750566893424
775,0.15514591336250305,0.9433673469387756,0.8904882073402405,0.6282530961102389
776,0.14172343909740448,0.9316017316017315,0.8172038793563843,0.6155534941249227
777,0.13301631808280945,0.9345238095238094,0.818001925945282,0.7075527646956219
778,0.12910473346710205,0.9252525252525253,0.8167486786842346,0.7124625374625373
779,0.11460063606500626,0.956547619047619,0.828635036945343,0.6973962545391116
780,0.10782430320978165,0.9702380952380951,0.8946162462234497,0.6629418200846773
781,0.10242296755313873,0.9613095238095238,0.9631264805793762,0.6147392290249433
782,0.14064684510231018,0.9276077097505669,0.856784999370575,0.689720596863454
783,0.10454537719488144,0.9313182848897134,0.8068691492080688,0.716487480773195
784,0.13409987092018127,0.9210575139146568,0.8846486806869507,0.6825087610801897
785,0.09603965282440186,0.9708333333333333,0.8617768883705139,0.6770316984602698
786,0.12434924393892288,0.9463435374149659,0.8940526843070984,0.6354205318491033
787,0.0761461928486824,0.994047619047619,0.9212747812271118,0.6164965986394557
788,0.14400862157344818,0.8874167499167499,0.9086503982543945,0.6227782138496424
789,0.11043962091207504,0.9470238095238095,0.8735930323600769,0.6461102389673818
790,0.1292046755552292,0.931547619047619,0.9404829144477844,0.6401077097505669
791,0.18098782002925873,0.8805272108843537,0.808319091796875,0.6963369963369964
792,0.17777173221111298,0.8884559884559885,0.9182433485984802,0.6966450216450217
793,0.1993519514799118,0.9165816326530611,0.9020673036575317,0.6374149659863946
794,0.19943539798259735,0.8915053200767488,0.9598750472068787,0.6182234432234432
795,0.23585020005702972,0.8859925788497217,1.060380220413208,0.5994485673057103
796,0.14930352568626404,0.9096938775510204,0.9140934944152832,0.6501514358657215
797,0.1502271145582199,0.935042735042735,0.8797765374183655,0.6666214737643309
798,0.12073201686143875,0.9335688121402407,0.8488970994949341,0.640065886494458
799,0.10899239778518677,0.9543650793650793,0.8747515082359314,0.646110238967382
800,0.11430756002664566,0.9525553811268096,0.8672178387641907,0.6854732569018284
801,0.11553013324737549,0.9587912087912088,0.8805264234542847,0.6641961213389784
802,0.13909392058849335,0.9031593406593407,0.8214626908302307,0.6862102183530755
803,0.1542990356683731,0.909667316810174,0.8274251222610474,0.6874756196184767
804,0.12294348329305649,0.9616300366300365,0.8662489652633667,0.6980067551496123
805,0.12049336731433868,0.9382086167800454,0.8779987692832947,0.644540380254666
806,0.11927853524684906,0.9694204604918891,0.9317424893379211,0.6561050061050061
807,0.10119891166687012,0.9652014652014652,0.9568399786949158,0.6677552606124034
808,0.1816703975200653,0.927891156462585,0.8600128889083862,0.6603083424511996
809,0.2422357052564621,0.8622655122655123,0.8912950754165649,0.680062001490573
810,0.22377879917621613,0.9052524856096286,0.8929063081741333,0.6881673881673882
811,0.214116171002388,0.9011904761904762,0.8505851030349731,0.6877241805813235
812,0.2839649021625519,0.8740053597196454,0.7910259366035461,0.6612387612387611
813,0.2342345416545868,0.9435064935064934,0.8953648805618286,0.6602730602730603
814,0.21033954620361328,0.8702380952380953,0.9886859059333801,0.5586734693877552
815,0.17977918684482574,0.9302721088435374,0.7575410008430481,0.6753877075305647
816,0.18941690027713776,0.8946428571428572,0.7971277236938477,0.7066933066933068
817,0.230478897690773,0.8647435897435898,0.7939181923866272,0.6972697936983651
818,0.16173963248729706,0.9232142857142857,0.7734107971191406,0.6838292659721231
819,0.13546325266361237,0.932571595071595,0.7766427397727966,0.6885828457257028
820,0.140521839261055,0.9380952380952381,0.8469881415367126,0.6633826490969348
821,0.11059434711933136,0.9570578231292517,0.9008194804191589,0.6452547452547454
822,0.0907500609755516,0.9952380952380953,0.8595094084739685,0.6754618397475539
823,0.13191096484661102,0.9212079587079586,0.8653436899185181,0.6642508285365428
824,0.12230754643678665,0.9303571428571428,0.8405734896659851,0.6701710987425272
825,0.11866885423660278,0.931547619047619,0.867556631565094,0.6749330035044322
826,0.11641180515289307,0.969047619047619,0.9212213158607483,0.6529819386962245
827,0.12027684599161148,0.9243851386708529,0.882476806640625,0.6559123416266274
828,0.11030425876379013,0.9553571428571429,0.8835880160331726,0.672943722943723
829,0.18402215838432312,0.9124690785405071,0.8527027368545532,0.6384920634920634
830,0.1355316936969757,0.9386054421768708,0.9343368411064148,0.6299835085549371
831,0.11899151653051376,0.9516483516483517,0.9299426674842834,0.6451968666254381
832,0.14876282215118408,0.9553571428571429,0.8533439040184021,0.6354205318491033
833,0.10836921632289886,0.975,0.9236660599708557,0.6629418200846773
834,0.12650157511234283,0.9213126159554731,0.9256376028060913,0.6709576138147567
835,0.11896806955337524,0.9079081632653061,0.8150224685668945,0.6386054421768707
836,0.10920879989862442,0.9835164835164836,0.788841187953949,0.6766780838209409
837,0.11120001971721649,0.9264455782312925,0.9052711725234985,0.6642508285365428
838,0.11264693737030029,0.9793650793650794,0.9596680998802185,0.6577612863327149
839,0.10647650808095932,0.9577380952380953,0.7810453772544861,0.6948979591836734
840,0.1434585601091385,0.9155844155844156,0.798587441444397,0.6732335125192268
841,0.1440606564283371,0.9303262213976499,0.8212862014770508,0.6670282098853527
842,0.12518861889839172,0.93781179138322,0.8332375288009644,0.6301303854875283
843,0.11335387080907822,0.9613095238095237,0.7963563799858093,0.6966553287981859
844,0.09494195878505707,0.9451530612244898,0.8387376666069031,0.6263296227581941
845,0.17469915747642517,0.9299319727891157,0.8434282541275024,0.7203336346193489
846,0.14417387545108795,0.9174603174603175,0.8400033712387085,0.7016594516594515
847,0.16194961965084076,0.8875000000000001,0.8290795087814331,0.6289282146425003
848,0.1445007473230362,0.9335858585858584,0.9079939723014832,0.6414965986394557
849,0.2411491423845291,0.8463151927437641,0.9953712821006775,0.6155065172922315
850,0.14324982464313507,0.9078318506889936,0.8378196358680725,0.6254483611626469
851,0.15526489913463593,0.8797422815279958,0.7826170325279236,0.7072427572427572
852,0.14075125753879547,0.9089002267573696,0.8691273927688599,0.659121830550402
853,0.16122908890247345,0.9413919413919414,0.9206880331039429,0.6529478458049887
854,0.14215514063835144,0.9071428571428571,0.9110161066055298,0.6279633065347351
855,0.13504992425441742,0.9463435374149659,0.898063063621521,0.5999072356215213
856,0.1396861970424652,0.9077922077922078,0.9304617047309875,0.5965986394557822
857,0.19037126004695892,0.881547619047619,0.9259680509567261,0.6116336044907473
858,0.19247056543827057,0.9201007326007326,0.8520618677139282,0.6490826633683777
859,0.2774170935153961,0.8637136672850957,1.0173832178115845,0.5588538445681303
860,0.45720481872558594,0.8514069264069263,1.2693121433258057,0.39513819513819515
861,0.2886985242366791,0.7999708624708625,0.8454662561416626,0.6218253968253968
862,0.231388658285141,0.8837079587079587,0.7003529667854309,0.7067099567099567
863,0.181509867310524,0.8734515484515484,0.7001833915710449,0.6860698824984538
864,0.13129933178424835,0.918432757718472,0.7098432183265686,0.7096011131725418
865,0.20528194308280945,0.8859410430839002,0.7911846041679382,0.6277777777777777
866,0.16265323758125305,0.9281462585034014,0.785709798336029,0.7472479901051329
867,0.20038199424743652,0.9005756148613292,0.8167706727981567,0.6174064031206888
868,0.17018404603004456,0.892687074829932,0.7906641364097595,0.6938513867085295
869,0.18497352302074432,0.8990450026164313,0.7509153485298157,0.6839002267573697
870,0.13913652300834656,0.9748626373626373,0.8448848724365234,0.6995980210265925
871,0.07740239053964615,0.9649350649350649,0.8044499158859253,0.6868338011195154
872,0.13292180001735687,0.9192176870748299,0.8272147178649902,0.6740529311957884
873,0.1468372493982315,0.9220041862899006,0.9841876029968262,0.6221320346320347
874,0.12268875539302826,0.952295918367347,1.0262423753738403,0.5744794887652029
875,0.13131287693977356,0.9625541125541125,0.8607684969902039,0.6763476602762317
876,0.14481304585933685,0.9261904761904762,0.8783870935440063,0.6194160997732426
877,0.10718245059251785,0.9790816326530613,0.9000213742256165,0.6464672232529375
878,0.15291528403759003,0.9285714285714286,0.7589646577835083,0.7552051123479694
879,0.13802015781402588,0.9392547928262214,0.7056767344474792,0.7124756196184767
880,0.11540403217077255,0.9446119356833643,0.8050039410591125,0.690950319521748
881,0.09024079889059067,0.9404761904761905,0.8487257361412048,0.6839033981891125
882,0.0767662450671196,0.9196428571428571,0.8347540497779846,0.6888797710226281
883,0.07729927450418472,0.9857142857142858,0.8749942779541016,0.6524975024975025
884,0.1803155392408371,0.9112262737262737,0.953230082988739,0.6289347557204701
885,0.10790418833494186,0.9502551020408163,0.8580977320671082,0.6177612070469214
886,0.10023965686559677,0.9659863945578231,0.8180660605430603,0.6845404595404595
887,0.11184598505496979,0.9404761904761905,0.9087288975715637,0.6319945927088784
888,0.11611490696668625,0.9216117216117217,0.876775860786438,0.6322768501339929
889,0.1443243771791458,0.9222592883307169,0.8758042454719543,0.6651388294245437
890,0.10220686346292496,0.943452380952381,0.9003575444221497,0.6484410430839002
891,0.1686791628599167,0.8741823652537938,1.0604387521743774,0.4645743145743146
892,0.14201314747333527,0.9369047619047618,1.036501407623291,0.4904761904761905
893,0.15191486477851868,0.9397959183673469,0.8221439123153687,0.6728366871224013
894,0.14651963114738464,0.925595238095238,0.7937831282615662,0.7077573220430363
895,0.13040770590305328,0.9330193615907901,0.89732426404953,0.6611111111111111
896,0.12887164950370789,0.9642857142857143,1.081801176071167,0.4641759034616178
897,0.1499413102865219,0.9263038548752833,1.0076277256011963,0.4460240156668728
898,0.09157305955886841,0.9857142857142858,0.880736768245697,0.6894121751264609
899,0.10744668543338776,0.9526164311878598,0.8625702261924744,0.6545517974089403
900,0.08378065377473831,0.9708333333333333,0.9004783630371094,0.6366780045351474
901,0.06472273170948029,0.9910714285714286,0.8682724237442017,0.6664965986394559
902,0.1624460071325302,0.9140022675736962,0.8592235445976257,0.6784798534798535
903,0.14109639823436737,0.9428571428571428,0.9806448221206665,0.6427328623757196
904,0.18726865947246552,0.8976757369614511,0.9031988978385925,0.62102084423513
905,0.21114642918109894,0.9081410652839222,0.9193533062934875,0.6098356009070295
906,0.11498270183801651,0.9354395604395603,0.9398981332778931,0.6613719613719614
907,0.2053501307964325,0.8769480519480518,0.9736886024475098,0.6642508285365428
908,0.14279817044734955,0.96241674991675,0.9050907492637634,0.6759193187764616
909,0.15649475157260895,0.9221320346320346,0.9172163605690002,0.5953927025355596
910,0.1482534408569336,0.9339089481946624,0.8698461651802063,0.6453354185497043
911,0.1445007473230362,0.9282879818594105,0.785255491733551,0.6310039167182024
912,0.17370763421058655,0.9436198721913006,0.8367694020271301,0.7535714285714287
913,0.17283748090267181,0.9095238095238096,0.819261372089386,0.668418882704597
914,0.25743573904037476,0.8551194836909123,0.8222244381904602,0.6949764521193094
915,0.2792462408542633,0.8813775510204083,0.8132346272468567,0.7279864976293549
916,0.36791518330574036,0.8484693877551021,1.3980562686920166,0.49385693671407943
917,0.3951614797115326,0.7482753357753358,0.959659218788147,0.6388811585240156
918,0.4252317547798157,0.8231001141715427,0.7805346846580505,0.6439679368250797
919,0.2820145785808563,0.8514818514818515,0.6922464966773987,0.7228664192949906
920,0.21230371296405792,0.9101422387136673,0.7810441255569458,0.6945578231292516
921,0.18907888233661652,0.8969732648304077,0.7982091903686523,0.6447150072150072
922,0.21492962539196014,0.9032745032745034,0.8384047746658325,0.596938775510204
923,0.1201237216591835,0.9532312925170068,0.7728020548820496,0.6868712636569779
924,0.08711981773376465,0.9554112554112554,0.8556000590324402,0.6418430775573633
925,0.13030923902988434,0.9281462585034014,0.8495403528213501,0.6833499833499833
926,0.1462201178073883,0.9401164311878597,0.8539857268333435,0.6483431251288394
927,0.13338962197303772,0.9272959183673468,0.9515077471733093,0.532872088229231
928,0.12696127593517303,0.9659340659340659,0.8569492101669312,0.5900175221603793
929,0.1996140033006668,0.9005952380952381,0.7590293288230896,0.6753607503607503
930,0.19767354428768158,0.9051365301365301,0.8657112121582031,0.657279426922284
931,0.13897740840911865,0.9230769230769231,0.879276692867279,0.6497113997113997
932,0.14124278724193573,0.9083333333333333,0.788324773311615,0.7437764616336044
933,0.1295466274023056,0.9738095238095238,0.7760528922080994,0.7116419294990723
934,0.09953195601701736,0.9271799628942486,0.7618916630744934,0.7285714285714285
935,0.0968012660741806,0.9797619047619047,0.8291517496109009,0.6353019995877139
936,0.08862543106079102,0.9607683982683983,0.8216940760612488,0.6842054770626199
937,0.11301044374704361,0.9410714285714284,0.8294340372085571,0.6514648050362336
938,0.1240243911743164,0.9685504971219256,0.812393069267273,0.6203463203463204
939,0.10763440281152725,0.925595238095238,0.7992377281188965,0.7086247086247086
940,0.08940153568983078,0.9738095238095238,0.8215489983558655,0.7052483231054659
941,0.1345425844192505,0.8886708529565671,0.8604047894477844,0.6534528963100392
942,0.19246475398540497,0.9373626373626374,0.8939401507377625,0.6555452484023913
943,0.28163355588912964,0.8345238095238096,0.8551467657089233,0.6645330859616573
944,0.15289558470249176,0.9083874458874458,0.8926448225975037,0.7157287157287157
945,0.17123517394065857,0.9573783359497645,0.9269830584526062,0.6312229437229436
946,0.12797249853610992,0.9783490319204605,0.9593061208724976,0.6161203875489589
947,0.19475026428699493,0.9225968475968475,0.9465279579162598,0.6541331684188828
948,0.1961105316877365,0.9,0.8679181337356567,0.6710214388785818
949,0.2109779268503189,0.9468014128728414,0.9654687643051147,0.5695861678004535
950,0.14581120014190674,0.9365079365079365,0.9162945747375488,0.4577838827838828
951,0.20608343183994293,0.927891156462585,0.8972498178482056,0.6307977736549165
952,0.15823300182819366,0.9151360544217687,0.9983072280883789,0.5509456813028242
953,0.12167700380086899,0.9714285714285714,0.9397516846656799,0.6147392290249433
954,0.16978542506694794,0.8975340136054422,0.8069421648979187,0.6664565593137022
955,0.14125028252601624,0.9536848072562358,0.7686423659324646,0.6811997526283241
956,0.09492731094360352,0.989010989010989,0.7915712594985962,0.6867941582227297
957,0.1097557470202446,0.9400793650793651,0.852500319480896,0.6421150278293135
958,0.11031966656446457,0.9448979591836734,0.907005250453949,0.6003813646670789
959,0.1722710132598877,0.9210688121402406,0.8635963201522827,0.6931005502434073
960,0.17744208872318268,0.8989512471655328,0.9355471730232239,0.6122732426303854
961,0.15794897079467773,0.9625,0.8594594597816467,0.6501855287569572
962,0.1882154494524002,0.8898809523809524,0.8995391130447388,0.6108688930117501
963,0.13772697746753693,0.9291666666666666,0.8908136487007141,0.6394405197976626
964,0.1283281296491623,0.9243851386708529,0.8718449473381042,0.6599939742796886
965,0.07827724516391754,0.9837912087912087,0.9255894422531128,0.6578153988868275
966,0.12439268827438354,0.938888888888889,0.9164509773254395,0.6348459080601937
967,0.14376889169216156,0.9354395604395603,0.8417788743972778,0.6771193092621665
968,0.08138419687747955,0.9818681318681319,0.9647102355957031,0.5935780489351917
969,0.15702401101589203,0.9124149659863946,0.9928607940673828,0.6341707895279324
970,0.11456940323114395,0.9310064935064934,0.8871048092842102,0.6449720914006629
971,0.13953249156475067,0.9340136054421768,0.8745052218437195,0.6360260770975057
972,0.07355888187885284,0.9761904761904762,0.8948383927345276,0.6355674087816945
973,0.14523983001708984,0.9341269841269841,0.8982780575752258,0.6394557823129252
974,0.12837359309196472,0.95,0.9447193145751953,0.6103612657184085
975,0.239559143781662,0.890986394557823,1.0421124696731567,0.45616883116883117
976,0.17867575585842133,0.9081632653061223,0.9548566937446594,0.4724025974025974
977,0.14901681244373322,0.9095238095238095,0.8893332481384277,0.6267857142857143
978,0.1831745058298111,0.927891156462585,0.8991202116012573,0.686643118785976
979,0.1038079708814621,0.9287414965986395,0.9280247092247009,0.6549319727891156
980,0.12474934011697769,0.9476422387136673,0.9521560072898865,0.6294675562532707
981,0.10520247370004654,0.9468864468864469,0.9573556780815125,0.47923366316223454
982,0.14121969044208527,0.9066017316017315,0.9583330750465393,0.47500000000000003
983,0.10233453661203384,0.964795918367347,0.9225668907165527,0.6113095238095239
984,0.12162542343139648,0.9425824175824176,0.9161103963851929,0.6178854875283447
985,0.08542085438966751,0.9885531135531135,0.9592593908309937,0.5972711811997525
986,0.07161445915699005,0.9642857142857143,0.9758171439170837,0.594117192331478
987,0.10818193107843399,0.975,1.0012476444244385,0.5644480519480519
988,0.06291352212429047,0.9945054945054945,0.9892914891242981,0.5832946815089671
989,0.06431502103805542,0.994047619047619,0.9616839289665222,0.6369846423417852
990,0.11719866842031479,0.9730769230769231,0.954685389995575,0.5744047619047619
991,0.12966834008693695,0.9507936507936507,0.9845408797264099,0.6089614750329035
992,0.09754832834005356,0.9897959183673469,0.8892644047737122,0.6438951921094779
993,0.184886172413826,0.897250566893424,0.853735625743866,0.6088667285095857
994,0.08000117540359497,0.9842490842490843,0.9074677228927612,0.5847789115646258
995,0.12776784598827362,0.9340437340437341,0.922812283039093,0.6550092764378478
996,0.1025233045220375,0.9796245421245421,0.8387528657913208,0.7130952380952381
997,0.14195357263088226,0.9311878597592883,0.8836514353752136,0.6411229643372501
998,0.108204185962677,0.96984126984127,0.9331554174423218,0.6325963718820862
999,0.104620061814785,0.9559523809523809,0.8891592621803284,0.6521708450279879
