,loss,recall,val_loss,val_recall
0,0.3087058663368225,0.0,0.2761431634426117,0.0
1,0.2650540769100189,0.0,0.24900369346141815,0.0
2,0.23546403646469116,0.2199999988079071,0.2341361939907074,0.6399999856948853
3,0.21974003314971924,0.6899999976158142,0.22929434478282928,0.6399999856948853
4,0.21241331100463867,0.6899999976158142,0.2280837595462799,0.6399999856948853
5,0.21068081259727478,0.6899999976158142,0.22819800674915314,0.6399999856948853
6,0.21036027371883392,0.6899999976158142,0.2271628975868225,0.6399999856948853
7,0.21004833281040192,0.6899999976158142,0.22795508801937103,0.6399999856948853
8,0.20937959849834442,0.6899999976158142,0.2270437628030777,0.6399999856948853
9,0.2087421417236328,0.6899999976158142,0.22658595442771912,0.6399999856948853
10,0.20829856395721436,0.6899999976158142,0.22544685006141663,0.6399999856948853
11,0.20717738568782806,0.6899999976158142,0.2223055511713028,0.6399999856948853
12,0.20638443529605865,0.6899999976158142,0.2206602692604065,0.6399999856948853
13,0.20556408166885376,0.6899999976158142,0.2200174778699875,0.6399999856948853
14,0.20458823442459106,0.6899999976158142,0.21890877187252045,0.6399999856948853
15,0.20390689373016357,0.6899999976158142,0.21690277755260468,0.6399999856948853
16,0.20300640165805817,0.6899999976158142,0.21545162796974182,0.6399999856948853
17,0.2015158087015152,0.6899999976158142,0.21520444750785828,0.6399999856948853
18,0.20062533020973206,0.6899999976158142,0.21569769084453583,0.6399999856948853
19,0.2000918835401535,0.6899999976158142,0.2151593267917633,0.6399999856948853
20,0.19926206767559052,0.6899999976158142,0.2129201889038086,0.6399999856948853
21,0.19761133193969727,0.6899999976158142,0.20989002287387848,0.6399999856948853
22,0.19660259783267975,0.6899999976158142,0.20657506585121155,0.6399999856948853
23,0.19511091709136963,0.6899999976158142,0.2042723447084427,0.6399999856948853
24,0.19431033730506897,0.6899999976158142,0.2026667594909668,0.6399999856948853
25,0.19222721457481384,0.6899999976158142,0.20300525426864624,0.6399999856948853
26,0.1911081075668335,0.6899999976158142,0.20367296040058136,0.6399999856948853
27,0.1912178099155426,0.6899999976158142,0.20329193770885468,0.6399999856948853
28,0.189696803689003,0.6899999976158142,0.2001270353794098,0.6399999856948853
29,0.18783295154571533,0.6899999976158142,0.19587178528308868,0.6399999856948853
30,0.18638397753238678,0.6800000071525574,0.19320626556873322,0.6399999856948853
31,0.18560518324375153,0.6899999976158142,0.19177483022212982,0.6399999856948853
32,0.18411937355995178,0.6899999976158142,0.19004479050636292,0.6600000262260437
33,0.18290510773658752,0.699999988079071,0.18823795020580292,0.6800000071525574
34,0.1820766031742096,0.6899999976158142,0.18787163496017456,0.6600000262260437
35,0.18015772104263306,0.6899999976158142,0.18681463599205017,0.6600000262260437
36,0.17939212918281555,0.699999988079071,0.18428096175193787,0.7300000190734863
37,0.17762362957000732,0.75,0.18316532671451569,0.7300000190734863
38,0.1771237552165985,0.7200000286102295,0.18334928154945374,0.6899999976158142
39,0.17574909329414368,0.699999988079071,0.18302026391029358,0.6899999976158142
40,0.1749127209186554,0.699999988079071,0.18118326365947723,0.7300000190734863
41,0.1736837923526764,0.7300000190734863,0.17919917404651642,0.75
42,0.1713426262140274,0.7699999809265137,0.17585380375385284,0.7699999809265137
43,0.17070333659648895,0.7900000214576721,0.17425419390201569,0.7799999713897705
44,0.17063428461551666,0.7900000214576721,0.17293044924736023,0.7799999713897705
45,0.16993814706802368,0.7900000214576721,0.17158789932727814,0.7799999713897705
46,0.16774168610572815,0.800000011920929,0.17111879587173462,0.7599999904632568
47,0.1667400747537613,0.7699999809265137,0.1714467853307724,0.7599999904632568
48,0.16599979996681213,0.7699999809265137,0.16975687444210052,0.7599999904632568
49,0.16469259560108185,0.7900000214576721,0.16863223910331726,0.7599999904632568
50,0.16314150393009186,0.7900000214576721,0.1668373942375183,0.7699999809265137
51,0.16233378648757935,0.7900000214576721,0.16566415131092072,0.7799999713897705
52,0.1613653004169464,0.7900000214576721,0.16417592763900757,0.7799999713897705
53,0.16042517125606537,0.7900000214576721,0.1628519892692566,0.7799999713897705
54,0.15960879623889923,0.7900000214576721,0.1618727445602417,0.7799999713897705
55,0.15846124291419983,0.7900000214576721,0.16110408306121826,0.7799999713897705
56,0.15768708288669586,0.7900000214576721,0.16034477949142456,0.7799999713897705
57,0.15802893042564392,0.7799999713897705,0.16051700711250305,0.7799999713897705
58,0.15620990097522736,0.7799999713897705,0.159918874502182,0.7799999713897705
59,0.15541166067123413,0.7799999713897705,0.15889419615268707,0.7799999713897705
60,0.1542227417230606,0.7900000214576721,0.1572284996509552,0.800000011920929
61,0.153435617685318,0.7900000214576721,0.15623939037322998,0.8100000023841858
62,0.15243743360042572,0.7900000214576721,0.15563273429870605,0.800000011920929
63,0.1512289047241211,0.7900000214576721,0.15563151240348816,0.8100000023841858
64,0.15108658373355865,0.7900000214576721,0.15555685758590698,0.800000011920929
65,0.15184549987316132,0.7900000214576721,0.15424226224422455,0.8199999928474426
66,0.1497083455324173,0.7900000214576721,0.15355506539344788,0.8100000023841858
67,0.149427130818367,0.7900000214576721,0.15333643555641174,0.8100000023841858
68,0.14809297025203705,0.7900000214576721,0.15229341387748718,0.8100000023841858
69,0.14706164598464966,0.7900000214576721,0.15136519074440002,0.8100000023841858
70,0.1465282440185547,0.7900000214576721,0.1507783830165863,0.8199999928474426
71,0.1463559865951538,0.7900000214576721,0.15048764646053314,0.8199999928474426
72,0.14787384867668152,0.7799999713897705,0.15108326077461243,0.7799999713897705
73,0.14597187936306,0.7799999713897705,0.1493772268295288,0.8199999928474426
74,0.1442253291606903,0.7900000214576721,0.1488528847694397,0.8199999928474426
75,0.14315009117126465,0.7900000214576721,0.14824269711971283,0.8199999928474426
76,0.14212168753147125,0.7900000214576721,0.1480218768119812,0.8199999928474426
77,0.1417439877986908,0.7900000214576721,0.14783312380313873,0.8199999928474426
78,0.14121370017528534,0.7900000214576721,0.14712099730968475,0.8199999928474426
79,0.14033164083957672,0.7900000214576721,0.14647580683231354,0.8199999928474426
80,0.1396164745092392,0.8100000023841858,0.14610876142978668,0.8199999928474426
81,0.139234721660614,0.8100000023841858,0.14579972624778748,0.8199999928474426
82,0.13867570459842682,0.8100000023841858,0.14533251523971558,0.8199999928474426
83,0.13788467645645142,0.8100000023841858,0.14488449692726135,0.8199999928474426
84,0.13713374733924866,0.8100000023841858,0.14452101290225983,0.8199999928474426
85,0.1365952491760254,0.8100000023841858,0.14416973292827606,0.8199999928474426
86,0.13587415218353271,0.8100000023841858,0.14384353160858154,0.8199999928474426
87,0.1351843774318695,0.8199999928474426,0.14356352388858795,0.8199999928474426
88,0.13467265665531158,0.8199999928474426,0.1432676762342453,0.8199999928474426
89,0.13425955176353455,0.8199999928474426,0.14308887720108032,0.800000011920929
90,0.1335676610469818,0.8100000023841858,0.14272545278072357,0.8100000023841858
91,0.1331595480442047,0.8199999928474426,0.14262312650680542,0.8199999928474426
92,0.13298094272613525,0.8199999928474426,0.14229854941368103,0.8199999928474426
93,0.13225220143795013,0.8199999928474426,0.1420436054468155,0.8199999928474426
94,0.13149918615818024,0.8199999928474426,0.14181098341941833,0.8199999928474426
95,0.1311044692993164,0.8199999928474426,0.1418006867170334,0.7900000214576721
96,0.1308947056531906,0.8100000023841858,0.1415315717458725,0.7900000214576721
97,0.1303793042898178,0.8100000023841858,0.1414724588394165,0.7799999713897705
98,0.1303219348192215,0.8199999928474426,0.14110712707042694,0.7900000214576721
99,0.12932844460010529,0.800000011920929,0.14173473417758942,0.7699999809265137
100,0.12982183694839478,0.7900000214576721,0.14171430468559265,0.7699999809265137
101,0.12978500127792358,0.800000011920929,0.142173632979393,0.7799999713897705
102,0.12926626205444336,0.800000011920929,0.14131760597229004,0.7699999809265137
103,0.1280641257762909,0.800000011920929,0.1403805911540985,0.7799999713897705
104,0.12744781374931335,0.8100000023841858,0.14005047082901,0.800000011920929
105,0.12658217549324036,0.8199999928474426,0.1399487406015396,0.7900000214576721
106,0.12629345059394836,0.8100000023841858,0.13992223143577576,0.7799999713897705
107,0.12611904740333557,0.8100000023841858,0.14014270901679993,0.7699999809265137
108,0.12620282173156738,0.800000011920929,0.14008989930152893,0.7699999809265137
109,0.12560313940048218,0.800000011920929,0.13953690230846405,0.7799999713897705
110,0.12486657500267029,0.8100000023841858,0.13944847881793976,0.7799999713897705
111,0.12454717606306076,0.8199999928474426,0.13932295143604279,0.7900000214576721
112,0.12406307458877563,0.8299999833106995,0.13939672708511353,0.8199999928474426
113,0.1246199831366539,0.8299999833106995,0.13955073058605194,0.8199999928474426
114,0.12436472624540329,0.8299999833106995,0.13928988575935364,0.8199999928474426
115,0.12393957376480103,0.8299999833106995,0.13904859125614166,0.7900000214576721
116,0.12339666485786438,0.8299999833106995,0.1390281319618225,0.7799999713897705
117,0.12299618124961853,0.8299999833106995,0.1389438360929489,0.7799999713897705
118,0.12281298637390137,0.8199999928474426,0.13903507590293884,0.7699999809265137
119,0.12224216759204865,0.8199999928474426,0.1389235556125641,0.7799999713897705
120,0.12240477651357651,0.8199999928474426,0.13895149528980255,0.7900000214576721
121,0.12226102501153946,0.8199999928474426,0.13894358277320862,0.7900000214576721
122,0.12181856483221054,0.8199999928474426,0.13885653018951416,0.7699999809265137
123,0.12196452915668488,0.8199999928474426,0.1390428990125656,0.7799999713897705
124,0.12244395166635513,0.8100000023841858,0.1403033584356308,0.7699999809265137
125,0.12224506586790085,0.8100000023841858,0.13961833715438843,0.7799999713897705
126,0.12141139060258865,0.8100000023841858,0.1390490084886551,0.7799999713897705
127,0.12080466002225876,0.8100000023841858,0.1386760175228119,0.7799999713897705
128,0.1204446479678154,0.8100000023841858,0.13868360221385956,0.7799999713897705
129,0.12068192660808563,0.8100000023841858,0.13900752365589142,0.7799999713897705
130,0.12024202197790146,0.8100000023841858,0.1388281285762787,0.7799999713897705
131,0.11992570757865906,0.800000011920929,0.13886108994483948,0.7799999713897705
132,0.11957462131977081,0.800000011920929,0.13878601789474487,0.7799999713897705
133,0.12003116309642792,0.8199999928474426,0.13877040147781372,0.7799999713897705
134,0.11947261542081833,0.8199999928474426,0.13880327343940735,0.7799999713897705
135,0.11936616897583008,0.800000011920929,0.1389329582452774,0.7799999713897705
136,0.11928398907184601,0.800000011920929,0.1390591263771057,0.7799999713897705
137,0.11940701305866241,0.8100000023841858,0.13929413259029388,0.7799999713897705
138,0.11877240985631943,0.8100000023841858,0.13898786902427673,0.7799999713897705
139,0.11761067062616348,0.8100000023841858,0.1387598216533661,0.7799999713897705
140,0.11838827282190323,0.8299999833106995,0.13884562253952026,0.7900000214576721
141,0.11842285841703415,0.8299999833106995,0.13880543410778046,0.7900000214576721
142,0.11853586137294769,0.8399999737739563,0.13878250122070312,0.800000011920929
143,0.11799822002649307,0.8399999737739563,0.1386319398880005,0.7900000214576721
144,0.11779236048460007,0.8100000023841858,0.1386358141899109,0.7799999713897705
145,0.11742807179689407,0.8199999928474426,0.13869279623031616,0.7799999713897705
146,0.11736898124217987,0.8199999928474426,0.13872744143009186,0.7799999713897705
147,0.11765884608030319,0.8100000023841858,0.13922427594661713,0.7699999809265137
148,0.11753392964601517,0.8100000023841858,0.13927724957466125,0.7699999809265137
149,0.11803394556045532,0.8100000023841858,0.1388142704963684,0.7799999713897705
150,0.11675114929676056,0.8100000023841858,0.1387712061405182,0.7799999713897705
151,0.11696019023656845,0.8100000023841858,0.13886037468910217,0.7799999713897705
152,0.11641710251569748,0.8199999928474426,0.13874351978302002,0.7799999713897705
153,0.11633884161710739,0.8199999928474426,0.1387377232313156,0.7799999713897705
154,0.11637013405561447,0.8199999928474426,0.13897009193897247,0.7799999713897705
155,0.11600840836763382,0.8100000023841858,0.13895639777183533,0.7799999713897705
156,0.1159813404083252,0.8100000023841858,0.13884080946445465,0.7799999713897705
157,0.11564603447914124,0.8199999928474426,0.1388312578201294,0.7900000214576721
158,0.11584236472845078,0.8399999737739563,0.13908778131008148,0.800000011920929
159,0.11634277552366257,0.8299999833106995,0.13907547295093536,0.800000011920929
160,0.1159568727016449,0.8299999833106995,0.1390143185853958,0.800000011920929
161,0.1158687174320221,0.8299999833106995,0.13876143097877502,0.7900000214576721
162,0.11507606506347656,0.8299999833106995,0.13878817856311798,0.7900000214576721
163,0.11625666916370392,0.8100000023841858,0.13916568458080292,0.7900000214576721
164,0.11498451232910156,0.8199999928474426,0.13916286826133728,0.7900000214576721
165,0.115595243871212,0.8199999928474426,0.1388959437608719,0.7799999713897705
166,0.11517130583524704,0.8199999928474426,0.13898812234401703,0.7799999713897705
167,0.11534047871828079,0.8199999928474426,0.13907866179943085,0.7900000214576721
168,0.11506833136081696,0.8100000023841858,0.13910257816314697,0.7900000214576721
169,0.11445485055446625,0.8100000023841858,0.1392580270767212,0.7900000214576721
170,0.11437957733869553,0.8100000023841858,0.13966237008571625,0.7900000214576721
171,0.11539394408464432,0.8299999833106995,0.14020389318466187,0.7900000214576721
172,0.11435635387897491,0.8199999928474426,0.1394275724887848,0.7799999713897705
173,0.11373287439346313,0.8100000023841858,0.13930611312389374,0.7799999713897705
174,0.11401650309562683,0.8199999928474426,0.13942348957061768,0.7799999713897705
175,0.11404837667942047,0.8199999928474426,0.1395115703344345,0.7900000214576721
176,0.11425332725048065,0.8299999833106995,0.13958218693733215,0.7900000214576721
177,0.11395790427923203,0.8299999833106995,0.139434814453125,0.7900000214576721
178,0.11352953314781189,0.8199999928474426,0.13944467902183533,0.7799999713897705
179,0.11289205402135849,0.8199999928474426,0.1396002173423767,0.7900000214576721
180,0.11427631974220276,0.8199999928474426,0.14010414481163025,0.7900000214576721
181,0.11299848556518555,0.8199999928474426,0.13965687155723572,0.7799999713897705
182,0.11286184191703796,0.8199999928474426,0.13951963186264038,0.7900000214576721
183,0.11251238733530045,0.8199999928474426,0.13946571946144104,0.7799999713897705
184,0.11261697858572006,0.8199999928474426,0.13947825133800507,0.7799999713897705
185,0.11295502632856369,0.8100000023841858,0.1394457072019577,0.7900000214576721
186,0.11217702180147171,0.8199999928474426,0.13937315344810486,0.7900000214576721
187,0.11220075935125351,0.8199999928474426,0.1393665224313736,0.800000011920929
188,0.1121087521314621,0.8199999928474426,0.13934269547462463,0.7900000214576721
189,0.11217831820249557,0.8299999833106995,0.13940267264842987,0.7900000214576721
190,0.11179158836603165,0.8299999833106995,0.1394072026014328,0.7900000214576721
191,0.11166791617870331,0.8299999833106995,0.13946062326431274,0.7900000214576721
192,0.11265111714601517,0.8199999928474426,0.1398129016160965,0.7900000214576721
193,0.1116684079170227,0.8299999833106995,0.1397484838962555,0.7900000214576721
194,0.111967533826828,0.8199999928474426,0.13963717222213745,0.7900000214576721
195,0.11184161901473999,0.8199999928474426,0.1399717777967453,0.7900000214576721
196,0.112217977643013,0.8199999928474426,0.14022494852542877,0.7799999713897705
197,0.11148813366889954,0.8199999928474426,0.13985967636108398,0.7900000214576721
198,0.11092736572027206,0.8299999833106995,0.1395650953054428,0.7900000214576721
199,0.11137165874242783,0.8299999833106995,0.13963426649570465,0.800000011920929
200,0.1111786961555481,0.8199999928474426,0.1397489309310913,0.7900000214576721
201,0.11118549108505249,0.8199999928474426,0.1395464986562729,0.7900000214576721
202,0.11045540124177933,0.8299999833106995,0.13957326114177704,0.7900000214576721
203,0.111011803150177,0.8199999928474426,0.14001762866973877,0.7900000214576721
204,0.1110631451010704,0.8199999928474426,0.14006295800209045,0.7900000214576721
205,0.11021410673856735,0.8299999833106995,0.13963817059993744,0.7900000214576721
206,0.11065036803483963,0.8299999833106995,0.1396208554506302,0.7900000214576721
207,0.11003617197275162,0.8299999833106995,0.13963629305362701,0.800000011920929
208,0.1103774830698967,0.8299999833106995,0.139679953455925,0.800000011920929
209,0.11009874194860458,0.8299999833106995,0.13971558213233948,0.7900000214576721
210,0.10997515916824341,0.8299999833106995,0.13970506191253662,0.7900000214576721
211,0.10979291796684265,0.8299999833106995,0.13971328735351562,0.7900000214576721
212,0.10965675115585327,0.8399999737739563,0.1397164911031723,0.7900000214576721
213,0.10949070006608963,0.8299999833106995,0.1397133469581604,0.800000011920929
214,0.10963517427444458,0.8299999833106995,0.13972505927085876,0.800000011920929
215,0.10948774218559265,0.8299999833106995,0.13980349898338318,0.800000011920929
216,0.10930300503969193,0.8299999833106995,0.13980069756507874,0.7900000214576721
217,0.10969444364309311,0.8399999737739563,0.13993200659751892,0.7900000214576721
218,0.1090620681643486,0.8399999737739563,0.13995753228664398,0.7900000214576721
219,0.10894326865673065,0.8299999833106995,0.14004462957382202,0.7900000214576721
220,0.10899552702903748,0.8399999737739563,0.1400344967842102,0.7900000214576721
221,0.10970869660377502,0.8199999928474426,0.14016065001487732,0.7900000214576721
222,0.10901849716901779,0.8299999833106995,0.14032121002674103,0.7900000214576721
223,0.10874199867248535,0.8299999833106995,0.1403060406446457,0.7900000214576721
224,0.10825215280056,0.8199999928474426,0.14053931832313538,0.800000011920929
225,0.10864121466875076,0.8199999928474426,0.1407146155834198,0.800000011920929
226,0.10880404710769653,0.8299999833106995,0.14060693979263306,0.800000011920929
227,0.108425073325634,0.8199999928474426,0.14039039611816406,0.7900000214576721
228,0.10804049670696259,0.8299999833106995,0.14037181437015533,0.7900000214576721
229,0.10788041353225708,0.8299999833106995,0.14044728875160217,0.7900000214576721
230,0.107958123087883,0.8299999833106995,0.14054203033447266,0.7900000214576721
231,0.10832591354846954,0.8299999833106995,0.14074061810970306,0.7900000214576721
232,0.10794929414987564,0.8199999928474426,0.1406828612089157,0.7900000214576721
233,0.10753117501735687,0.8199999928474426,0.14077699184417725,0.7900000214576721
234,0.10769627243280411,0.8399999737739563,0.1410924196243286,0.7900000214576721
235,0.10748332738876343,0.8399999737739563,0.14113849401474,0.800000011920929
236,0.10760816931724548,0.8399999737739563,0.141321063041687,0.7900000214576721
237,0.1072058454155922,0.8399999737739563,0.14109332859516144,0.7900000214576721
238,0.10725686699151993,0.8399999737739563,0.14109893143177032,0.800000011920929
239,0.10718780755996704,0.8299999833106995,0.14100965857505798,0.7900000214576721
240,0.1076744943857193,0.8299999833106995,0.14116337895393372,0.7900000214576721
241,0.106538325548172,0.8299999833106995,0.1410745084285736,0.7900000214576721
242,0.10636894404888153,0.8199999928474426,0.1411007195711136,0.7900000214576721
243,0.10743927210569382,0.8299999833106995,0.14147187769412994,0.800000011920929
244,0.10743251442909241,0.8199999928474426,0.14155313372612,0.800000011920929
245,0.10713806748390198,0.8199999928474426,0.14134103059768677,0.7900000214576721
246,0.10634607076644897,0.8199999928474426,0.1413707733154297,0.7900000214576721
247,0.10678427666425705,0.8299999833106995,0.1416093111038208,0.800000011920929
248,0.10646228492259979,0.8399999737739563,0.14162352681159973,0.800000011920929
249,0.10599085688591003,0.8199999928474426,0.14145179092884064,0.7900000214576721
250,0.10600289702415466,0.8199999928474426,0.14147016406059265,0.7900000214576721
251,0.10656635463237762,0.8199999928474426,0.1416672170162201,0.7900000214576721
252,0.10669463127851486,0.8199999928474426,0.14161255955696106,0.800000011920929
253,0.1063055768609047,0.8199999928474426,0.14132405817508698,0.7900000214576721
254,0.10597417503595352,0.8299999833106995,0.1415446251630783,0.8100000023841858
255,0.10585865378379822,0.8399999737739563,0.14170509576797485,0.8100000023841858
256,0.10544153302907944,0.8399999737739563,0.1415639966726303,0.7900000214576721
257,0.10620693862438202,0.8399999737739563,0.14171604812145233,0.8100000023841858
258,0.1052931472659111,0.8399999737739563,0.14164453744888306,0.7900000214576721
259,0.10503292828798294,0.8199999928474426,0.14171014726161957,0.7900000214576721
260,0.10538025945425034,0.8100000023841858,0.1418197602033615,0.7900000214576721
261,0.1053677573800087,0.8100000023841858,0.14187882840633392,0.7900000214576721
262,0.10538189113140106,0.8100000023841858,0.14181499183177948,0.7900000214576721
263,0.10486260056495667,0.8299999833106995,0.1419323980808258,0.7900000214576721
264,0.10476206988096237,0.8399999737739563,0.14201189577579498,0.7900000214576721
265,0.10476327687501907,0.8299999833106995,0.1420442909002304,0.7900000214576721
266,0.10484062135219574,0.8299999833106995,0.14211022853851318,0.7900000214576721
267,0.10500741750001907,0.8399999737739563,0.14230597019195557,0.800000011920929
268,0.10451040416955948,0.8399999737739563,0.14224308729171753,0.7900000214576721
269,0.10443314909934998,0.8399999737739563,0.14218896627426147,0.7900000214576721
270,0.1042499840259552,0.8399999737739563,0.14219512045383453,0.7900000214576721
271,0.1040862500667572,0.8399999737739563,0.14215300977230072,0.7900000214576721
272,0.10399909317493439,0.8399999737739563,0.14212992787361145,0.800000011920929
273,0.10438522696495056,0.8399999737739563,0.1422097533941269,0.800000011920929
274,0.10424148291349411,0.8399999737739563,0.14231517910957336,0.800000011920929
275,0.10405370593070984,0.8399999737739563,0.14239007234573364,0.800000011920929
276,0.10417036712169647,0.8399999737739563,0.14251884818077087,0.800000011920929
277,0.10378201305866241,0.8399999737739563,0.1422400325536728,0.800000011920929
278,0.10353934019804001,0.8399999737739563,0.14223140478134155,0.800000011920929
279,0.10358855873346329,0.8399999737739563,0.14242805540561676,0.800000011920929
280,0.10374730080366135,0.8299999833106995,0.14275555312633514,0.8100000023841858
281,0.10380659997463226,0.8299999833106995,0.14280028641223907,0.8100000023841858
282,0.1038481593132019,0.8500000238418579,0.1426585167646408,0.800000011920929
283,0.10320554673671722,0.8399999737739563,0.14263592660427094,0.800000011920929
284,0.10317571461200714,0.8399999737739563,0.14253085851669312,0.7900000214576721
285,0.10315125435590744,0.8199999928474426,0.14260342717170715,0.7900000214576721
286,0.10337144136428833,0.8100000023841858,0.1426927149295807,0.7900000214576721
287,0.1035127267241478,0.8199999928474426,0.14273174107074738,0.7799999713897705
288,0.102708600461483,0.8100000023841858,0.14251549541950226,0.800000011920929
289,0.10278196632862091,0.8399999737739563,0.14269663393497467,0.800000011920929
290,0.10268475860357285,0.8399999737739563,0.14263483881950378,0.800000011920929
291,0.10242127627134323,0.8399999737739563,0.14270246028900146,0.800000011920929
292,0.10244638472795486,0.8399999737739563,0.142715185880661,0.800000011920929
293,0.10226461291313171,0.8399999737739563,0.14260873198509216,0.800000011920929
294,0.10256163775920868,0.8399999737739563,0.1427110880613327,0.800000011920929
295,0.10269565880298615,0.8299999833106995,0.14267165958881378,0.800000011920929
296,0.10208383202552795,0.8399999737739563,0.14276710152626038,0.800000011920929
297,0.10266947001218796,0.8399999737739563,0.14286412298679352,0.800000011920929
298,0.10201900452375412,0.8500000238418579,0.14296741783618927,0.8100000023841858
299,0.10196211189031601,0.8500000238418579,0.14321132004261017,0.800000011920929
300,0.10208525508642197,0.8399999737739563,0.14327755570411682,0.7900000214576721
301,0.10219019651412964,0.8399999737739563,0.14340418577194214,0.7900000214576721
302,0.10172861069440842,0.8500000238418579,0.1431647092103958,0.8100000023841858
303,0.10198400169610977,0.8399999737739563,0.1431693732738495,0.7900000214576721
304,0.10163469612598419,0.8399999737739563,0.1431761384010315,0.7900000214576721
305,0.10153906792402267,0.8299999833106995,0.14312388002872467,0.800000011920929
306,0.1012527346611023,0.8399999737739563,0.14314952492713928,0.800000011920929
307,0.1013825535774231,0.8399999737739563,0.14314253628253937,0.800000011920929
308,0.10074735432863235,0.8500000238418579,0.1433299481868744,0.8100000023841858
309,0.10162487626075745,0.8399999737739563,0.14356209337711334,0.800000011920929
310,0.10229358077049255,0.8399999737739563,0.14315147697925568,0.8100000023841858
311,0.10142945498228073,0.8500000238418579,0.14333896338939667,0.8100000023841858
312,0.1014808863401413,0.8500000238418579,0.14310503005981445,0.800000011920929
313,0.1008395180106163,0.8500000238418579,0.14317113161087036,0.800000011920929
314,0.10063468664884567,0.8500000238418579,0.14338736236095428,0.8100000023841858
315,0.10072929412126541,0.8399999737739563,0.1435474157333374,0.800000011920929
316,0.10078608244657516,0.8500000238418579,0.14345286786556244,0.8100000023841858
317,0.10054299235343933,0.8500000238418579,0.14334343373775482,0.800000011920929
318,0.10036715865135193,0.8399999737739563,0.14340773224830627,0.800000011920929
319,0.10046206414699554,0.8399999737739563,0.1434914916753769,0.800000011920929
320,0.10036218911409378,0.8399999737739563,0.14353178441524506,0.800000011920929
321,0.10014522820711136,0.8500000238418579,0.1434345692396164,0.800000011920929
322,0.10006718337535858,0.8500000238418579,0.14339476823806763,0.800000011920929
323,0.09987091273069382,0.8500000238418579,0.14332491159439087,0.800000011920929
324,0.10106688737869263,0.8299999833106995,0.14350391924381256,0.7900000214576721
325,0.10029226541519165,0.8299999833106995,0.1434306502342224,0.7900000214576721
326,0.10126843303442001,0.8399999737739563,0.14336340129375458,0.800000011920929
327,0.09975994378328323,0.8500000238418579,0.143391415476799,0.800000011920929
328,0.09962398558855057,0.8500000238418579,0.14342470467090607,0.800000011920929
329,0.09953562915325165,0.8500000238418579,0.14355187118053436,0.800000011920929
330,0.09947096556425095,0.8399999737739563,0.14361558854579926,0.800000011920929
331,0.10050957649946213,0.8500000238418579,0.1438881754875183,0.800000011920929
332,0.10007860511541367,0.8500000238418579,0.14393432438373566,0.800000011920929
333,0.09926114976406097,0.8500000238418579,0.1436532437801361,0.800000011920929
334,0.09911742806434631,0.8600000143051147,0.14358288049697876,0.800000011920929
335,0.09930048137903214,0.8299999833106995,0.14369060099124908,0.800000011920929
336,0.09918756783008575,0.8299999833106995,0.14373382925987244,0.800000011920929
337,0.09908924996852875,0.8299999833106995,0.1437607705593109,0.800000011920929
338,0.09925208985805511,0.8299999833106995,0.14380183815956116,0.800000011920929
339,0.09921769797801971,0.8299999833106995,0.14382585883140564,0.800000011920929
340,0.099431611597538,0.8299999833106995,0.14371258020401,0.800000011920929
341,0.09896199405193329,0.8500000238418579,0.14375215768814087,0.800000011920929
342,0.09915561974048615,0.8299999833106995,0.14377948641777039,0.7900000214576721
343,0.0991717278957367,0.8299999833106995,0.14368289709091187,0.800000011920929
344,0.09871328622102737,0.8299999833106995,0.14361849427223206,0.800000011920929
345,0.09886310249567032,0.8600000143051147,0.14384210109710693,0.800000011920929
346,0.09879622608423233,0.8500000238418579,0.1439606249332428,0.800000011920929
347,0.09839745610952377,0.8500000238418579,0.14360664784908295,0.800000011920929
348,0.09861676394939423,0.8600000143051147,0.1435341089963913,0.7900000214576721
349,0.09838290512561798,0.8399999737739563,0.14350076019763947,0.7900000214576721
350,0.09822994470596313,0.8500000238418579,0.14353439211845398,0.800000011920929
351,0.09825444966554642,0.8500000238418579,0.1436339020729065,0.800000011920929
352,0.09841518104076385,0.8500000238418579,0.14372529089450836,0.800000011920929
353,0.09808626770973206,0.8500000238418579,0.14377130568027496,0.800000011920929
354,0.09855042397975922,0.8500000238418579,0.1440252661705017,0.7900000214576721
355,0.09834826737642288,0.8500000238418579,0.14401648938655853,0.7900000214576721
356,0.09796342253684998,0.8500000238418579,0.1438678503036499,0.800000011920929
357,0.09779123961925507,0.8500000238418579,0.143941730260849,0.800000011920929
358,0.09763136506080627,0.8500000238418579,0.14395903050899506,0.7900000214576721
359,0.09789232164621353,0.8500000238418579,0.1440664529800415,0.7900000214576721
360,0.09763819724321365,0.8600000143051147,0.14420466125011444,0.7900000214576721
361,0.09797868877649307,0.8500000238418579,0.14425800740718842,0.7900000214576721
362,0.09753347188234329,0.8500000238418579,0.1443752944469452,0.7900000214576721
363,0.09773619472980499,0.8500000238418579,0.14440670609474182,0.7900000214576721
364,0.0974031463265419,0.8600000143051147,0.1444411426782608,0.7900000214576721
365,0.09738722443580627,0.8500000238418579,0.14446887373924255,0.7900000214576721
366,0.09726081043481827,0.8600000143051147,0.14452338218688965,0.7900000214576721
367,0.09724810719490051,0.8500000238418579,0.14454378187656403,0.7900000214576721
368,0.09704729914665222,0.8700000047683716,0.14459657669067383,0.7900000214576721
369,0.0986013188958168,0.8700000047683716,0.14491912722587585,0.800000011920929
370,0.09735818207263947,0.8600000143051147,0.14479997754096985,0.800000011920929
371,0.09685675799846649,0.8600000143051147,0.14483115077018738,0.7900000214576721
372,0.09691442549228668,0.8700000047683716,0.14478722214698792,0.7900000214576721
373,0.09755676984786987,0.8500000238418579,0.14484237134456635,0.800000011920929
374,0.09697457402944565,0.8700000047683716,0.14482976496219635,0.7900000214576721
375,0.09668733924627304,0.8600000143051147,0.14481686055660248,0.7900000214576721
376,0.09713196754455566,0.8600000143051147,0.14480650424957275,0.7900000214576721
377,0.09634654968976974,0.8399999737739563,0.14492245018482208,0.800000011920929
378,0.09688376635313034,0.8399999737739563,0.1451941877603531,0.7900000214576721
379,0.09689240157604218,0.8500000238418579,0.14490969479084015,0.800000011920929
380,0.09649106115102768,0.8399999737739563,0.14480069279670715,0.800000011920929
381,0.09641491621732712,0.8500000238418579,0.14482121169567108,0.7900000214576721
382,0.09647087007761002,0.8600000143051147,0.14486980438232422,0.7900000214576721
383,0.09640158712863922,0.8500000238418579,0.14518053829669952,0.800000011920929
384,0.09662190079689026,0.8500000238418579,0.14518430829048157,0.8100000023841858
385,0.09619978815317154,0.8600000143051147,0.14507564902305603,0.7900000214576721
386,0.09652355313301086,0.8600000143051147,0.14519235491752625,0.7900000214576721
387,0.09670091420412064,0.8700000047683716,0.1452157199382782,0.800000011920929
388,0.09592901170253754,0.8600000143051147,0.14529910683631897,0.800000011920929
389,0.09590411931276321,0.8700000047683716,0.14533820748329163,0.800000011920929
390,0.09592331200838089,0.8600000143051147,0.1454746574163437,0.7900000214576721
391,0.0962204560637474,0.8600000143051147,0.14562568068504333,0.7900000214576721
392,0.09588571637868881,0.8600000143051147,0.14548367261886597,0.7900000214576721
393,0.09610939025878906,0.8600000143051147,0.14537553489208221,0.7900000214576721
394,0.09563799202442169,0.8600000143051147,0.14535394310951233,0.7900000214576721
395,0.09560594707727432,0.8600000143051147,0.14537125825881958,0.7900000214576721
396,0.09554120898246765,0.8600000143051147,0.14557775855064392,0.800000011920929
397,0.09565085172653198,0.8600000143051147,0.14550438523292542,0.800000011920929
398,0.09519726037979126,0.8700000047683716,0.14525803923606873,0.7900000214576721
399,0.09546450525522232,0.8600000143051147,0.14525862038135529,0.7900000214576721
400,0.09573273360729218,0.8500000238418579,0.14522002637386322,0.7900000214576721
401,0.09602082520723343,0.8500000238418579,0.145263671875,0.7900000214576721
402,0.09540533274412155,0.8600000143051147,0.1452559530735016,0.7900000214576721
403,0.09506412595510483,0.8600000143051147,0.14532923698425293,0.7900000214576721
404,0.09505840390920639,0.8500000238418579,0.14538735151290894,0.7900000214576721
405,0.09498277306556702,0.8600000143051147,0.14544489979743958,0.7900000214576721
406,0.09498180449008942,0.8500000238418579,0.14544570446014404,0.7900000214576721
407,0.09536007791757584,0.8500000238418579,0.1455085128545761,0.7900000214576721
408,0.09514821320772171,0.8600000143051147,0.14553208649158478,0.7900000214576721
409,0.09495869278907776,0.8500000238418579,0.14566995203495026,0.800000011920929
410,0.09517690539360046,0.8600000143051147,0.14593811333179474,0.7900000214576721
411,0.09512342512607574,0.8600000143051147,0.14614540338516235,0.800000011920929
412,0.09521612524986267,0.8600000143051147,0.14590932428836823,0.800000011920929
413,0.09471167623996735,0.8600000143051147,0.14577952027320862,0.7900000214576721
414,0.09450291842222214,0.8600000143051147,0.14580680429935455,0.7900000214576721
415,0.09510152041912079,0.8700000047683716,0.14619657397270203,0.7900000214576721
416,0.09577493369579315,0.8600000143051147,0.14593827724456787,0.7900000214576721
417,0.09544188529253006,0.8600000143051147,0.1456853747367859,0.7900000214576721
418,0.09454962611198425,0.8600000143051147,0.14569911360740662,0.7900000214576721
419,0.09502711892127991,0.8600000143051147,0.1457974910736084,0.7900000214576721
420,0.09473805129528046,0.8600000143051147,0.14567117393016815,0.7900000214576721
421,0.09439194947481155,0.8600000143051147,0.14551818370819092,0.7900000214576721
422,0.09440192580223083,0.8600000143051147,0.14563408493995667,0.7900000214576721
423,0.09424242377281189,0.8600000143051147,0.14552782475948334,0.7799999713897705
424,0.09407248347997665,0.8600000143051147,0.1455255150794983,0.7900000214576721
425,0.09404559433460236,0.8600000143051147,0.1455162763595581,0.7900000214576721
426,0.09418728947639465,0.8700000047683716,0.145630344748497,0.7900000214576721
427,0.09481529891490936,0.8500000238418579,0.14579370617866516,0.7900000214576721
428,0.0944850742816925,0.8600000143051147,0.14559225738048553,0.7900000214576721
429,0.09400615841150284,0.8600000143051147,0.1454969048500061,0.7799999713897705
430,0.09448791295289993,0.8600000143051147,0.14546549320220947,0.7799999713897705
431,0.09419915080070496,0.8700000047683716,0.14544081687927246,0.7900000214576721
432,0.09415814280509949,0.8600000143051147,0.1456574648618698,0.7799999713897705
433,0.0942341685295105,0.8500000238418579,0.14557264745235443,0.7900000214576721
434,0.09348507970571518,0.8600000143051147,0.14575502276420593,0.7799999713897705
435,0.09370769560337067,0.8600000143051147,0.14588463306427002,0.7900000214576721
436,0.09415189921855927,0.8600000143051147,0.14611627161502838,0.800000011920929
437,0.09398481994867325,0.8600000143051147,0.14597700536251068,0.800000011920929
438,0.09432581067085266,0.8500000238418579,0.14569495618343353,0.7900000214576721
439,0.09328369051218033,0.8500000238418579,0.14574846625328064,0.7799999713897705
440,0.09344836324453354,0.8500000238418579,0.14569486677646637,0.7900000214576721
441,0.0933326706290245,0.8500000238418579,0.1455860584974289,0.7900000214576721
442,0.09463203698396683,0.8600000143051147,0.14577940106391907,0.7900000214576721
443,0.0938296765089035,0.8600000143051147,0.14566878974437714,0.7900000214576721
444,0.0934622660279274,0.8600000143051147,0.14571671187877655,0.7900000214576721
445,0.09339503943920135,0.8600000143051147,0.14582186937332153,0.7900000214576721
446,0.09300194680690765,0.8600000143051147,0.14601120352745056,0.7900000214576721
447,0.09315457940101624,0.8600000143051147,0.14606793224811554,0.7900000214576721
448,0.09294635057449341,0.8700000047683716,0.1461019515991211,0.7900000214576721
449,0.09291031211614609,0.8700000047683716,0.1461024135351181,0.7900000214576721
450,0.09289313107728958,0.8600000143051147,0.146158367395401,0.7900000214576721
451,0.0925646424293518,0.8600000143051147,0.14602091908454895,0.7900000214576721
452,0.0927627757191658,0.8600000143051147,0.14623185992240906,0.7900000214576721
453,0.0936034619808197,0.8799999952316284,0.1464552879333496,0.7900000214576721
454,0.09421877562999725,0.8600000143051147,0.1464425027370453,0.7900000214576721
455,0.09386713802814484,0.8799999952316284,0.1463424414396286,0.7900000214576721
456,0.09362343698740005,0.8799999952316284,0.14627045392990112,0.7900000214576721
457,0.09387462586164474,0.8799999952316284,0.1462942212820053,0.7900000214576721
458,0.09243940562009811,0.8600000143051147,0.14594973623752594,0.7900000214576721
459,0.09204241633415222,0.8600000143051147,0.14612989127635956,0.7900000214576721
460,0.09401614964008331,0.8700000047683716,0.14676398038864136,0.800000011920929
461,0.09342920035123825,0.8600000143051147,0.14639590680599213,0.800000011920929
462,0.0929042398929596,0.8600000143051147,0.14641804993152618,0.7900000214576721
463,0.0930752158164978,0.8600000143051147,0.1467147171497345,0.800000011920929
464,0.09238702803850174,0.8600000143051147,0.14642006158828735,0.7900000214576721
465,0.09249456226825714,0.8700000047683716,0.1462140828371048,0.7900000214576721
466,0.09218928962945938,0.8600000143051147,0.14628542959690094,0.7900000214576721
467,0.09377042949199677,0.8600000143051147,0.1466454565525055,0.800000011920929
468,0.09257441759109497,0.8600000143051147,0.14641471207141876,0.7900000214576721
469,0.09211830794811249,0.8500000238418579,0.14632953703403473,0.7900000214576721
470,0.09177593141794205,0.8500000238418579,0.1463296115398407,0.7900000214576721
471,0.0921599268913269,0.8600000143051147,0.14637726545333862,0.7900000214576721
472,0.09300103783607483,0.8700000047683716,0.14668625593185425,0.7900000214576721
473,0.09334192425012589,0.8700000047683716,0.14629797637462616,0.7900000214576721
474,0.0923265814781189,0.8700000047683716,0.1462874561548233,0.7900000214576721
475,0.09204582124948502,0.8600000143051147,0.14635100960731506,0.7900000214576721
476,0.09180385619401932,0.8700000047683716,0.1464037001132965,0.7900000214576721
477,0.09211643040180206,0.8600000143051147,0.14683948457241058,0.7900000214576721
478,0.09232841432094574,0.8600000143051147,0.14677727222442627,0.7900000214576721
479,0.09176648408174515,0.8600000143051147,0.14646418392658234,0.7900000214576721
480,0.09188971668481827,0.8700000047683716,0.1463630348443985,0.7900000214576721
481,0.09153621643781662,0.8700000047683716,0.1465156525373459,0.7900000214576721
482,0.09176527708768845,0.8600000143051147,0.14654934406280518,0.7900000214576721
483,0.09168026596307755,0.8700000047683716,0.14647218585014343,0.7900000214576721
484,0.09142604470252991,0.8600000143051147,0.14653663337230682,0.7900000214576721
485,0.09199443459510803,0.8600000143051147,0.14657050371170044,0.7900000214576721
486,0.09175146371126175,0.8600000143051147,0.1464240550994873,0.7900000214576721
487,0.09146422147750854,0.8600000143051147,0.1464318186044693,0.7900000214576721
488,0.09126411378383636,0.8600000143051147,0.14642655849456787,0.7900000214576721
489,0.09159283339977264,0.8600000143051147,0.14647002518177032,0.7900000214576721
490,0.0911945328116417,0.8600000143051147,0.14671653509140015,0.7900000214576721
491,0.09138961881399155,0.8600000143051147,0.14692798256874084,0.7900000214576721
492,0.09150715172290802,0.8600000143051147,0.14706997573375702,0.7900000214576721
493,0.09152386337518692,0.8600000143051147,0.14673744142055511,0.7900000214576721
494,0.09149996936321259,0.8600000143051147,0.14684247970581055,0.7900000214576721
495,0.09119847416877747,0.8600000143051147,0.14734092354774475,0.7900000214576721
496,0.0917971208691597,0.8600000143051147,0.14736659824848175,0.7900000214576721
497,0.09141772985458374,0.8600000143051147,0.1469613015651703,0.7900000214576721
498,0.09121616184711456,0.8600000143051147,0.14694835245609283,0.7900000214576721
499,0.09225669503211975,0.8600000143051147,0.14770323038101196,0.800000011920929
500,0.09225712716579437,0.8700000047683716,0.1473948061466217,0.7900000214576721
501,0.0919160395860672,0.8600000143051147,0.14677336812019348,0.7900000214576721
502,0.091656893491745,0.8600000143051147,0.14714230597019196,0.7900000214576721
503,0.09160742163658142,0.8600000143051147,0.14711378514766693,0.7900000214576721
504,0.09130792319774628,0.8600000143051147,0.14686961472034454,0.7900000214576721
505,0.09123066067695618,0.8600000143051147,0.14644157886505127,0.7799999713897705
506,0.09067149460315704,0.8500000238418579,0.14626526832580566,0.7900000214576721
507,0.09076088666915894,0.8600000143051147,0.14621774852275848,0.7900000214576721
508,0.09059147536754608,0.8500000238418579,0.146320641040802,0.7799999713897705
509,0.09052597731351852,0.8500000238418579,0.14642608165740967,0.7799999713897705
510,0.09104142338037491,0.8500000238418579,0.1464518904685974,0.7799999713897705
511,0.09047204256057739,0.8500000238418579,0.14657524228096008,0.7799999713897705
512,0.09080382436513901,0.8500000238418579,0.14659345149993896,0.7900000214576721
513,0.09029736369848251,0.8500000238418579,0.1468115746974945,0.7900000214576721
514,0.09062269330024719,0.8500000238418579,0.146745502948761,0.7900000214576721
515,0.09038779884576797,0.8500000238418579,0.14679113030433655,0.7900000214576721
516,0.09025418013334274,0.8500000238418579,0.1468280553817749,0.7900000214576721
517,0.09019646048545837,0.8500000238418579,0.1468133181333542,0.7900000214576721
518,0.0903032124042511,0.8500000238418579,0.14704683423042297,0.7900000214576721
519,0.09010490775108337,0.8600000143051147,0.14714810252189636,0.7900000214576721
520,0.09043277055025101,0.8600000143051147,0.14711831510066986,0.7900000214576721
521,0.09016024321317673,0.8600000143051147,0.14689606428146362,0.7799999713897705
522,0.09000829607248306,0.8500000238418579,0.14678461849689484,0.7900000214576721
523,0.09009255468845367,0.8600000143051147,0.14674599468708038,0.7900000214576721
524,0.09015395492315292,0.8600000143051147,0.14669619500637054,0.7900000214576721
525,0.09002871811389923,0.8600000143051147,0.1466527283191681,0.7900000214576721
526,0.09028999507427216,0.8500000238418579,0.14686547219753265,0.7900000214576721
527,0.09007298201322556,0.8500000238418579,0.14686769247055054,0.7799999713897705
528,0.0898788645863533,0.8500000238418579,0.14690953493118286,0.7799999713897705
529,0.08989536017179489,0.8500000238418579,0.14700564742088318,0.7900000214576721
530,0.08975329250097275,0.8500000238418579,0.1467023491859436,0.7900000214576721
531,0.08999189734458923,0.8500000238418579,0.14659972488880157,0.7900000214576721
532,0.08977998048067093,0.8600000143051147,0.14662037789821625,0.7900000214576721
533,0.09043754637241364,0.8600000143051147,0.1465780884027481,0.7900000214576721
534,0.09030162543058395,0.8799999952316284,0.14656059443950653,0.7900000214576721
535,0.08984474837779999,0.8700000047683716,0.14657741785049438,0.7900000214576721
536,0.08968152850866318,0.8500000238418579,0.14667239785194397,0.7900000214576721
537,0.08964188396930695,0.8500000238418579,0.14685852825641632,0.7799999713897705
538,0.08973459154367447,0.8500000238418579,0.14697907865047455,0.7900000214576721
539,0.08961060643196106,0.8500000238418579,0.14667053520679474,0.7900000214576721
540,0.08935394883155823,0.8500000238418579,0.14649748802185059,0.7900000214576721
541,0.08962156623601913,0.8600000143051147,0.14648312330245972,0.7900000214576721
542,0.0895179957151413,0.8600000143051147,0.1466381698846817,0.7900000214576721
543,0.08940567821264267,0.8600000143051147,0.1467711329460144,0.7900000214576721
544,0.09046664088964462,0.8600000143051147,0.1472904235124588,0.7900000214576721
545,0.08976190537214279,0.8600000143051147,0.14704900979995728,0.7900000214576721
546,0.0895216092467308,0.8600000143051147,0.14691340923309326,0.7900000214576721
547,0.0896746814250946,0.8899999856948853,0.1467830240726471,0.7900000214576721
548,0.0897846594452858,0.8899999856948853,0.14670205116271973,0.7900000214576721
549,0.08974616974592209,0.8899999856948853,0.14640812575817108,0.7900000214576721
550,0.08946336805820465,0.8799999952316284,0.14637263119220734,0.7900000214576721
551,0.0891205221414566,0.8600000143051147,0.14655695855617523,0.7799999713897705
552,0.08957191556692123,0.8500000238418579,0.14685936272144318,0.7799999713897705
553,0.08970949053764343,0.8600000143051147,0.14683730900287628,0.7799999713897705
554,0.08876702189445496,0.8600000143051147,0.14652183651924133,0.7900000214576721
555,0.0887109637260437,0.8799999952316284,0.1466936469078064,0.7900000214576721
556,0.08989647775888443,0.8799999952316284,0.14673075079917908,0.7900000214576721
557,0.08862371742725372,0.8799999952316284,0.14657625555992126,0.7900000214576721
558,0.08885332196950912,0.8500000238418579,0.14696143567562103,0.7900000214576721
559,0.08939260244369507,0.8600000143051147,0.14706234633922577,0.7900000214576721
560,0.08888020366430283,0.8500000238418579,0.1469574272632599,0.7900000214576721
561,0.08881960064172745,0.8600000143051147,0.14699716866016388,0.7900000214576721
562,0.08879582583904266,0.8700000047683716,0.14712677896022797,0.7900000214576721
563,0.08900792896747589,0.8700000047683716,0.14728087186813354,0.7900000214576721
564,0.08918789774179459,0.8799999952316284,0.1471261978149414,0.7900000214576721
565,0.08927355706691742,0.8799999952316284,0.14695647358894348,0.7900000214576721
566,0.08901617676019669,0.8799999952316284,0.14686869084835052,0.7900000214576721
567,0.08906407654285431,0.8700000047683716,0.14673447608947754,0.7900000214576721
568,0.08874108642339706,0.8500000238418579,0.1467364877462387,0.7900000214576721
569,0.08835059404373169,0.8500000238418579,0.14668555557727814,0.7900000214576721
570,0.0891452431678772,0.8799999952316284,0.14677223563194275,0.7900000214576721
571,0.0887598991394043,0.8899999856948853,0.14674930274486542,0.7799999713897705
572,0.0884537473320961,0.8500000238418579,0.14696083962917328,0.7900000214576721
573,0.08865255117416382,0.8600000143051147,0.14703965187072754,0.7900000214576721
574,0.08864253014326096,0.8600000143051147,0.14696265757083893,0.7900000214576721
575,0.08851068466901779,0.8500000238418579,0.14702337980270386,0.7900000214576721
576,0.0888352319598198,0.8600000143051147,0.1473453938961029,0.7900000214576721
577,0.0886431485414505,0.8600000143051147,0.14746271073818207,0.7900000214576721
578,0.08890686184167862,0.8600000143051147,0.14748553931713104,0.7900000214576721
579,0.08835729956626892,0.8600000143051147,0.14731070399284363,0.7900000214576721
580,0.0881199762225151,0.8500000238418579,0.14719821512699127,0.7799999713897705
581,0.08821643888950348,0.8500000238418579,0.14715898036956787,0.7900000214576721
582,0.08819148689508438,0.8600000143051147,0.14723342657089233,0.7900000214576721
583,0.08803479373455048,0.8600000143051147,0.14721794426441193,0.7900000214576721
584,0.08829203248023987,0.8600000143051147,0.14720332622528076,0.7900000214576721
585,0.08824694901704788,0.8700000047683716,0.14721882343292236,0.7900000214576721
586,0.08825846016407013,0.8600000143051147,0.14729289710521698,0.7900000214576721
587,0.08826769888401031,0.8700000047683716,0.1471940279006958,0.7900000214576721
588,0.08817586302757263,0.8600000143051147,0.14716599881649017,0.7900000214576721
589,0.08810761570930481,0.8700000047683716,0.14709873497486115,0.7900000214576721
590,0.08839455246925354,0.8600000143051147,0.14720675349235535,0.7900000214576721
591,0.08789484202861786,0.8700000047683716,0.14706803858280182,0.7900000214576721
592,0.08789614588022232,0.8600000143051147,0.14702215790748596,0.7900000214576721
593,0.0879257395863533,0.8600000143051147,0.1471765637397766,0.7900000214576721
594,0.08824008703231812,0.8500000238418579,0.14732211828231812,0.7900000214576721
595,0.08835500478744507,0.8600000143051147,0.146805539727211,0.7900000214576721
596,0.0876912996172905,0.8600000143051147,0.14679448306560516,0.7900000214576721
597,0.0882394090294838,0.8700000047683716,0.1467554122209549,0.7900000214576721
598,0.08778142929077148,0.8700000047683716,0.14689011871814728,0.7900000214576721
599,0.08767291158437729,0.8700000047683716,0.14696259796619415,0.7900000214576721
600,0.08882679045200348,0.8600000143051147,0.14733701944351196,0.7799999713897705
601,0.08748827129602432,0.8600000143051147,0.14733289182186127,0.7900000214576721
602,0.08769109845161438,0.8600000143051147,0.14741796255111694,0.7900000214576721
603,0.08769641816616058,0.8700000047683716,0.14767295122146606,0.7900000214576721
604,0.08744192123413086,0.8700000047683716,0.14767155051231384,0.7900000214576721
605,0.08768098801374435,0.8700000047683716,0.14783024787902832,0.800000011920929
606,0.08780235052108765,0.8600000143051147,0.14785750210285187,0.7900000214576721
607,0.08705397695302963,0.8500000238418579,0.148165762424469,0.7900000214576721
608,0.08742434531450272,0.8600000143051147,0.14823785424232483,0.7900000214576721
609,0.08753776550292969,0.8600000143051147,0.14822018146514893,0.7900000214576721
610,0.08783480525016785,0.8700000047683716,0.1480035036802292,0.7900000214576721
611,0.08756021410226822,0.8500000238418579,0.14799191057682037,0.7900000214576721
612,0.08740543574094772,0.8700000047683716,0.1479952484369278,0.7900000214576721
613,0.08764161169528961,0.8500000238418579,0.14818796515464783,0.800000011920929
614,0.0870870053768158,0.8600000143051147,0.1479582041501999,0.7900000214576721
615,0.08729203045368195,0.8700000047683716,0.1480330228805542,0.7900000214576721
616,0.08750233799219131,0.8700000047683716,0.14789971709251404,0.7900000214576721
617,0.08751150965690613,0.8799999952316284,0.14773209393024445,0.7900000214576721
618,0.08742997795343399,0.8799999952316284,0.14766201376914978,0.7900000214576721
619,0.08784124255180359,0.8799999952316284,0.14757172763347626,0.7900000214576721
620,0.08693600445985794,0.8700000047683716,0.14761589467525482,0.7900000214576721
621,0.08692401647567749,0.8799999952316284,0.14761531352996826,0.7900000214576721
622,0.08687328547239304,0.8600000143051147,0.14768047630786896,0.7900000214576721
623,0.0872708410024643,0.8600000143051147,0.14767788350582123,0.7900000214576721
624,0.08681487292051315,0.8500000238418579,0.14810290932655334,0.7900000214576721
625,0.08795741200447083,0.8600000143051147,0.1489453911781311,0.7900000214576721
626,0.08821241557598114,0.8700000047683716,0.14861884713172913,0.7900000214576721
627,0.08715460449457169,0.8600000143051147,0.14751780033111572,0.7900000214576721
628,0.08597323298454285,0.8700000047683716,0.14734236896038055,0.7900000214576721
629,0.08767438679933548,0.8700000047683716,0.14740309119224548,0.7900000214576721
630,0.08742737770080566,0.8799999952316284,0.14750440418720245,0.7799999713897705
631,0.0877593457698822,0.8799999952316284,0.14747029542922974,0.7900000214576721
632,0.08700303733348846,0.8799999952316284,0.14757436513900757,0.7900000214576721
633,0.08662919700145721,0.8700000047683716,0.14805063605308533,0.7900000214576721
634,0.08739335089921951,0.8600000143051147,0.1485120952129364,0.7900000214576721
635,0.08711346983909607,0.8600000143051147,0.14827875792980194,0.7900000214576721
636,0.0868978425860405,0.8600000143051147,0.14824609458446503,0.7900000214576721
637,0.08712148666381836,0.8600000143051147,0.1483621746301651,0.7900000214576721
638,0.08654171228408813,0.8600000143051147,0.14770713448524475,0.7900000214576721
639,0.08761246502399445,0.8700000047683716,0.14750470221042633,0.7900000214576721
640,0.08706352859735489,0.8799999952316284,0.14757396280765533,0.7900000214576721
641,0.08708173036575317,0.8600000143051147,0.14782431721687317,0.800000011920929
642,0.08630714565515518,0.8600000143051147,0.14778703451156616,0.800000011920929
643,0.08691524714231491,0.8700000047683716,0.1477518528699875,0.7900000214576721
644,0.08641055971384048,0.8799999952316284,0.14773549139499664,0.7900000214576721
645,0.08644619584083557,0.8799999952316284,0.14767076075077057,0.7900000214576721
646,0.0862077996134758,0.8600000143051147,0.147744283080101,0.7900000214576721
647,0.0862295925617218,0.8600000143051147,0.1479305773973465,0.800000011920929
648,0.08663719892501831,0.8799999952316284,0.14812633395195007,0.800000011920929
649,0.08624196797609329,0.8700000047683716,0.1482146978378296,0.800000011920929
650,0.08645561337471008,0.8799999952316284,0.14861245453357697,0.7900000214576721
651,0.08635027706623077,0.8600000143051147,0.14875419437885284,0.7900000214576721
652,0.0863601416349411,0.8600000143051147,0.14875058829784393,0.7900000214576721
653,0.08605986833572388,0.8700000047683716,0.148495152592659,0.800000011920929
654,0.08614906668663025,0.8700000047683716,0.14832447469234467,0.800000011920929
655,0.08629332482814789,0.8700000047683716,0.1482887715101242,0.7900000214576721
656,0.08634737133979797,0.8600000143051147,0.14833655953407288,0.7900000214576721
657,0.08605842292308807,0.8600000143051147,0.14838485419750214,0.7900000214576721
658,0.08643069863319397,0.8700000047683716,0.1482163667678833,0.800000011920929
659,0.08584147691726685,0.8700000047683716,0.1483367383480072,0.800000011920929
660,0.08577238023281097,0.8700000047683716,0.14832280576229095,0.800000011920929
661,0.08582312613725662,0.8600000143051147,0.14807021617889404,0.800000011920929
662,0.08654287457466125,0.8700000047683716,0.1480744481086731,0.800000011920929
663,0.08563568443059921,0.8700000047683716,0.14791418612003326,0.7900000214576721
664,0.08623221516609192,0.8799999952316284,0.14781774580478668,0.7900000214576721
665,0.0862419381737709,0.8799999952316284,0.14773699641227722,0.7900000214576721
666,0.0876561626791954,0.8799999952316284,0.14775121212005615,0.7900000214576721
667,0.08614254742860794,0.8799999952316284,0.1476246863603592,0.7900000214576721
668,0.08549807220697403,0.8899999856948853,0.14772683382034302,0.800000011920929
669,0.08556697517633438,0.8700000047683716,0.14846810698509216,0.7900000214576721
670,0.08607254177331924,0.8600000143051147,0.14892727136611938,0.7900000214576721
671,0.08638057857751846,0.8700000047683716,0.14854344725608826,0.7900000214576721
672,0.0856318548321724,0.8600000143051147,0.14799953997135162,0.800000011920929
673,0.08546063303947449,0.8700000047683716,0.14778172969818115,0.7900000214576721
674,0.08563374727964401,0.8700000047683716,0.14774642884731293,0.7900000214576721
675,0.08541187644004822,0.8700000047683716,0.14770527184009552,0.7900000214576721
676,0.08558352291584015,0.8700000047683716,0.14775905013084412,0.7900000214576721
677,0.08551722764968872,0.8799999952316284,0.14779017865657806,0.7900000214576721
678,0.08524478226900101,0.8700000047683716,0.147887721657753,0.800000011920929
679,0.08528810739517212,0.8700000047683716,0.1478448510169983,0.800000011920929
680,0.08538730442523956,0.8700000047683716,0.14801503717899323,0.7900000214576721
681,0.08565354347229004,0.8600000143051147,0.14772270619869232,0.800000011920929
682,0.08516944944858551,0.8700000047683716,0.14777763187885284,0.800000011920929
683,0.08514869958162308,0.8700000047683716,0.14782559871673584,0.800000011920929
684,0.0855322852730751,0.8700000047683716,0.14781279861927032,0.7900000214576721
685,0.08508762717247009,0.8700000047683716,0.14786459505558014,0.800000011920929
686,0.08541583269834518,0.8700000047683716,0.14798806607723236,0.800000011920929
687,0.08526715636253357,0.8700000047683716,0.14771391451358795,0.7900000214576721
688,0.08496478199958801,0.8799999952316284,0.14772161841392517,0.800000011920929
689,0.08510038256645203,0.8700000047683716,0.14806196093559265,0.7900000214576721
690,0.08516118675470352,0.8700000047683716,0.14825572073459625,0.7900000214576721
691,0.08494925498962402,0.8600000143051147,0.14841201901435852,0.7900000214576721
692,0.08588606119155884,0.8600000143051147,0.14871172606945038,0.7900000214576721
693,0.08490391075611115,0.8600000143051147,0.14822055399417877,0.7900000214576721
694,0.08505415171384811,0.8799999952316284,0.1480192244052887,0.7900000214576721
695,0.08555689454078674,0.8799999952316284,0.1479288935661316,0.7900000214576721
696,0.08582068234682083,0.8799999952316284,0.14784415066242218,0.7799999713897705
697,0.08574527502059937,0.8799999952316284,0.14795465767383575,0.7799999713897705
698,0.08546815067529678,0.8799999952316284,0.1478620022535324,0.7900000214576721
699,0.08566157519817352,0.8799999952316284,0.14792528748512268,0.7799999713897705
700,0.08599060028791428,0.8799999952316284,0.1477545201778412,0.7900000214576721
701,0.0847170427441597,0.8799999952316284,0.14773936569690704,0.7900000214576721
702,0.084884874522686,0.8799999952316284,0.1477334052324295,0.7900000214576721
703,0.0843392163515091,0.8700000047683716,0.14797085523605347,0.800000011920929
704,0.0844627097249031,0.8700000047683716,0.14817798137664795,0.7900000214576721
705,0.08460266143083572,0.8700000047683716,0.1481902301311493,0.7900000214576721
706,0.08458621054887772,0.8700000047683716,0.14794674515724182,0.7900000214576721
707,0.08548887073993683,0.8500000238418579,0.147681325674057,0.7900000214576721
708,0.08499935269355774,0.8700000047683716,0.14776593446731567,0.800000011920929
709,0.08565858006477356,0.8799999952316284,0.14781378209590912,0.7900000214576721
710,0.08510852605104446,0.8799999952316284,0.14754922688007355,0.800000011920929
711,0.08474431186914444,0.8799999952316284,0.1475493311882019,0.800000011920929
712,0.08437292277812958,0.8700000047683716,0.14756256341934204,0.800000011920929
713,0.08426550030708313,0.8700000047683716,0.1476031243801117,0.800000011920929
714,0.08456731587648392,0.8700000047683716,0.14758653938770294,0.7900000214576721
715,0.08426389843225479,0.8600000143051147,0.1474442481994629,0.800000011920929
716,0.0841895118355751,0.8700000047683716,0.1475207656621933,0.7900000214576721
717,0.08466042578220367,0.8600000143051147,0.14766056835651398,0.7900000214576721
718,0.08424697071313858,0.8600000143051147,0.14752338826656342,0.7900000214576721
719,0.08488002419471741,0.8799999952316284,0.14723792672157288,0.7900000214576721
720,0.08419039845466614,0.8700000047683716,0.1474267691373825,0.7900000214576721
721,0.08397982269525528,0.8700000047683716,0.14747585356235504,0.7900000214576721
722,0.08396316319704056,0.8700000047683716,0.14763005077838898,0.7900000214576721
723,0.0842067301273346,0.8600000143051147,0.14774304628372192,0.7900000214576721
724,0.08443330973386765,0.8700000047683716,0.14755794405937195,0.7900000214576721
725,0.08411107212305069,0.8700000047683716,0.14781689643859863,0.7900000214576721
726,0.08469648659229279,0.8600000143051147,0.14803799986839294,0.7900000214576721
727,0.08410584181547165,0.8600000143051147,0.14766806364059448,0.7900000214576721
728,0.08358989655971527,0.8799999952316284,0.14730189740657806,0.7900000214576721
729,0.08398368954658508,0.8799999952316284,0.14729227125644684,0.7900000214576721
730,0.08418882638216019,0.8799999952316284,0.14738677442073822,0.7900000214576721
731,0.08377709984779358,0.8600000143051147,0.1476195752620697,0.7900000214576721
732,0.08439727872610092,0.8600000143051147,0.14787954092025757,0.7900000214576721
733,0.08430391550064087,0.8600000143051147,0.14759770035743713,0.7900000214576721
734,0.08425644040107727,0.8600000143051147,0.1484202891588211,0.7900000214576721
735,0.08424636721611023,0.8600000143051147,0.1483844667673111,0.7900000214576721
736,0.0840299054980278,0.8600000143051147,0.1477695107460022,0.800000011920929
737,0.08359923213720322,0.8799999952316284,0.1477113962173462,0.7799999713897705
738,0.08403956145048141,0.8799999952316284,0.1476893573999405,0.7900000214576721
739,0.08383486419916153,0.8799999952316284,0.14767096936702728,0.7799999713897705
740,0.0846765786409378,0.8799999952316284,0.1477305293083191,0.7900000214576721
741,0.08357474952936172,0.8799999952316284,0.14765505492687225,0.7900000214576721
742,0.08343815058469772,0.8600000143051147,0.14793060719966888,0.7900000214576721
743,0.08375727385282516,0.8600000143051147,0.14805789291858673,0.7900000214576721
744,0.08357924222946167,0.8600000143051147,0.14793477952480316,0.7900000214576721
745,0.08358349651098251,0.8700000047683716,0.1478416472673416,0.7900000214576721
746,0.08346830308437347,0.8799999952316284,0.1477845460176468,0.7900000214576721
747,0.08397283405065536,0.8700000047683716,0.14799799025058746,0.7900000214576721
748,0.0835115984082222,0.8700000047683716,0.14808137714862823,0.7900000214576721
749,0.08361296355724335,0.8700000047683716,0.14774242043495178,0.7900000214576721
750,0.08325570821762085,0.8799999952316284,0.14752423763275146,0.7900000214576721
751,0.08312791585922241,0.8700000047683716,0.14731834828853607,0.7900000214576721
752,0.08354472368955612,0.8700000047683716,0.147247776389122,0.7900000214576721
753,0.0834902748465538,0.8799999952316284,0.14736980199813843,0.7900000214576721
754,0.08331366628408432,0.8899999856948853,0.1473909616470337,0.7799999713897705
755,0.08342614769935608,0.8799999952316284,0.14741525053977966,0.7799999713897705
756,0.08381585776805878,0.8799999952316284,0.1475141942501068,0.7900000214576721
757,0.0839238166809082,0.8600000143051147,0.14827099442481995,0.7900000214576721
758,0.08352949470281601,0.8600000143051147,0.14814229309558868,0.7900000214576721
759,0.08330579102039337,0.8600000143051147,0.1477944403886795,0.7900000214576721
760,0.08342231065034866,0.8799999952316284,0.14755205810070038,0.7900000214576721
761,0.08297744393348694,0.8700000047683716,0.1471458077430725,0.7900000214576721
762,0.08307605981826782,0.8799999952316284,0.14699624478816986,0.7900000214576721
763,0.08311813324689865,0.8799999952316284,0.1470155566930771,0.7799999713897705
764,0.08343150466680527,0.8799999952316284,0.14678770303726196,0.7900000214576721
765,0.08347084373235703,0.8799999952316284,0.14677652716636658,0.7900000214576721
766,0.08282994478940964,0.8700000047683716,0.14712032675743103,0.7799999713897705
767,0.08280941098928452,0.8799999952316284,0.14733722805976868,0.7900000214576721
768,0.08265165984630585,0.8799999952316284,0.14725849032402039,0.7900000214576721
769,0.082675039768219,0.8700000047683716,0.14724846184253693,0.7900000214576721
770,0.08267154544591904,0.8700000047683716,0.1473032683134079,0.7900000214576721
771,0.08266349136829376,0.8799999952316284,0.1473637819290161,0.7799999713897705
772,0.08278980106115341,0.8799999952316284,0.14743849635124207,0.7799999713897705
773,0.08309045433998108,0.8799999952316284,0.1475597321987152,0.7799999713897705
774,0.08301980048418045,0.8799999952316284,0.14753904938697815,0.7799999713897705
775,0.08304929733276367,0.8799999952316284,0.1476704478263855,0.7799999713897705
776,0.0824824795126915,0.8799999952316284,0.14769583940505981,0.800000011920929
777,0.0830107182264328,0.8700000047683716,0.14825928211212158,0.7900000214576721
778,0.08268791437149048,0.8600000143051147,0.14812545478343964,0.7900000214576721
779,0.08251956105232239,0.8600000143051147,0.1478448212146759,0.7900000214576721
780,0.08347152918577194,0.8799999952316284,0.1474076211452484,0.7799999713897705
781,0.08338707685470581,0.8799999952316284,0.1474115252494812,0.7900000214576721
782,0.08322706073522568,0.8799999952316284,0.1472787708044052,0.7900000214576721
783,0.08272995054721832,0.8799999952316284,0.14731082320213318,0.7799999713897705
784,0.08233404904603958,0.8700000047683716,0.14743366837501526,0.7900000214576721
785,0.08269808441400528,0.8700000047683716,0.14751209318637848,0.7900000214576721
786,0.08216241747140884,0.8799999952316284,0.14760714769363403,0.7900000214576721
787,0.08217236399650574,0.8799999952316284,0.1474323868751526,0.800000011920929
788,0.08229582756757736,0.8799999952316284,0.14744466543197632,0.800000011920929
789,0.08213435113430023,0.8700000047683716,0.14762310683727264,0.7900000214576721
790,0.0821327194571495,0.8700000047683716,0.14822228252887726,0.7900000214576721
791,0.08264324814081192,0.8700000047683716,0.14848993718624115,0.800000011920929
792,0.08280715346336365,0.8700000047683716,0.14822590351104736,0.7900000214576721
793,0.08244422823190689,0.8600000143051147,0.14778348803520203,0.7900000214576721
794,0.08211368322372437,0.8700000047683716,0.14751577377319336,0.7900000214576721
795,0.08247767388820648,0.8600000143051147,0.1473216861486435,0.7799999713897705
796,0.0822317972779274,0.8799999952316284,0.14767539501190186,0.800000011920929
797,0.08258423209190369,0.8600000143051147,0.14861343801021576,0.7900000214576721
798,0.08250731229782104,0.8600000143051147,0.148865208029747,0.7900000214576721
799,0.08212777227163315,0.8600000143051147,0.148771733045578,0.7900000214576721
800,0.08192147314548492,0.8700000047683716,0.14872202277183533,0.7900000214576721
801,0.0820189118385315,0.8700000047683716,0.14856548607349396,0.7900000214576721
802,0.08188379555940628,0.8700000047683716,0.14829225838184357,0.7799999713897705
803,0.08199184387922287,0.8899999856948853,0.14784133434295654,0.7900000214576721
804,0.08171772956848145,0.8899999856948853,0.14763179421424866,0.7799999713897705
805,0.08168768882751465,0.8799999952316284,0.14749401807785034,0.7799999713897705
806,0.08199174702167511,0.8799999952316284,0.14757710695266724,0.7799999713897705
807,0.08198530226945877,0.8700000047683716,0.1474681794643402,0.7799999713897705
808,0.0826173797249794,0.8799999952316284,0.14762867987155914,0.7900000214576721
809,0.08272723853588104,0.8799999952316284,0.14768904447555542,0.7900000214576721
810,0.08170856535434723,0.8799999952316284,0.1477275788784027,0.7900000214576721
811,0.08166264742612839,0.8700000047683716,0.14879073202610016,0.7900000214576721
812,0.08227170258760452,0.8700000047683716,0.14891140162944794,0.800000011920929
813,0.08222181349992752,0.8700000047683716,0.14854219555854797,0.7900000214576721
814,0.08196999877691269,0.8600000143051147,0.14838983118534088,0.7900000214576721
815,0.08159353584051132,0.8600000143051147,0.14819079637527466,0.7900000214576721
816,0.08150949329137802,0.8700000047683716,0.1484782099723816,0.7900000214576721
817,0.08138810098171234,0.8700000047683716,0.14826489984989166,0.7900000214576721
818,0.0816505029797554,0.8899999856948853,0.148366779088974,0.7900000214576721
819,0.08158360421657562,0.8700000047683716,0.14848509430885315,0.7900000214576721
820,0.0810653567314148,0.8700000047683716,0.14858347177505493,0.7900000214576721
821,0.08145901560783386,0.8600000143051147,0.14860957860946655,0.7900000214576721
822,0.08265211433172226,0.8700000047683716,0.14923295378684998,0.800000011920929
823,0.08196819573640823,0.8700000047683716,0.14837191998958588,0.7900000214576721
824,0.08120329678058624,0.8799999952316284,0.1476626992225647,0.7799999713897705
825,0.0819714367389679,0.8899999856948853,0.147516131401062,0.7900000214576721
826,0.08120153099298477,0.8799999952316284,0.14764940738677979,0.7900000214576721
827,0.08107426762580872,0.8799999952316284,0.14749795198440552,0.7900000214576721
828,0.080973319709301,0.8899999856948853,0.14747267961502075,0.7900000214576721
829,0.08101584762334824,0.8799999952316284,0.1475876420736313,0.7900000214576721
830,0.08154907822608948,0.8700000047683716,0.14785704016685486,0.7900000214576721
831,0.08071459829807281,0.8799999952316284,0.14749294519424438,0.7799999713897705
832,0.08109854906797409,0.8799999952316284,0.14744479954242706,0.800000011920929
833,0.08105860650539398,0.8899999856948853,0.14744478464126587,0.7900000214576721
834,0.08057386428117752,0.8899999856948853,0.14752385020256042,0.7900000214576721
835,0.08054670691490173,0.8799999952316284,0.14757955074310303,0.7900000214576721
836,0.08102252334356308,0.8799999952316284,0.14779047667980194,0.7900000214576721
837,0.08105815947055817,0.8700000047683716,0.14731794595718384,0.7900000214576721
838,0.0818624421954155,0.8799999952316284,0.147197425365448,0.800000011920929
839,0.08073264360427856,0.8899999856948853,0.14724820852279663,0.7900000214576721
840,0.08074017614126205,0.8899999856948853,0.1474861204624176,0.7900000214576721
841,0.08052864670753479,0.8899999856948853,0.14750319719314575,0.7900000214576721
842,0.08106687664985657,0.8899999856948853,0.14753887057304382,0.800000011920929
843,0.08087564259767532,0.8899999856948853,0.14748287200927734,0.800000011920929
844,0.0803898274898529,0.8899999856948853,0.14758838713169098,0.7900000214576721
845,0.08046851307153702,0.8799999952316284,0.1477220505475998,0.7900000214576721
846,0.08131346106529236,0.8700000047683716,0.14802095293998718,0.7900000214576721
847,0.08101183921098709,0.8600000143051147,0.148067906498909,0.7900000214576721
848,0.08051418513059616,0.8799999952316284,0.14761650562286377,0.7900000214576721
849,0.08267626166343689,0.8799999952316284,0.1476312130689621,0.7900000214576721
850,0.08056160807609558,0.8799999952316284,0.1479089856147766,0.800000011920929
851,0.08071718364953995,0.8700000047683716,0.1484462022781372,0.7900000214576721
852,0.08029335737228394,0.8799999952316284,0.1487298458814621,0.7900000214576721
853,0.08073198050260544,0.8600000143051147,0.1490696370601654,0.7900000214576721
854,0.08056005835533142,0.8600000143051147,0.14861994981765747,0.7900000214576721
855,0.08163285255432129,0.8700000047683716,0.14804653823375702,0.7900000214576721
856,0.0808129757642746,0.8799999952316284,0.1482362151145935,0.7900000214576721
857,0.08018992096185684,0.8700000047683716,0.14817503094673157,0.7900000214576721
858,0.0800783559679985,0.8700000047683716,0.14812539517879486,0.7900000214576721
859,0.08012193441390991,0.8700000047683716,0.14805305004119873,0.7900000214576721
860,0.07987558096647263,0.8700000047683716,0.14814132452011108,0.7900000214576721
861,0.08047502487897873,0.8700000047683716,0.14839278161525726,0.7900000214576721
862,0.08031127601861954,0.8700000047683716,0.1481272578239441,0.7900000214576721
863,0.08018776774406433,0.8799999952316284,0.14809343218803406,0.7900000214576721
864,0.08089698851108551,0.8799999952316284,0.14755599200725555,0.7900000214576721
865,0.07999662309885025,0.8799999952316284,0.14758147299289703,0.7900000214576721
866,0.07989823818206787,0.8799999952316284,0.14754776656627655,0.7900000214576721
867,0.08070451766252518,0.8899999856948853,0.14749151468276978,0.7900000214576721
868,0.07996362447738647,0.8899999856948853,0.1478956639766693,0.7900000214576721
869,0.07945409417152405,0.8899999856948853,0.14835481345653534,0.7900000214576721
870,0.07979894429445267,0.8799999952316284,0.14847950637340546,0.7900000214576721
871,0.07968481630086899,0.8799999952316284,0.14818918704986572,0.7900000214576721
872,0.08014678210020065,0.8899999856948853,0.14783962070941925,0.800000011920929
873,0.08006670325994492,0.8899999856948853,0.14775435626506805,0.800000011920929
874,0.07953803241252899,0.8899999856948853,0.14794188737869263,0.7900000214576721
875,0.07927427440881729,0.8799999952316284,0.1482921987771988,0.7900000214576721
876,0.0798221156001091,0.8700000047683716,0.14827066659927368,0.7900000214576721
877,0.07977784425020218,0.8700000047683716,0.14807724952697754,0.7900000214576721
878,0.07978503406047821,0.8700000047683716,0.14843322336673737,0.7900000214576721
879,0.07957884669303894,0.8700000047683716,0.1482492834329605,0.7900000214576721
880,0.07938841730356216,0.8799999952316284,0.14803951978683472,0.7900000214576721
881,0.07928094267845154,0.8899999856948853,0.14789433777332306,0.7799999713897705
882,0.0793389156460762,0.8799999952316284,0.1478453278541565,0.7799999713897705
883,0.07921753078699112,0.8799999952316284,0.1481972485780716,0.7900000214576721
884,0.07979557663202286,0.8700000047683716,0.14848874509334564,0.7900000214576721
885,0.07988864183425903,0.8799999952316284,0.14813730120658875,0.7900000214576721
886,0.07962457090616226,0.8899999856948853,0.14813396334648132,0.7900000214576721
887,0.07937896996736526,0.8899999856948853,0.1481042504310608,0.7900000214576721
888,0.07969006150960922,0.8899999856948853,0.14796611666679382,0.800000011920929
889,0.07940120995044708,0.8899999856948853,0.1478041708469391,0.800000011920929
890,0.07946570217609406,0.8799999952316284,0.14785099029541016,0.7799999713897705
891,0.07920762896537781,0.8799999952316284,0.14809729158878326,0.7900000214576721
892,0.07892316579818726,0.8899999856948853,0.1481916308403015,0.7900000214576721
893,0.07927665114402771,0.8700000047683716,0.1480754017829895,0.7900000214576721
894,0.0790659636259079,0.8799999952316284,0.14816883206367493,0.7900000214576721
895,0.07900573313236237,0.8799999952316284,0.14800237119197845,0.7900000214576721
896,0.07910333573818207,0.8700000047683716,0.1480141282081604,0.7900000214576721
897,0.07904308289289474,0.8899999856948853,0.14766572415828705,0.7799999713897705
898,0.07889031618833542,0.8899999856948853,0.14747583866119385,0.800000011920929
899,0.07908377051353455,0.8899999856948853,0.147325336933136,0.800000011920929
900,0.07934623211622238,0.8899999856948853,0.14724791049957275,0.800000011920929
901,0.07960735261440277,0.8899999856948853,0.1471947729587555,0.800000011920929
902,0.07918309420347214,0.8899999856948853,0.14717063307762146,0.7900000214576721
903,0.07886788249015808,0.8899999856948853,0.14719797670841217,0.7799999713897705
904,0.07862767577171326,0.8899999856948853,0.1473127007484436,0.7799999713897705
905,0.07857490330934525,0.8899999856948853,0.14737442135810852,0.7799999713897705
906,0.07879442721605301,0.8899999856948853,0.14754314720630646,0.7900000214576721
907,0.07867804169654846,0.8799999952316284,0.14744974672794342,0.7900000214576721
908,0.07858189940452576,0.8799999952316284,0.14759962260723114,0.7900000214576721
909,0.07862626761198044,0.8700000047683716,0.14766967296600342,0.800000011920929
910,0.07922374457120895,0.8700000047683716,0.14781759679317474,0.7900000214576721
911,0.07941347360610962,0.8700000047683716,0.14726632833480835,0.800000011920929
912,0.07905462384223938,0.8799999952316284,0.14705577492713928,0.800000011920929
913,0.07861609011888504,0.8700000047683716,0.14626383781433105,0.7900000214576721
914,0.07859236747026443,0.8899999856948853,0.14601750671863556,0.7799999713897705
915,0.07828286290168762,0.8899999856948853,0.14622151851654053,0.7799999713897705
916,0.07816778868436813,0.8899999856948853,0.14627499878406525,0.7799999713897705
917,0.07841303944587708,0.8899999856948853,0.14641781151294708,0.7799999713897705
918,0.07776710391044617,0.8899999856948853,0.14648473262786865,0.7900000214576721
919,0.07884587347507477,0.8899999856948853,0.14645564556121826,0.7900000214576721
920,0.0786677822470665,0.8799999952316284,0.1463623195886612,0.800000011920929
921,0.07827229797840118,0.8899999856948853,0.1465703248977661,0.7799999713897705
922,0.0778370350599289,0.8899999856948853,0.14666152000427246,0.7799999713897705
923,0.07821815460920334,0.8899999856948853,0.14673088490962982,0.7799999713897705
924,0.07807105779647827,0.8899999856948853,0.14723065495491028,0.7900000214576721
925,0.0781446248292923,0.8799999952316284,0.1474989354610443,0.800000011920929
926,0.0781334862112999,0.8799999952316284,0.14777716994285583,0.800000011920929
927,0.07836783677339554,0.8799999952316284,0.14749084413051605,0.800000011920929
928,0.07815660536289215,0.8799999952316284,0.14715972542762756,0.7900000214576721
929,0.07774053514003754,0.8899999856948853,0.14710523188114166,0.7900000214576721
930,0.07779854536056519,0.8799999952316284,0.14700908958911896,0.7900000214576721
931,0.07804898172616959,0.8799999952316284,0.146898552775383,0.800000011920929
932,0.07833521068096161,0.8899999856948853,0.14761023223400116,0.800000011920929
933,0.07780109345912933,0.8799999952316284,0.1475331038236618,0.800000011920929
934,0.07764782756567001,0.8899999856948853,0.14748407900333405,0.7900000214576721
935,0.07821712642908096,0.8899999856948853,0.14766578376293182,0.800000011920929
936,0.0777691900730133,0.8799999952316284,0.14733605086803436,0.7900000214576721
937,0.07754165679216385,0.8799999952316284,0.147123321890831,0.7900000214576721
938,0.07768712937831879,0.8799999952316284,0.14714452624320984,0.800000011920929
939,0.07811280339956284,0.8899999856948853,0.1472841203212738,0.800000011920929
940,0.07817769795656204,0.8899999856948853,0.14735446870326996,0.800000011920929
941,0.07802672684192657,0.8899999856948853,0.1474090814590454,0.800000011920929
942,0.07776704430580139,0.8899999856948853,0.14746616780757904,0.7900000214576721
943,0.07734229415655136,0.8899999856948853,0.1473548710346222,0.800000011920929
944,0.07774036377668381,0.8899999856948853,0.1473684310913086,0.800000011920929
945,0.07756254076957703,0.8899999856948853,0.14732052385807037,0.800000011920929
946,0.07728946954011917,0.8899999856948853,0.14733505249023438,0.7799999713897705
947,0.07719340175390244,0.8899999856948853,0.14736272394657135,0.7900000214576721
948,0.07729222625494003,0.8899999856948853,0.1474858522415161,0.7900000214576721
949,0.07718664407730103,0.8899999856948853,0.14747248589992523,0.7900000214576721
950,0.0771527886390686,0.8899999856948853,0.14751176536083221,0.800000011920929
951,0.0768137276172638,0.8899999856948853,0.14781875908374786,0.7900000214576721
952,0.0769951194524765,0.8799999952316284,0.14812520146369934,0.800000011920929
953,0.07706686854362488,0.8899999856948853,0.14807146787643433,0.800000011920929
954,0.07715851813554764,0.8799999952316284,0.14797204732894897,0.800000011920929
955,0.07798200100660324,0.8799999952316284,0.14743193984031677,0.7900000214576721
956,0.07700243592262268,0.8899999856948853,0.14745010435581207,0.7900000214576721
957,0.07684836536645889,0.8799999952316284,0.14747846126556396,0.7900000214576721
958,0.0773048996925354,0.8799999952316284,0.14759746193885803,0.800000011920929
959,0.07708242535591125,0.8899999856948853,0.14728574454784393,0.7900000214576721
960,0.07693343609571457,0.8799999952316284,0.14728295803070068,0.7900000214576721
961,0.07714978605508804,0.8899999856948853,0.14763061702251434,0.800000011920929
962,0.07693392038345337,0.8899999856948853,0.14760924875736237,0.800000011920929
963,0.07723836600780487,0.8799999952316284,0.14718258380889893,0.800000011920929
964,0.07655208557844162,0.8799999952316284,0.14694328606128693,0.800000011920929
965,0.07635534554719925,0.8799999952316284,0.14679862558841705,0.7900000214576721
966,0.07682738453149796,0.8899999856948853,0.14682073891162872,0.800000011920929
967,0.07743209600448608,0.8899999856948853,0.14702920615673065,0.800000011920929
968,0.07661221921443939,0.8899999856948853,0.14699174463748932,0.7900000214576721
969,0.07604720443487167,0.8899999856948853,0.14725349843502045,0.7900000214576721
970,0.07651948183774948,0.8899999856948853,0.14755462110042572,0.800000011920929
971,0.0764675885438919,0.8899999856948853,0.14741520583629608,0.800000011920929
972,0.07661473006010056,0.8899999856948853,0.14708061516284943,0.800000011920929
973,0.07622760534286499,0.8899999856948853,0.14692135155200958,0.7900000214576721
974,0.07622581720352173,0.8899999856948853,0.1467965692281723,0.7900000214576721
975,0.07627666741609573,0.8899999856948853,0.14691783487796783,0.800000011920929
976,0.07642974704504013,0.8899999856948853,0.14683476090431213,0.7900000214576721
977,0.0761633962392807,0.8899999856948853,0.1472463756799698,0.7900000214576721
978,0.07651924341917038,0.8899999856948853,0.1474681794643402,0.7900000214576721
979,0.07604966312646866,0.8899999856948853,0.14736582338809967,0.7900000214576721
980,0.0763472244143486,0.8899999856948853,0.1476002335548401,0.800000011920929
981,0.07617709785699844,0.8899999856948853,0.14761459827423096,0.800000011920929
982,0.07623665034770966,0.8899999856948853,0.14741598069667816,0.800000011920929
983,0.07638122141361237,0.8899999856948853,0.14709921181201935,0.800000011920929
984,0.07600001245737076,0.8899999856948853,0.14714127779006958,0.800000011920929
985,0.07559928297996521,0.8799999952316284,0.14689284563064575,0.7900000214576721
986,0.07620564103126526,0.8899999856948853,0.14695847034454346,0.800000011920929
987,0.07676716148853302,0.8899999856948853,0.14690087735652924,0.800000011920929
988,0.07597282528877258,0.8899999856948853,0.14696668088436127,0.7900000214576721
989,0.076030433177948,0.8899999856948853,0.14714311063289642,0.7900000214576721
990,0.07600700110197067,0.8899999856948853,0.14710719883441925,0.800000011920929
991,0.07604917138814926,0.8899999856948853,0.1468062847852707,0.800000011920929
992,0.07622208446264267,0.8899999856948853,0.14678925275802612,0.7900000214576721
993,0.07549778372049332,0.8899999856948853,0.14655928313732147,0.7900000214576721
994,0.07590386271476746,0.8899999856948853,0.14616814255714417,0.7900000214576721
995,0.07581783831119537,0.8899999856948853,0.14586524665355682,0.7900000214576721
996,0.07568065077066422,0.8899999856948853,0.14593197405338287,0.7900000214576721
997,0.07549531757831573,0.8899999856948853,0.14593181014060974,0.7900000214576721
998,0.07563307136297226,0.8899999856948853,0.14600291848182678,0.7900000214576721
999,0.07525166124105453,0.8899999856948853,0.14609478414058685,0.7900000214576721
1000,0.07553473860025406,0.8899999856948853,0.1464197039604187,0.800000011920929
1001,0.07548488676548004,0.8899999856948853,0.14654719829559326,0.800000011920929
1002,0.07513353228569031,0.8899999856948853,0.14652660489082336,0.800000011920929
1003,0.07507117092609406,0.8899999856948853,0.14651384949684143,0.7900000214576721
1004,0.07504233717918396,0.8899999856948853,0.14618630707263947,0.7900000214576721
1005,0.07503028213977814,0.8899999856948853,0.14617927372455597,0.7900000214576721
1006,0.07481294870376587,0.8799999952316284,0.14617590606212616,0.800000011920929
1007,0.07505142688751221,0.8899999856948853,0.14619560539722443,0.800000011920929
1008,0.07496867328882217,0.8899999856948853,0.14602704346179962,0.7900000214576721
1009,0.07526452839374542,0.8799999952316284,0.1459842324256897,0.800000011920929
1010,0.07518081367015839,0.8899999856948853,0.14632464945316315,0.7900000214576721
1011,0.0752548947930336,0.8799999952316284,0.1461786925792694,0.7900000214576721
1012,0.07488615810871124,0.8899999856948853,0.14627042412757874,0.7900000214576721
1013,0.07451131939888,0.8899999856948853,0.14672137796878815,0.7900000214576721
1014,0.07503081858158112,0.8899999856948853,0.14672863483428955,0.800000011920929
1015,0.07510758936405182,0.8799999952316284,0.14695656299591064,0.7900000214576721
1016,0.07544143497943878,0.8799999952316284,0.14666728675365448,0.7900000214576721
1017,0.07443607598543167,0.8899999856948853,0.1467655450105667,0.800000011920929
1018,0.07435658574104309,0.8899999856948853,0.1472710222005844,0.800000011920929
1019,0.07476302981376648,0.9100000262260437,0.14724616706371307,0.800000011920929
1020,0.07457427680492401,0.8999999761581421,0.1469930112361908,0.800000011920929
1021,0.07459529489278793,0.8799999952316284,0.14663921296596527,0.800000011920929
1022,0.07434891909360886,0.8799999952316284,0.1467084288597107,0.800000011920929
1023,0.07463966310024261,0.8999999761581421,0.14662379026412964,0.800000011920929
1024,0.0744251012802124,0.8999999761581421,0.14626583456993103,0.800000011920929
1025,0.07445116341114044,0.8899999856948853,0.1463242471218109,0.800000011920929
1026,0.0749184638261795,0.8899999856948853,0.14627516269683838,0.7900000214576721
1027,0.07410210371017456,0.8899999856948853,0.14645510911941528,0.800000011920929
1028,0.07414742559194565,0.8899999856948853,0.14684374630451202,0.800000011920929
1029,0.074310801923275,0.8999999761581421,0.14687025547027588,0.800000011920929
1030,0.0740809515118599,0.8999999761581421,0.14714685082435608,0.800000011920929
1031,0.07409761846065521,0.8999999761581421,0.14752955734729767,0.7900000214576721
1032,0.0742003321647644,0.8799999952316284,0.14766746759414673,0.800000011920929
1033,0.074101023375988,0.8799999952316284,0.14754793047904968,0.800000011920929
1034,0.07385813444852829,0.8799999952316284,0.14748448133468628,0.800000011920929
1035,0.07425034791231155,0.8899999856948853,0.14785823225975037,0.800000011920929
1036,0.0739794671535492,0.8899999856948853,0.14767739176750183,0.800000011920929
1037,0.07403849810361862,0.8899999856948853,0.14764781296253204,0.800000011920929
1038,0.07391639053821564,0.8899999856948853,0.1472839117050171,0.7900000214576721
1039,0.07448172569274902,0.8899999856948853,0.14734946191310883,0.800000011920929
1040,0.07414233684539795,0.8899999856948853,0.14717604219913483,0.7900000214576721
1041,0.0740436241030693,0.8899999856948853,0.14718537032604218,0.800000011920929
1042,0.07378312200307846,0.8899999856948853,0.14731484651565552,0.800000011920929
1043,0.07362700998783112,0.8899999856948853,0.14694012701511383,0.800000011920929
1044,0.07372573763132095,0.8899999856948853,0.14673104882240295,0.800000011920929
1045,0.07336761802434921,0.8899999856948853,0.1468757838010788,0.800000011920929
1046,0.07439456135034561,0.9100000262260437,0.1471714973449707,0.800000011920929
1047,0.07388583570718765,0.9100000262260437,0.14671488106250763,0.800000011920929
1048,0.07345471531152725,0.8899999856948853,0.1461881548166275,0.800000011920929
1049,0.07349267601966858,0.8999999761581421,0.1460900455713272,0.800000011920929
1050,0.07374361902475357,0.8999999761581421,0.1459580957889557,0.7900000214576721
1051,0.0737486481666565,0.8899999856948853,0.145999476313591,0.7900000214576721
1052,0.07429800927639008,0.8899999856948853,0.14642436802387238,0.800000011920929
1053,0.07394517213106155,0.8899999856948853,0.14644724130630493,0.7900000214576721
1054,0.07300824671983719,0.8899999856948853,0.14650492370128632,0.800000011920929
1055,0.07306213676929474,0.8899999856948853,0.14694224298000336,0.8100000023841858
1056,0.07329080253839493,0.9100000262260437,0.14716896414756775,0.800000011920929
1057,0.07375501841306686,0.9100000262260437,0.14776962995529175,0.800000011920929
1058,0.07365132123231888,0.9100000262260437,0.14750580489635468,0.800000011920929
1059,0.07324979454278946,0.9100000262260437,0.14752702414989471,0.800000011920929
1060,0.07301369309425354,0.8999999761581421,0.14732733368873596,0.8100000023841858
1061,0.0729084238409996,0.8899999856948853,0.14701658487319946,0.800000011920929
1062,0.07268453389406204,0.8999999761581421,0.14670535922050476,0.800000011920929
1063,0.07276823371648788,0.8999999761581421,0.1465330868959427,0.800000011920929
1064,0.07268952578306198,0.8999999761581421,0.1464291363954544,0.800000011920929
1065,0.07287874072790146,0.8999999761581421,0.1465112715959549,0.800000011920929
1066,0.07306959480047226,0.8999999761581421,0.14646171033382416,0.800000011920929
1067,0.07272942364215851,0.8999999761581421,0.14652860164642334,0.7900000214576721
1068,0.07267147302627563,0.8999999761581421,0.14639067649841309,0.800000011920929
1069,0.07244087755680084,0.8999999761581421,0.1464594453573227,0.800000011920929
1070,0.07228709757328033,0.8999999761581421,0.14679491519927979,0.8100000023841858
1071,0.0725024938583374,0.8999999761581421,0.14676889777183533,0.8100000023841858
1072,0.07234664261341095,0.8999999761581421,0.14677780866622925,0.8100000023841858
1073,0.0722632184624672,0.8999999761581421,0.14721189439296722,0.8100000023841858
1074,0.07340813428163528,0.8999999761581421,0.14823809266090393,0.7900000214576721
1075,0.07329689711332321,0.8999999761581421,0.1479950249195099,0.800000011920929
1076,0.07283622026443481,0.9100000262260437,0.14731179177761078,0.8100000023841858
1077,0.07214706391096115,0.8999999761581421,0.1474156379699707,0.8100000023841858
1078,0.07225960493087769,0.8899999856948853,0.14739957451820374,0.800000011920929
1079,0.07246801257133484,0.8999999761581421,0.1468001902103424,0.7900000214576721
1080,0.07268383353948593,0.8999999761581421,0.14663952589035034,0.7900000214576721
1081,0.07243259251117706,0.8999999761581421,0.14656545221805573,0.7900000214576721
1082,0.0722300112247467,0.8999999761581421,0.14667311310768127,0.800000011920929
1083,0.07186241447925568,0.8999999761581421,0.14668790996074677,0.800000011920929
1084,0.07181031256914139,0.8999999761581421,0.14665979146957397,0.800000011920929
1085,0.07202405482530594,0.8999999761581421,0.14651519060134888,0.800000011920929
1086,0.07177013158798218,0.8999999761581421,0.14635580778121948,0.800000011920929
1087,0.07175455242395401,0.8999999761581421,0.14601895213127136,0.800000011920929
1088,0.07165196537971497,0.8999999761581421,0.14595988392829895,0.800000011920929
1089,0.07179662585258484,0.8999999761581421,0.14597301185131073,0.8100000023841858
1090,0.07186241447925568,0.8999999761581421,0.14652200043201447,0.8100000023841858
1091,0.07193592190742493,0.8999999761581421,0.14651912450790405,0.800000011920929
1092,0.07140792161226273,0.8999999761581421,0.14699092507362366,0.8100000023841858
1093,0.07155821472406387,0.8899999856948853,0.14758330583572388,0.8100000023841858
1094,0.0719335526227951,0.8899999856948853,0.14790193736553192,0.8100000023841858
1095,0.0719669833779335,0.8999999761581421,0.14793744683265686,0.8100000023841858
1096,0.07125816494226456,0.8999999761581421,0.14745528995990753,0.7900000214576721
1097,0.07170399278402328,0.8999999761581421,0.14729566872119904,0.7900000214576721
1098,0.07148969918489456,0.8999999761581421,0.14715784788131714,0.7900000214576721
1099,0.07167332619428635,0.8999999761581421,0.14696283638477325,0.7900000214576721
1100,0.07130061835050583,0.8999999761581421,0.14692836999893188,0.800000011920929
1101,0.07102899253368378,0.8999999761581421,0.14694184064865112,0.800000011920929
1102,0.07121403515338898,0.8999999761581421,0.1467260867357254,0.800000011920929
1103,0.07107768207788467,0.8999999761581421,0.14662078022956848,0.800000011920929
1104,0.07098372280597687,0.8999999761581421,0.14653150737285614,0.800000011920929
1105,0.07156820595264435,0.8999999761581421,0.14647206664085388,0.800000011920929
1106,0.07075514644384384,0.8999999761581421,0.14614784717559814,0.800000011920929
1107,0.0711372047662735,0.8999999761581421,0.14594388008117676,0.800000011920929
1108,0.07149763405323029,0.8999999761581421,0.1461939960718155,0.800000011920929
1109,0.07091513276100159,0.8999999761581421,0.14624275267124176,0.800000011920929
1110,0.07103881239891052,0.8999999761581421,0.14642642438411713,0.8100000023841858
1111,0.07090377062559128,0.9100000262260437,0.14632317423820496,0.800000011920929
1112,0.0714707151055336,0.8999999761581421,0.14618760347366333,0.800000011920929
1113,0.07092805951833725,0.8999999761581421,0.14604249596595764,0.800000011920929
1114,0.0708080306649208,0.8999999761581421,0.146175816655159,0.800000011920929
1115,0.07058008015155792,0.8999999761581421,0.14632411301136017,0.800000011920929
1116,0.07138924300670624,0.8999999761581421,0.14633378386497498,0.7900000214576721
1117,0.07056659460067749,0.8999999761581421,0.14625407755374908,0.800000011920929
1118,0.07041775435209274,0.8999999761581421,0.14610974490642548,0.800000011920929
1119,0.07027379423379898,0.8999999761581421,0.14603939652442932,0.800000011920929
1120,0.07157645374536514,0.8999999761581421,0.14598701894283295,0.800000011920929
1121,0.07061397284269333,0.8999999761581421,0.14611652493476868,0.800000011920929
1122,0.0708978995680809,0.8999999761581421,0.14647743105888367,0.8100000023841858
1123,0.07014797627925873,0.8999999761581421,0.14642979204654694,0.800000011920929
1124,0.07062985748052597,0.8999999761581421,0.14628933370113373,0.800000011920929
1125,0.07035146653652191,0.8999999761581421,0.146218404173851,0.800000011920929
1126,0.07006724178791046,0.8999999761581421,0.14626918733119965,0.800000011920929
1127,0.07010003924369812,0.8999999761581421,0.14639782905578613,0.8100000023841858
1128,0.07021491229534149,0.9100000262260437,0.1463734656572342,0.8100000023841858
1129,0.0700591504573822,0.9100000262260437,0.14643871784210205,0.8100000023841858
1130,0.0703401267528534,0.9200000166893005,0.1463984251022339,0.8100000023841858
1131,0.0700094997882843,0.9200000166893005,0.14606326818466187,0.8100000023841858
1132,0.06961767375469208,0.8999999761581421,0.1458856165409088,0.800000011920929
1133,0.07010629773139954,0.8999999761581421,0.14593371748924255,0.800000011920929
1134,0.06937053799629211,0.8999999761581421,0.1459217369556427,0.8100000023841858
1135,0.0710676833987236,0.9100000262260437,0.14724425971508026,0.7799999713897705
1136,0.07137242704629898,0.8999999761581421,0.14778536558151245,0.7799999713897705
1137,0.07019564509391785,0.9200000166893005,0.14661890268325806,0.8100000023841858
1138,0.06953763961791992,0.8999999761581421,0.14619497954845428,0.800000011920929
1139,0.06957802921533585,0.8999999761581421,0.14615918695926666,0.800000011920929
1140,0.07010430842638016,0.9100000262260437,0.14633461833000183,0.800000011920929
1141,0.07023514062166214,0.9100000262260437,0.14673087000846863,0.800000011920929
1142,0.06976879388093948,0.9100000262260437,0.14687418937683105,0.800000011920929
1143,0.0696338638663292,0.8999999761581421,0.14700399339199066,0.800000011920929
1144,0.0698312297463417,0.8999999761581421,0.14680606126785278,0.8100000023841858
1145,0.06915457546710968,0.8999999761581421,0.14643262326717377,0.800000011920929
1146,0.06931836903095245,0.9100000262260437,0.14635910093784332,0.800000011920929
1147,0.06939006596803665,0.9100000262260437,0.14602309465408325,0.800000011920929
1148,0.06926087290048599,0.8999999761581421,0.14598692953586578,0.800000011920929
1149,0.06919223070144653,0.8999999761581421,0.14611266553401947,0.800000011920929
1150,0.0688786581158638,0.8999999761581421,0.14608260989189148,0.800000011920929
1151,0.06893269717693329,0.8999999761581421,0.14594930410385132,0.800000011920929
1152,0.06943343579769135,0.8999999761581421,0.1460021734237671,0.800000011920929
1153,0.06888134032487869,0.8999999761581421,0.14592532813549042,0.800000011920929
1154,0.06870868057012558,0.9100000262260437,0.14634385704994202,0.8100000023841858
1155,0.06917785108089447,0.9200000166893005,0.14653249084949493,0.8100000023841858
1156,0.06910587102174759,0.9100000262260437,0.1460101455450058,0.800000011920929
1157,0.0686177983880043,0.8999999761581421,0.14595384895801544,0.800000011920929
1158,0.06844990700483322,0.8999999761581421,0.1458614468574524,0.800000011920929
1159,0.06851112097501755,0.8999999761581421,0.14584556221961975,0.800000011920929
1160,0.06813307106494904,0.8999999761581421,0.14580664038658142,0.800000011920929
1161,0.06868059933185577,0.9100000262260437,0.14586710929870605,0.800000011920929
1162,0.06975419819355011,0.9100000262260437,0.14627093076705933,0.800000011920929
1163,0.06876347959041595,0.9100000262260437,0.14629867672920227,0.800000011920929
1164,0.06849190592765808,0.9100000262260437,0.14635294675827026,0.800000011920929
1165,0.06832028180360794,0.9100000262260437,0.14640159904956818,0.800000011920929
1166,0.06827576458454132,0.9100000262260437,0.14638705551624298,0.800000011920929
1167,0.06857247650623322,0.8999999761581421,0.14645880460739136,0.800000011920929
1168,0.06826761364936829,0.8999999761581421,0.14621205627918243,0.800000011920929
1169,0.06858372688293457,0.9100000262260437,0.14631406962871552,0.8100000023841858
1170,0.06820300221443176,0.9200000166893005,0.1461006999015808,0.8100000023841858
1171,0.06829624623060226,0.9100000262260437,0.14557401835918427,0.800000011920929
1172,0.06841595470905304,0.8999999761581421,0.14542147517204285,0.800000011920929
1173,0.06793972104787827,0.8999999761581421,0.145470529794693,0.800000011920929
1174,0.06809502840042114,0.8999999761581421,0.145946204662323,0.800000011920929
1175,0.06812898814678192,0.8999999761581421,0.14592979848384857,0.800000011920929
1176,0.06863705813884735,0.9100000262260437,0.1462680846452713,0.8100000023841858
1177,0.06813783198595047,0.9200000166893005,0.14580462872982025,0.800000011920929
1178,0.06797952950000763,0.8999999761581421,0.1457551270723343,0.800000011920929
1179,0.0679730549454689,0.8999999761581421,0.1452949494123459,0.800000011920929
1180,0.06958398222923279,0.9100000262260437,0.1456824541091919,0.8100000023841858
1181,0.06919389963150024,0.9100000262260437,0.14578603208065033,0.8100000023841858
1182,0.06874800473451614,0.9100000262260437,0.14553765952587128,0.800000011920929
1183,0.06851066648960114,0.8999999761581421,0.14571647346019745,0.800000011920929
1184,0.06783723831176758,0.9200000166893005,0.14600133895874023,0.800000011920929
1185,0.06783635914325714,0.9300000071525574,0.14586275815963745,0.800000011920929
1186,0.067186638712883,0.9100000262260437,0.14554542303085327,0.800000011920929
1187,0.06806032359600067,0.8999999761581421,0.14535973966121674,0.800000011920929
1188,0.06785090267658234,0.9100000262260437,0.14525173604488373,0.800000011920929
1189,0.06726250052452087,0.9100000262260437,0.14537553489208221,0.800000011920929
1190,0.06746379286050797,0.9100000262260437,0.14552536606788635,0.800000011920929
1191,0.06757349520921707,0.8999999761581421,0.14534109830856323,0.800000011920929
1192,0.06716086715459824,0.8999999761581421,0.14540837705135345,0.800000011920929
1193,0.06711933761835098,0.9200000166893005,0.14563077688217163,0.800000011920929
1194,0.06732895225286484,0.8999999761581421,0.14546312391757965,0.800000011920929
1195,0.06682281196117401,0.8999999761581421,0.14566755294799805,0.800000011920929
1196,0.0668872520327568,0.8999999761581421,0.14601370692253113,0.800000011920929
1197,0.06683164834976196,0.9100000262260437,0.14549916982650757,0.800000011920929
1198,0.06660933792591095,0.9100000262260437,0.1453709453344345,0.800000011920929
1199,0.06671485304832458,0.9100000262260437,0.14511160552501678,0.800000011920929
1200,0.0667276605963707,0.9100000262260437,0.14502543210983276,0.800000011920929
1201,0.06712473183870316,0.9200000166893005,0.1448032706975937,0.800000011920929
1202,0.0666140764951706,0.9100000262260437,0.1447623074054718,0.800000011920929
1203,0.06660142540931702,0.9100000262260437,0.14485229551792145,0.800000011920929
1204,0.06679560989141464,0.9100000262260437,0.14504294097423553,0.800000011920929
1205,0.06655146181583405,0.9100000262260437,0.14518246054649353,0.800000011920929
1206,0.0666097030043602,0.9200000166893005,0.14554670453071594,0.800000011920929
1207,0.06658416986465454,0.8999999761581421,0.1455860137939453,0.800000011920929
1208,0.06663834303617477,0.9100000262260437,0.14539073407649994,0.800000011920929
1209,0.06608708202838898,0.9200000166893005,0.14542846381664276,0.800000011920929
1210,0.06673794239759445,0.9100000262260437,0.14498543739318848,0.800000011920929
1211,0.06628833711147308,0.9200000166893005,0.14491762220859528,0.800000011920929
1212,0.0662461370229721,0.9200000166893005,0.14471286535263062,0.800000011920929
1213,0.06612268090248108,0.9200000166893005,0.1448507159948349,0.8100000023841858
1214,0.0662851631641388,0.9200000166893005,0.14461897313594818,0.800000011920929
1215,0.06606388837099075,0.9100000262260437,0.14471042156219482,0.800000011920929
1216,0.06590287387371063,0.9100000262260437,0.14443454146385193,0.800000011920929
1217,0.06595370918512344,0.9100000262260437,0.1444864124059677,0.800000011920929
1218,0.06584649533033371,0.9200000166893005,0.14508292078971863,0.800000011920929
1219,0.06591092050075531,0.9100000262260437,0.14514116942882538,0.800000011920929
1220,0.06572746485471725,0.9100000262260437,0.1450360119342804,0.800000011920929
1221,0.06550908833742142,0.9200000166893005,0.14508011937141418,0.800000011920929
1222,0.0656999722123146,0.9200000166893005,0.1450124979019165,0.800000011920929
1223,0.06568736582994461,0.9200000166893005,0.14516280591487885,0.800000011920929
1224,0.0657072588801384,0.9200000166893005,0.14555509388446808,0.800000011920929
1225,0.06557124108076096,0.9100000262260437,0.1451205313205719,0.800000011920929
1226,0.06552772223949432,0.9100000262260437,0.14476697146892548,0.800000011920929
1227,0.06555318087339401,0.9100000262260437,0.14467832446098328,0.800000011920929
1228,0.06526099145412445,0.9200000166893005,0.1453060656785965,0.800000011920929
1229,0.06535574793815613,0.9100000262260437,0.14580711722373962,0.800000011920929
1230,0.06554059684276581,0.9300000071525574,0.14645472168922424,0.800000011920929
1231,0.06556597352027893,0.9300000071525574,0.14649872481822968,0.800000011920929
1232,0.06697402894496918,0.9200000166893005,0.14689211547374725,0.800000011920929
1233,0.06562919914722443,0.9200000166893005,0.1462153196334839,0.800000011920929
1234,0.06620525568723679,0.8999999761581421,0.14577026665210724,0.800000011920929
1235,0.06552199274301529,0.8999999761581421,0.14559312164783478,0.800000011920929
1236,0.06513822078704834,0.9100000262260437,0.14557723701000214,0.800000011920929
1237,0.06458520889282227,0.9200000166893005,0.1452779471874237,0.800000011920929
1238,0.06505570560693741,0.9200000166893005,0.14502908289432526,0.800000011920929
1239,0.06488041579723358,0.9200000166893005,0.1449132114648819,0.800000011920929
1240,0.06440306454896927,0.9300000071525574,0.1449500471353531,0.800000011920929
1241,0.06518467515707016,0.9200000166893005,0.14477090537548065,0.800000011920929
1242,0.06528113037347794,0.9300000071525574,0.14517736434936523,0.8100000023841858
1243,0.06529417634010315,0.9200000166893005,0.14480912685394287,0.8100000023841858
1244,0.06447705626487732,0.9200000166893005,0.14458215236663818,0.800000011920929
1245,0.06410538405179977,0.9100000262260437,0.14495694637298584,0.800000011920929
1246,0.06551137566566467,0.9100000262260437,0.14547577500343323,0.800000011920929
1247,0.06547655165195465,0.9100000262260437,0.14553073048591614,0.800000011920929
1248,0.06515401601791382,0.9100000262260437,0.14584235846996307,0.800000011920929
1249,0.06464651972055435,0.9100000262260437,0.1457337588071823,0.800000011920929
1250,0.06410197913646698,0.9200000166893005,0.14596860110759735,0.800000011920929
1251,0.06422793120145798,0.9300000071525574,0.14650952816009521,0.8100000023841858
1252,0.0651313066482544,0.9200000166893005,0.14651845395565033,0.8100000023841858
1253,0.0650012195110321,0.9200000166893005,0.1456276923418045,0.8100000023841858
1254,0.06486477702856064,0.9200000166893005,0.14464369416236877,0.800000011920929
1255,0.06408298015594482,0.9200000166893005,0.14452391862869263,0.800000011920929
1256,0.06397326290607452,0.9200000166893005,0.14462758600711823,0.800000011920929
1257,0.06385088711977005,0.9200000166893005,0.14452338218688965,0.800000011920929
1258,0.06380535662174225,0.9200000166893005,0.14458122849464417,0.800000011920929
1259,0.06405565142631531,0.9200000166893005,0.1444779634475708,0.800000011920929
1260,0.06379647552967072,0.9200000166893005,0.1445181965827942,0.800000011920929
1261,0.06445714831352234,0.9100000262260437,0.14509761333465576,0.800000011920929
1262,0.06445147097110748,0.9100000262260437,0.1452137976884842,0.800000011920929
1263,0.06412055343389511,0.9100000262260437,0.14529046416282654,0.800000011920929
1264,0.06358960270881653,0.9200000166893005,0.14561344683170319,0.800000011920929
1265,0.06391174346208572,0.9300000071525574,0.14572806656360626,0.800000011920929
1266,0.06362684816122055,0.9200000166893005,0.1454305201768875,0.800000011920929
1267,0.06335297226905823,0.9200000166893005,0.1452219933271408,0.800000011920929
1268,0.06385715305805206,0.9200000166893005,0.14524118602275848,0.800000011920929
1269,0.06367984414100647,0.9200000166893005,0.14602062106132507,0.800000011920929
1270,0.06385945528745651,0.9300000071525574,0.1463685929775238,0.800000011920929
1271,0.06338389217853546,0.9399999976158142,0.14598312973976135,0.800000011920929
1272,0.06354191899299622,0.9200000166893005,0.14578089118003845,0.800000011920929
1273,0.06406882405281067,0.9100000262260437,0.1459430307149887,0.800000011920929
1274,0.0637359768152237,0.9200000166893005,0.14587776362895966,0.800000011920929
1275,0.0632769837975502,0.9200000166893005,0.14593210816383362,0.800000011920929
1276,0.06363131105899811,0.9300000071525574,0.1460132747888565,0.8100000023841858
1277,0.06337680667638779,0.9300000071525574,0.1455286294221878,0.800000011920929
1278,0.06309403479099274,0.9300000071525574,0.1451318860054016,0.800000011920929
1279,0.06267818063497543,0.9200000166893005,0.14493368566036224,0.800000011920929
1280,0.06268291175365448,0.9200000166893005,0.14483800530433655,0.800000011920929
1281,0.06330973654985428,0.9100000262260437,0.1448272466659546,0.800000011920929
1282,0.06269457191228867,0.9200000166893005,0.14509692788124084,0.800000011920929
1283,0.06265692412853241,0.9399999976158142,0.14543674886226654,0.800000011920929
1284,0.06367382407188416,0.9300000071525574,0.14565816521644592,0.8100000023841858
1285,0.06331269443035126,0.9300000071525574,0.1449403017759323,0.800000011920929
1286,0.06379705667495728,0.9200000166893005,0.1446501612663269,0.800000011920929
1287,0.06249680370092392,0.9200000166893005,0.14446453750133514,0.800000011920929
1288,0.062386177480220795,0.9200000166893005,0.14439460635185242,0.800000011920929
1289,0.06242182105779648,0.9200000166893005,0.1442612111568451,0.800000011920929
1290,0.06232438236474991,0.9200000166893005,0.14428751170635223,0.800000011920929
1291,0.062668576836586,0.9300000071525574,0.14447204768657684,0.800000011920929
1292,0.06215542182326317,0.9200000166893005,0.14417564868927002,0.800000011920929
1293,0.06218772009015083,0.9200000166893005,0.1443081647157669,0.800000011920929
1294,0.06316548585891724,0.9100000262260437,0.14462313055992126,0.7900000214576721
1295,0.06284071505069733,0.9100000262260437,0.1443684697151184,0.800000011920929
1296,0.061617787927389145,0.9200000166893005,0.1443611979484558,0.800000011920929
1297,0.062145233154296875,0.9399999976158142,0.14485511183738708,0.800000011920929
1298,0.062481269240379333,0.9300000071525574,0.14474600553512573,0.800000011920929
1299,0.062178149819374084,0.9300000071525574,0.1445184350013733,0.800000011920929
1300,0.061893872916698456,0.9399999976158142,0.1445292830467224,0.800000011920929
1301,0.06258386373519897,0.9200000166893005,0.14457112550735474,0.800000011920929
1302,0.06194544956088066,0.9200000166893005,0.1446860432624817,0.800000011920929
1303,0.061890892684459686,0.9200000166893005,0.14474503695964813,0.800000011920929
1304,0.06179642304778099,0.9300000071525574,0.1454802304506302,0.800000011920929
1305,0.06251171976327896,0.9300000071525574,0.14584185183048248,0.800000011920929
1306,0.06145722419023514,0.9399999976158142,0.14519645273685455,0.800000011920929
1307,0.061572521924972534,0.9200000166893005,0.14482612907886505,0.800000011920929
1308,0.06148171052336693,0.9200000166893005,0.14474067091941833,0.800000011920929
1309,0.061618756502866745,0.9200000166893005,0.14466004073619843,0.800000011920929
1310,0.06187420338392258,0.9100000262260437,0.14469917118549347,0.800000011920929
1311,0.06152084469795227,0.9100000262260437,0.14466001093387604,0.800000011920929
1312,0.061263930052518845,0.9300000071525574,0.14462578296661377,0.800000011920929
1313,0.061180610209703445,0.9200000166893005,0.14460152387619019,0.800000011920929
1314,0.061706461012363434,0.9200000166893005,0.14488853514194489,0.800000011920929
1315,0.061218854039907455,0.9200000166893005,0.1450210064649582,0.800000011920929
1316,0.061015404760837555,0.9399999976158142,0.14502161741256714,0.800000011920929
1317,0.0622251071035862,0.9300000071525574,0.1453220397233963,0.800000011920929
1318,0.06177869811654091,0.9300000071525574,0.1450665444135666,0.800000011920929
1319,0.06050867587327957,0.9399999976158142,0.1447845697402954,0.800000011920929
1320,0.062070392072200775,0.9100000262260437,0.1448240429162979,0.800000011920929
1321,0.06109946221113205,0.9200000166893005,0.14449447393417358,0.800000011920929
1322,0.061284638941287994,0.9300000071525574,0.14476712048053741,0.800000011920929
1323,0.06088338419795036,0.9399999976158142,0.14489421248435974,0.800000011920929
1324,0.06125117465853691,0.9399999976158142,0.1451227366924286,0.800000011920929
1325,0.06103696674108505,0.9399999976158142,0.1448674350976944,0.800000011920929
1326,0.06103282794356346,0.9399999976158142,0.14466984570026398,0.800000011920929
1327,0.06064535304903984,0.9399999976158142,0.1444689780473709,0.800000011920929
1328,0.06066049262881279,0.9399999976158142,0.1443617343902588,0.800000011920929
1329,0.06050822138786316,0.9399999976158142,0.14403487741947174,0.800000011920929
1330,0.06022642180323601,0.9399999976158142,0.14410729706287384,0.800000011920929
1331,0.06017725169658661,0.9399999976158142,0.14419451355934143,0.800000011920929
1332,0.06021355092525482,0.9200000166893005,0.1442813277244568,0.800000011920929
1333,0.06026392802596092,0.9200000166893005,0.14434990286827087,0.800000011920929
1334,0.06034174934029579,0.9200000166893005,0.14444276690483093,0.800000011920929
1335,0.06059649959206581,0.9300000071525574,0.14456647634506226,0.800000011920929
1336,0.060091447085142136,0.9399999976158142,0.1445276141166687,0.800000011920929
1337,0.060008611530065536,0.9399999976158142,0.14445573091506958,0.800000011920929
1338,0.05992851406335831,0.9399999976158142,0.1444992870092392,0.800000011920929
1339,0.05992447957396507,0.9399999976158142,0.14462490379810333,0.800000011920929
1340,0.059854235500097275,0.9399999976158142,0.14467231929302216,0.800000011920929
1341,0.05992737412452698,0.9399999976158142,0.14464904367923737,0.800000011920929
1342,0.05984865128993988,0.9399999976158142,0.1441938728094101,0.800000011920929
1343,0.05983049049973488,0.9399999976158142,0.14418326318264008,0.800000011920929
1344,0.0599813237786293,0.9399999976158142,0.1439824402332306,0.800000011920929
1345,0.06019461527466774,0.9399999976158142,0.14417268335819244,0.8100000023841858
1346,0.05999702960252762,0.9399999976158142,0.1442425400018692,0.8100000023841858
1347,0.06050821393728256,0.9399999976158142,0.14368323981761932,0.800000011920929
1348,0.05986346676945686,0.9300000071525574,0.14362603425979614,0.800000011920929
1349,0.05956593155860901,0.9399999976158142,0.1437172144651413,0.800000011920929
1350,0.05941139534115791,0.9399999976158142,0.1437302827835083,0.800000011920929
1351,0.059287238866090775,0.9399999976158142,0.14384031295776367,0.800000011920929
1352,0.05923585593700409,0.9399999976158142,0.14391322433948517,0.800000011920929
1353,0.059255219995975494,0.9300000071525574,0.14392085373401642,0.800000011920929
1354,0.05963195487856865,0.9200000166893005,0.14388057589530945,0.800000011920929
1355,0.05917026102542877,0.9200000166893005,0.14399170875549316,0.800000011920929
1356,0.05923585966229439,0.9300000071525574,0.14411869645118713,0.800000011920929
1357,0.05898847058415413,0.9399999976158142,0.14430420100688934,0.800000011920929
1358,0.05906067416071892,0.9399999976158142,0.14439666271209717,0.800000011920929
1359,0.05899921432137489,0.9399999976158142,0.14399774372577667,0.800000011920929
1360,0.05928494781255722,0.9399999976158142,0.14394202828407288,0.800000011920929
1361,0.05923789367079735,0.9200000166893005,0.14392895996570587,0.800000011920929
1362,0.05898788943886757,0.9200000166893005,0.14394348859786987,0.800000011920929
1363,0.05893627181649208,0.9300000071525574,0.1442129760980606,0.800000011920929
1364,0.05862025171518326,0.9300000071525574,0.1443970650434494,0.800000011920929
1365,0.05932408943772316,0.9399999976158142,0.14487096667289734,0.8100000023841858
1366,0.058642756193876266,0.9399999976158142,0.14445272088050842,0.800000011920929
1367,0.05885867774486542,0.9399999976158142,0.14415684342384338,0.800000011920929
1368,0.058752402663230896,0.9200000166893005,0.14422333240509033,0.800000011920929
1369,0.05845886096358299,0.9200000166893005,0.1441524624824524,0.800000011920929
1370,0.0585867315530777,0.9399999976158142,0.14423616230487823,0.800000011920929
1371,0.05855961889028549,0.9399999976158142,0.14405272901058197,0.800000011920929
1372,0.058236345648765564,0.9399999976158142,0.14402833580970764,0.800000011920929
1373,0.058628231287002563,0.9200000166893005,0.14404410123825073,0.800000011920929
1374,0.05862196907401085,0.9300000071525574,0.14379118382930756,0.800000011920929
1375,0.058102432638406754,0.9200000166893005,0.1437930464744568,0.800000011920929
1376,0.059595007449388504,0.9399999976158142,0.14465230703353882,0.8100000023841858
1377,0.058548539876937866,0.9399999976158142,0.1444167196750641,0.800000011920929
1378,0.0581684447824955,0.9300000071525574,0.1442539244890213,0.800000011920929
1379,0.05803816020488739,0.9300000071525574,0.14420564472675323,0.800000011920929
1380,0.05804293602705002,0.9300000071525574,0.14454257488250732,0.800000011920929
1381,0.057891249656677246,0.9300000071525574,0.14474637806415558,0.800000011920929
1382,0.057827845215797424,0.9300000071525574,0.14451460540294647,0.800000011920929
1383,0.057851895689964294,0.9300000071525574,0.1445256471633911,0.800000011920929
1384,0.05778568610548973,0.9300000071525574,0.1445264220237732,0.800000011920929
1385,0.057664427906274796,0.9300000071525574,0.14457234740257263,0.800000011920929
1386,0.05793435499072075,0.9399999976158142,0.14452625811100006,0.7900000214576721
1387,0.057861071079969406,0.9399999976158142,0.14427265524864197,0.7900000214576721
1388,0.05817321687936783,0.9300000071525574,0.14384809136390686,0.7900000214576721
1389,0.05834627524018288,0.9300000071525574,0.14356860518455505,0.7900000214576721
1390,0.057844437658786774,0.9200000166893005,0.14384952187538147,0.8100000023841858
1391,0.058114372193813324,0.9399999976158142,0.14437155425548553,0.800000011920929
1392,0.058405809104442596,0.9399999976158142,0.14356845617294312,0.8100000023841858
1393,0.057503797113895416,0.9399999976158142,0.1429274082183838,0.8100000023841858
1394,0.05714922770857811,0.9399999976158142,0.14300940930843353,0.8100000023841858
1395,0.0571797713637352,0.9399999976158142,0.14271193742752075,0.8100000023841858
1396,0.0571090504527092,0.9399999976158142,0.14271779358386993,0.8100000023841858
1397,0.05719313770532608,0.9399999976158142,0.1429358273744583,0.8100000023841858
1398,0.05718518793582916,0.9399999976158142,0.1433001011610031,0.8100000023841858
1399,0.056938931345939636,0.9399999976158142,0.1430540233850479,0.8100000023841858
1400,0.057197026908397675,0.9399999976158142,0.1428644061088562,0.8100000023841858
1401,0.057085808366537094,0.9300000071525574,0.1429806500673294,0.800000011920929
1402,0.0569927915930748,0.9399999976158142,0.1433316469192505,0.800000011920929
1403,0.05671457201242447,0.9399999976158142,0.14351984858512878,0.800000011920929
1404,0.056950893253088,0.9399999976158142,0.14354953169822693,0.800000011920929
1405,0.056649163365364075,0.9399999976158142,0.14382360875606537,0.8100000023841858
1406,0.05657823011279106,0.9399999976158142,0.14370281994342804,0.8100000023841858
1407,0.056846894323825836,0.9399999976158142,0.1437697410583496,0.8100000023841858
1408,0.05748920515179634,0.9300000071525574,0.14330357313156128,0.800000011920929
1409,0.05645357444882393,0.9399999976158142,0.1440005898475647,0.8100000023841858
1410,0.056812673807144165,0.9399999976158142,0.14467069506645203,0.8100000023841858
1411,0.05723293870687485,0.9399999976158142,0.14485034346580505,0.8100000023841858
1412,0.05785416439175606,0.9399999976158142,0.14461709558963776,0.8100000023841858
1413,0.0566781647503376,0.9399999976158142,0.14379657804965973,0.8100000023841858
1414,0.05582108348608017,0.9399999976158142,0.14347459375858307,0.8100000023841858
1415,0.056001149117946625,0.9399999976158142,0.1435447335243225,0.7900000214576721
1416,0.05648036301136017,0.9399999976158142,0.14333480596542358,0.800000011920929
1417,0.05619319900870323,0.949999988079071,0.14339639246463776,0.8100000023841858
1418,0.05633338540792465,0.9399999976158142,0.14361083507537842,0.8100000023841858
1419,0.05705483257770538,0.9399999976158142,0.14347857236862183,0.8100000023841858
1420,0.055697001516819,0.9399999976158142,0.1437988579273224,0.8100000023841858
1421,0.056214943528175354,0.9399999976158142,0.1440916657447815,0.8100000023841858
1422,0.056507810950279236,0.9399999976158142,0.14398713409900665,0.8100000023841858
1423,0.056026916950941086,0.9399999976158142,0.14387820661067963,0.8100000023841858
1424,0.05589982494711876,0.9399999976158142,0.1434454768896103,0.8100000023841858
1425,0.05537362024188042,0.9399999976158142,0.14299562573432922,0.8100000023841858
1426,0.05574001744389534,0.949999988079071,0.14315913617610931,0.800000011920929
1427,0.05646583437919617,0.9300000071525574,0.14324797689914703,0.7900000214576721
1428,0.05577688291668892,0.9399999976158142,0.1429498791694641,0.800000011920929
1429,0.05563526973128319,0.949999988079071,0.143083393573761,0.800000011920929
1430,0.05519664287567139,0.9399999976158142,0.14301471412181854,0.8100000023841858
1431,0.055379096418619156,0.9399999976158142,0.14288537204265594,0.8100000023841858
1432,0.0559522770345211,0.9399999976158142,0.14256352186203003,0.8100000023841858
1433,0.05516687408089638,0.9399999976158142,0.1423037201166153,0.8100000023841858
1434,0.0555947981774807,0.9399999976158142,0.1417497992515564,0.8100000023841858
1435,0.05534293130040169,0.9399999976158142,0.14164353907108307,0.8100000023841858
1436,0.05521698296070099,0.9399999976158142,0.1416742205619812,0.8100000023841858
1437,0.055330611765384674,0.949999988079071,0.1419748067855835,0.8100000023841858
1438,0.0551920160651207,0.949999988079071,0.1421108841896057,0.800000011920929
1439,0.055010490119457245,0.949999988079071,0.1422022581100464,0.8100000023841858
1440,0.054977983236312866,0.949999988079071,0.14258089661598206,0.8100000023841858
1441,0.05501605570316315,0.9399999976158142,0.14275459945201874,0.8100000023841858
1442,0.05490095168352127,0.9399999976158142,0.14279580116271973,0.8100000023841858
1443,0.05495429411530495,0.9399999976158142,0.14267472922801971,0.8100000023841858
1444,0.05443538352847099,0.949999988079071,0.14266915619373322,0.8100000023841858
1445,0.054466214030981064,0.949999988079071,0.14265578985214233,0.8100000023841858
1446,0.054448094218969345,0.9399999976158142,0.14257080852985382,0.8100000023841858
1447,0.05459855869412422,0.949999988079071,0.14305946230888367,0.8100000023841858
1448,0.054831527173519135,0.9399999976158142,0.14335991442203522,0.8100000023841858
1449,0.05481496453285217,0.949999988079071,0.14320948719978333,0.8100000023841858
1450,0.054844703525304794,0.9300000071525574,0.14324921369552612,0.7900000214576721
1451,0.054922305047512054,0.9399999976158142,0.14324478805065155,0.7900000214576721
1452,0.054407816380262375,0.949999988079071,0.14291639626026154,0.8100000023841858
1453,0.05410143733024597,0.949999988079071,0.14298279583454132,0.8100000023841858
1454,0.05443383380770683,0.949999988079071,0.14279350638389587,0.8100000023841858
1455,0.054024677723646164,0.949999988079071,0.14289778470993042,0.8100000023841858
1456,0.05400742590427399,0.949999988079071,0.1429358720779419,0.8100000023841858
1457,0.0539153516292572,0.949999988079071,0.1425015777349472,0.8100000023841858
1458,0.05399143323302269,0.949999988079071,0.14200787246227264,0.8100000023841858
1459,0.05385035648941994,0.949999988079071,0.1420898288488388,0.8100000023841858
1460,0.05377096310257912,0.949999988079071,0.14219807088375092,0.8100000023841858
1461,0.05387599393725395,0.949999988079071,0.14230400323867798,0.8100000023841858
1462,0.05377722904086113,0.949999988079071,0.14253219962120056,0.8100000023841858
1463,0.05359187722206116,0.949999988079071,0.14257773756980896,0.8100000023841858
1464,0.053533729165792465,0.949999988079071,0.14273975789546967,0.8100000023841858
1465,0.053547196090221405,0.949999988079071,0.14297722280025482,0.8100000023841858
1466,0.05362139642238617,0.949999988079071,0.14311134815216064,0.8100000023841858
1467,0.05476781725883484,0.949999988079071,0.14288756251335144,0.8100000023841858
1468,0.055097199976444244,0.9399999976158142,0.14324063062667847,0.8100000023841858
1469,0.053367532789707184,0.9399999976158142,0.1431354582309723,0.8100000023841858
1470,0.053336165845394135,0.949999988079071,0.14327523112297058,0.8100000023841858
1471,0.05308437719941139,0.949999988079071,0.1429896503686905,0.8100000023841858
1472,0.053111229091882706,0.949999988079071,0.14279161393642426,0.8100000023841858
1473,0.053099699318408966,0.949999988079071,0.14272309839725494,0.8100000023841858
