,loss,recall,val_loss,val_recall
0,0.6605650186538696,0.4745098039215686,291.2395935058594,0.32
1,43.20099639892578,0.345,684.2301635742188,0.32
2,14.172167778015137,0.345,1764.0419921875,0.18
3,9.812055587768555,0.155,5112.75634765625,0.32
4,5.8757243156433105,0.6336805555555556,2.8812572956085205,0.18
5,6.370392799377441,0.6408864767073722,1.9888684749603271,0.18
6,2.178077459335327,0.7212121212121212,0.9588631391525269,0.18
7,1.1013039350509644,0.345,0.6617534756660461,0.32
8,0.8822533488273621,0.345,0.6650654673576355,0.32
9,1.0717562437057495,0.345,0.6818234324455261,0.32
10,1.0649186372756958,0.345,0.6684513688087463,0.32
11,0.564700186252594,0.345,0.6541438102722168,0.32
12,0.5950180888175964,0.345,0.6555029153823853,0.32
13,1.1563372611999512,0.3434343434343434,0.669044017791748,0.32
14,0.8405678868293762,0.7135416666666667,0.6958461403846741,0.18
15,0.5569663643836975,0.7107303141574868,0.7187304496765137,0.18
16,0.7242546081542969,0.7120638923917613,0.7420450448989868,0.18
17,0.49070364236831665,0.7616161616161616,0.7530121207237244,0.18
18,0.5269527435302734,0.7075551782682512,0.7463112473487854,0.18
19,0.5217861533164978,0.7065217391304348,0.7344750761985779,0.18
20,0.5062995553016663,0.795369987598181,0.7193821668624878,0.18
21,0.5033096671104431,0.7316176470588236,0.7057912945747375,0.18
22,0.4909266233444214,0.7344228804902962,0.6941748857498169,0.18
23,0.449675053358078,0.345,0.6835868954658508,0.32
24,0.4918425679206848,0.345,0.678630530834198,0.32
25,0.4951845407485962,0.345,0.674138605594635,0.32
26,0.6146170496940613,0.345,0.6740392446517944,0.32
27,0.4887154996395111,0.345,0.6729768514633179,0.32
28,0.46832266449928284,0.345,0.6758458614349365,0.32
29,0.4916188418865204,0.345,0.6776123046875,0.32
30,0.45178577303886414,0.345,0.6833134293556213,0.32
31,0.45427581667900085,0.7776292335115864,0.6926937699317932,0.7292374939290918
32,0.4778517782688141,0.7381154499151104,0.7005351185798645,0.18
33,0.48117169737815857,0.7503152585119799,0.7069467902183533,0.18
34,0.4473596215248108,0.7807539682539683,0.7093537449836731,0.18
35,0.4395308494567871,0.7503152585119799,0.7137776017189026,0.18
36,0.428014874458313,0.8274509803921568,0.7141331434249878,0.18
37,0.4685773253440857,0.7072368421052632,0.7171493172645569,0.18
38,0.41840431094169617,0.7593378607809846,0.7230579853057861,0.18
39,0.4158582091331482,0.7785714285714285,0.7277461290359497,0.18
40,3.4038517475128174,0.7662459093034129,0.7311469316482544,0.18
41,0.419137179851532,0.7924528301886793,0.7357839941978455,0.18
42,0.4139705300331116,0.7504234895539243,0.7366930842399597,0.18
43,0.4176540970802307,0.7569444444444444,0.7379270792007446,0.18
44,0.42331892251968384,0.7673627974745022,0.739323616027832,0.18
45,0.4197128117084503,0.7545955882352942,0.744289755821228,0.18
46,0.39992597699165344,0.7695704536330791,0.7485306262969971,0.18
47,0.38336730003356934,0.7765700483091788,0.7530624270439148,0.18
48,0.39847198128700256,0.7559523809523809,0.7536000609397888,0.18
49,0.4162490665912628,0.7902187902187903,0.7565751671791077,0.18
50,0.38551318645477295,0.7833333333333333,0.7606996893882751,0.18
51,0.40837687253952026,0.7775735294117647,0.763302743434906,0.18
52,0.42711299657821655,0.7950279046169457,0.7690019011497498,0.18
53,0.42850321531295776,0.7553475935828877,0.7773803472518921,0.18
54,0.39055773615837097,0.7788657690738474,0.7871666550636292,0.18
55,0.42038312554359436,0.7711038961038961,0.794790506362915,0.18
56,0.39745986461639404,0.8028846153846154,0.80164635181427,0.18
57,0.4017030596733093,0.7381154499151104,0.8023858666419983,0.6818181818181819
58,0.4241514503955841,0.7247023809523809,0.809520959854126,0.6818181818181819
59,0.3744974136352539,0.795369987598181,0.8232662677764893,0.6818181818181819
60,0.37209686636924744,0.795369987598181,0.8353161215782166,0.6818181818181819
61,0.41760963201522827,0.7563025210084033,0.8448802828788757,0.6818181818181819
62,0.40063467621803284,0.7427884615384616,0.8483099937438965,0.6818181818181819
63,0.3672448992729187,0.7966988727858293,0.8487414121627808,0.6818181818181819
64,0.3743761479854584,0.738483345145287,0.8525816798210144,0.6818181818181819
65,0.38871100544929504,0.8133669609079446,0.8677582144737244,0.6818181818181819
66,0.39847174286842346,0.7625,0.8811109066009521,0.18
67,0.3866993486881256,0.8160396858205871,0.8939639925956726,0.18
68,0.41733911633491516,0.7664203612479474,0.9061535596847534,0.18
69,0.4086455702781677,0.7788657690738474,0.9202468395233154,0.18
70,0.3821370601654053,0.7833333333333333,0.9230541586875916,0.18
71,0.40536797046661377,0.7450549450549451,0.9322953820228577,0.18
72,0.3796399235725403,0.8303571428571428,0.9420327544212341,0.18
73,0.3867366313934326,0.7316176470588236,0.9575095772743225,0.18
74,0.3712315261363983,0.7776292335115864,0.9777364730834961,0.18
75,0.4231647253036499,0.7687687687687688,0.9942257404327393,0.18
76,0.35353076457977295,0.84375,1.0055451393127441,0.18
77,0.40971431136131287,0.7508116883116883,1.0144102573394775,0.18
78,0.33753687143325806,0.8160396858205871,1.017035961151123,0.18
79,0.34546995162963867,0.8017826825127334,1.026269793510437,0.18
80,0.3613429665565491,0.7786458333333333,1.0340349674224854,0.18
81,0.324125736951828,0.832967032967033,1.0459372997283936,0.18
82,0.36773496866226196,0.7913961038961039,1.0529837608337402,0.18
83,0.34218600392341614,0.7788657690738474,1.050631046295166,0.18
84,0.3571142256259918,0.7833333333333333,1.048961877822876,0.18
85,0.3950869143009186,0.7923497267759563,1.0436315536499023,0.18
86,0.30309608578681946,0.8458333333333333,1.0374795198440552,0.18
87,0.3639056384563446,0.7625,1.0259796380996704,0.18
88,0.36151495575904846,0.8041666666666667,1.0129894018173218,0.18
89,0.3249090611934662,0.8133669609079446,1.0086792707443237,0.18
90,0.42537519335746765,0.7916464303059738,1.002697467803955,0.18
91,0.6271368861198425,0.7466666666666667,1.021348237991333,0.18
92,0.3268774449825287,0.8230050933786077,1.0445165634155273,0.18
93,0.34148725867271423,0.8074712643678161,1.065869927406311,0.18
94,0.35212650895118713,0.7923497267759563,1.0878111124038696,0.18
95,0.37307196855545044,0.7625,1.0995492935180664,0.18
96,0.38073039054870605,0.7508116883116883,1.1032397747039795,0.18
97,0.3502066433429718,0.8160396858205871,1.0962578058242798,0.18
98,0.3421887159347534,0.8097149739060618,1.088199257850647,0.18
99,0.33554306626319885,0.8160396858205871,1.0730587244033813,0.18
100,0.38922590017318726,0.7833333333333333,1.058148741722107,0.18
101,0.3286137580871582,0.8040404040404041,1.0456205606460571,0.18
102,0.36504724621772766,0.8113975576662145,1.026654839515686,0.18
103,0.34649035334587097,0.7775735294117647,1.0194361209869385,0.18
104,0.33299535512924194,0.8023809523809524,1.032241702079773,0.18
105,0.3593236804008484,0.7896213183730716,1.0566438436508179,0.18
106,0.2931215167045593,0.8573790822653989,1.0805785655975342,0.18
107,0.3768094480037689,0.7636363636363637,1.0969098806381226,0.18
108,0.34303992986679077,0.8319805194805194,1.1059798002243042,0.18
109,0.3833499848842621,0.8017826825127334,1.1139631271362305,0.18
110,0.3302253782749176,0.799265605875153,1.1163893938064575,0.18
111,0.36573654413223267,0.795369987598181,1.111648440361023,0.18
112,0.31205669045448303,0.8331188331188331,1.1006591320037842,0.18
113,0.3471086025238037,0.8041666666666667,1.082695484161377,0.18
114,0.31960350275039673,0.84375,1.075594425201416,0.18
115,0.2996230721473694,0.8644973288003885,1.0780423879623413,0.18
116,0.27247974276542664,0.856625961103573,1.0927455425262451,0.18
117,0.339437872171402,0.8343841950399327,1.105734944343567,0.18
118,0.4543210566043854,0.7553475935828877,1.1229569911956787,0.18
119,0.39794448018074036,0.7713324926439681,1.139756202697754,0.18
120,0.31917864084243774,0.8196654426764586,1.1430999040603638,0.18
121,0.32715025544166565,0.795369987598181,1.1480823755264282,0.18
122,0.31567153334617615,0.8230050933786077,1.1476436853408813,0.18
123,0.3049015998840332,0.8331188331188331,1.1488511562347412,0.18
124,0.319323867559433,0.8003472222222222,1.1543077230453491,0.18
125,0.3112925887107849,0.8113975576662145,1.1601988077163696,0.18
126,0.3071712851524353,0.8522727272727273,1.1588389873504639,0.18
127,0.28323423862457275,0.8444741532976827,1.1649863719940186,0.18
128,0.34873679280281067,0.8074712643678161,1.159753441810608,0.18
129,0.3199654519557953,0.8017826825127334,1.1640375852584839,0.18
130,0.3046206533908844,0.7833333333333333,1.164318323135376,0.18
131,0.34103918075561523,0.795369987598181,1.152414083480835,0.18
132,0.2817944288253784,0.8400652794777641,1.140019178390503,0.18
133,0.31636059284210205,0.8319805194805194,1.1185530424118042,0.18
134,0.28623613715171814,0.8340117593848937,1.1100038290023804,0.18
135,0.2943023443222046,0.84375,1.1031149625778198,0.18
136,0.3276304602622986,0.8442275042444822,1.1060861349105835,0.18
137,0.3000035285949707,0.84375,1.1115373373031616,0.18
138,0.2815266251564026,0.825,1.1166867017745972,0.18
139,0.2990305721759796,0.8343841950399327,1.1235696077346802,0.18
140,0.29611891508102417,0.8331188331188331,1.1307154893875122,0.18
141,0.2802262306213379,0.8654513888888888,1.1411556005477905,0.18
142,0.30266231298446655,0.8331188331188331,1.1486097574234009,0.18
143,0.29757750034332275,0.8442275042444822,1.1625521183013916,0.18
144,0.3069142699241638,0.8400652794777641,1.1679465770721436,0.18
145,0.2672804594039917,0.8485221674876847,1.1689578294754028,0.18
146,0.29032477736473083,0.8400652794777641,1.1582614183425903,0.18
147,0.32674720883369446,0.8367093840429929,1.1469404697418213,0.18
148,0.27882513403892517,0.8458333333333333,1.1387052536010742,0.18
149,0.2684434950351715,0.8654513888888888,1.1320011615753174,0.18
150,0.34214529395103455,0.8133669609079446,1.117809534072876,0.18
151,0.29527583718299866,0.8340117593848937,1.115507960319519,0.18
152,0.3621301054954529,0.8041666666666667,1.1096023321151733,0.18
153,0.2668982744216919,0.8654513888888888,1.1074424982070923,0.18
154,0.3346298635005951,0.8068887634105026,1.132389783859253,0.18
155,0.3307860493659973,0.8005514705882353,1.1693646907806396,0.18
156,0.24378527700901031,0.8666666666666667,1.205640196800232,0.18
157,0.24301333725452423,0.8654499151103565,1.2379130125045776,0.18
158,0.29914775490760803,0.855401429171921,1.2475225925445557,0.18
159,0.33556222915649414,0.8343841950399327,1.2588508129119873,0.18
160,0.31858915090560913,0.8367093840429929,1.254059076309204,0.18
161,0.27406951785087585,0.8545688545688546,1.2548255920410156,0.18
162,0.26468661427497864,0.8485221674876847,1.2387784719467163,0.18
163,0.28223708271980286,0.8458333333333333,1.2126420736312866,0.18
164,0.30496805906295776,0.855401429171921,1.1892746686935425,0.18
165,0.3014947474002838,0.8444741532976827,1.1637409925460815,0.18
166,0.27891790866851807,0.8465073529411764,1.1554580926895142,0.18
167,0.33864229917526245,0.8129967274427303,1.1558067798614502,0.18
168,0.27295753359794617,0.8465073529411764,1.165840744972229,0.6836734693877551
169,0.30765336751937866,0.822192513368984,1.1852262020111084,0.6836734693877551
170,0.29131656885147095,0.8442275042444822,1.1993052959442139,0.6836734693877551
171,0.31144222617149353,0.8545688545688546,1.2146928310394287,0.6836734693877551
172,0.27921348810195923,0.855401429171921,1.22059166431427,0.6836734693877551
173,0.2769879996776581,0.8442275042444822,1.2324894666671753,0.6836734693877551
174,0.25017738342285156,0.8989010989010989,1.2412973642349243,0.6836734693877551
175,0.2890609800815582,0.8279967159277504,1.2449699640274048,0.6836734693877551
176,0.39426612854003906,0.822192513368984,1.250105381011963,0.6836734693877551
177,0.2525011897087097,0.8764186633039093,1.247602939605713,0.6836734693877551
178,0.3353390693664551,0.854945054945055,1.2412667274475098,0.6836734693877551
179,0.29546037316322327,0.832967032967033,1.2348203659057617,0.6836734693877551
180,0.30301398038864136,0.832967032967033,1.2351200580596924,0.6836734693877551
181,0.24295581877231598,0.8989010989010989,1.22366201877594,0.6836734693877551
182,0.3340334892272949,0.8465073529411764,1.2307379245758057,0.6836734693877551
183,0.28196585178375244,0.8500000000000001,1.2540076971054077,0.6855670103092784
184,0.3267894685268402,0.856625961103573,1.2821462154388428,0.6855670103092784
185,0.2637791931629181,0.854945054945055,1.3188961744308472,0.6855670103092784
186,0.27122393250465393,0.8667557932263814,1.3553858995437622,0.6818181818181819
187,0.2806636393070221,0.8230050933786077,1.3797705173492432,0.6836734693877551
188,0.25542041659355164,0.84375,1.4002187252044678,0.6836734693877551
189,0.3064976930618286,0.855401429171921,1.4091805219650269,0.6855670103092784
190,0.2926221191883087,0.8220486111111112,1.4109879732131958,0.6855670103092784
191,0.31732437014579773,0.822192513368984,1.3934154510498047,0.6855670103092784
192,0.2541451156139374,0.8545688545688546,1.3768643140792847,0.6855670103092784
193,0.2930386960506439,0.854945054945055,1.3525264263153076,0.6855670103092784
194,0.29454660415649414,0.8235294117647058,1.3357598781585693,0.6855670103092784
195,0.25599315762519836,0.8597475455820476,1.3298977613449097,0.6855670103092784
196,0.2306850254535675,0.8760188760188761,1.3205257654190063,0.6855670103092784
197,0.24028730392456055,0.855401429171921,1.3053455352783203,0.6855670103092784
198,0.2645988464355469,0.8545688545688546,1.2948755025863647,0.6855670103092784
199,0.26209694147109985,0.855401429171921,1.2784589529037476,0.6855670103092784
200,0.21073034405708313,0.8760188760188761,1.2575072050094604,0.6855670103092784
201,0.2851319909095764,0.8760188760188761,1.2350033521652222,0.6875
202,0.19551338255405426,0.8974688974688975,1.2228927612304688,0.6875
203,0.2789149880409241,0.8667557932263814,1.215394377708435,0.6894736842105263
204,0.2908687889575958,0.84375,1.227834701538086,0.6875
205,0.23816581070423126,0.8974688974688975,1.227792501449585,0.6875
206,0.3146689534187317,0.8444741532976827,1.2421636581420898,0.6855670103092784
207,0.30919259786605835,0.8220486111111112,1.2560241222381592,0.6836734693877551
208,0.26177874207496643,0.8654499151103565,1.2692065238952637,0.6836734693877551
209,0.2369098663330078,0.8871527777777778,1.275773286819458,0.6836734693877551
210,0.26554012298583984,0.8654499151103565,1.2682985067367554,0.6836734693877551
211,0.2599509656429291,0.8666666666666667,1.258414387702942,0.6836734693877551
212,0.2244127243757248,0.911319073083779,1.2645725011825562,0.6836734693877551
213,0.2596728205680847,0.8654513888888888,1.2601218223571777,0.6836734693877551
214,0.2539912462234497,0.8666666666666667,1.2496111392974854,0.6836734693877551
215,0.31960147619247437,0.8235294117647058,1.2611721754074097,0.6836734693877551
216,0.2583732604980469,0.8667557932263814,1.2827205657958984,0.6836734693877551
217,0.21687155961990356,0.8924632352941176,1.3204375505447388,0.6836734693877551
218,0.2574353814125061,0.854945054945055,1.3609511852264404,0.6836734693877551
219,0.23552410304546356,0.8890374331550802,1.4036229848861694,0.6836734693877551
220,0.16658343374729156,0.9532491818606825,1.4648147821426392,0.6836734693877551
221,0.26259496808052063,0.84375,1.5080448389053345,0.6836734693877551
222,0.2945691645145416,0.8442275042444822,1.5432662963867188,0.6836734693877551
223,0.23597705364227295,0.8769230769230769,1.5613160133361816,0.6836734693877551
224,0.2538241446018219,0.84375,1.557151198387146,0.6836734693877551
225,0.20258086919784546,0.911319073083779,1.548891305923462,0.6836734693877551
226,0.24117511510849,0.8974688974688975,1.5228530168533325,0.6836734693877551
227,0.23616302013397217,0.8764186633039093,1.4950536489486694,0.6818181818181819
228,0.21266338229179382,0.8875,1.4701168537139893,0.6836734693877551
229,0.27267006039619446,0.8465073529411764,1.4528661966323853,0.6855670103092784
230,0.23757924139499664,0.8444741532976827,1.430381417274475,0.6855670103092784
231,0.2193303257226944,0.9047619047619048,1.4353913068771362,0.6855670103092784
232,0.2488640546798706,0.8831229546517064,1.4547126293182373,0.6855670103092784
233,0.22929473221302032,0.856625961103573,1.4653807878494263,0.6875
234,0.23248325288295746,0.8871527777777778,1.4828569889068604,0.6875
235,0.242155522108078,0.8760188760188761,1.4846694469451904,0.6875
236,0.2671182453632355,0.8367093840429929,1.4525763988494873,0.6855670103092784
237,0.21657761931419373,0.8760188760188761,1.428967833518982,0.6894736842105263
238,0.2143363654613495,0.8764186633039093,1.4026622772216797,0.6894736842105263
239,0.22828827798366547,0.8764186633039093,1.358292818069458,0.6894736842105263
240,0.20395024120807648,0.8989010989010989,1.3257747888565063,0.6894736842105263
241,0.19934596121311188,0.8760188760188761,1.2966692447662354,0.6894736842105263
242,0.2962123453617096,0.8792401628222524,1.2917065620422363,0.6894736842105263
243,0.21920333802700043,0.88878096163186,1.3116025924682617,0.6894736842105263
244,0.2369210422039032,0.8890374331550802,1.3528814315795898,0.6855670103092784
245,0.21999864280223846,0.8831229546517064,1.4218395948410034,0.6855670103092784
246,0.2005196362733841,0.9154411764705883,1.4766480922698975,0.6836734693877551
247,0.2582518756389618,0.8976190476190476,1.5670815706253052,0.6855670103092784
248,0.2551122307777405,0.8654513888888888,1.6396132707595825,0.6855670103092784
249,0.17161881923675537,0.9018543645409317,1.6990200281143188,0.6836734693877551
250,0.26265349984169006,0.8545688545688546,1.7271924018859863,0.6818181818181819
251,0.2098710983991623,0.9208791208791209,1.7655270099639893,0.6818181818181819
252,0.2237236350774765,0.9088541666666667,1.778210997581482,0.6818181818181819
253,0.19034753739833832,0.9470827679782903,1.76868736743927,0.6836734693877551
254,0.21857775747776031,0.9018543645409317,1.7511367797851562,0.6855670103092784
255,0.22805775701999664,0.8769230769230769,1.704057216644287,0.6855670103092784
256,0.19734948873519897,0.8989010989010989,1.6753219366073608,0.6855670103092784
257,0.3636628985404968,0.8261904761904761,1.665689468383789,0.6855670103092784
258,0.22026562690734863,0.906498363721365,1.6682851314544678,0.6855670103092784
259,0.22935733199119568,0.8989010989010989,1.6731371879577637,0.6855670103092784
260,0.18063926696777344,0.9208791208791209,1.6721997261047363,0.6855670103092784
261,0.25301268696784973,0.8545688545688546,1.654525876045227,0.6855670103092784
262,0.21304351091384888,0.8924632352941176,1.6646898984909058,0.6855670103092784
263,0.24002449214458466,0.8866723259762309,1.6377792358398438,0.6855670103092784
264,0.21118709444999695,0.8792401628222524,1.6319701671600342,0.6855670103092784
265,0.20413535833358765,0.9088541666666667,1.6195746660232544,0.6855670103092784
266,0.21457435190677643,0.8866723259762309,1.5960824489593506,0.6855670103092784
267,0.1880384087562561,0.8866723259762309,1.5809224843978882,0.6875
268,0.17288325726985931,0.924468566259611,1.5611780881881714,0.6875
269,0.18735036253929138,0.9130645944633318,1.5695781707763672,0.6875
270,0.14517882466316223,0.9154411764705883,1.5955419540405273,0.6875
271,0.27754494547843933,0.854945054945055,1.6060136556625366,0.6875
272,0.1878553032875061,0.9154411764705883,1.611594319343567,0.6875
273,0.18484313786029816,0.9298737727910238,1.628730297088623,0.6875
274,0.20454555749893188,0.8760188760188761,1.645058274269104,0.6875
275,0.1988639384508133,0.8890374331550802,1.6656064987182617,0.6875
276,0.20154105126857758,0.911319073083779,1.6475650072097778,0.6875
277,0.23987381160259247,0.8654513888888888,1.6079750061035156,0.6875
278,0.20113703608512878,0.9018543645409317,1.580457091331482,0.6875
279,0.13917802274227142,0.9214285714285715,1.588337779045105,0.6875
280,0.21715888381004333,0.8792401628222524,1.5830706357955933,0.6875
281,0.30967387557029724,0.840213695968917,1.5414867401123047,0.6875
282,0.1844024956226349,0.8654499151103565,1.497564673423767,0.6875
283,0.22533957660198212,0.8654499151103565,1.4476162195205688,0.6894736842105263
284,0.16435359418392181,0.9154411764705883,1.4039031267166138,0.6956521739130435
285,0.23761725425720215,0.8442275042444822,1.3698867559432983,0.6956521739130435
286,0.21334697306156158,0.911319073083779,1.3619358539581299,0.6956521739130435
287,0.2151026427745819,0.8573790822653989,1.338525414466858,0.6956521739130435
288,0.1646042764186859,0.911319073083779,1.3215255737304688,0.6956521739130435
289,0.20210321247577667,0.8831229546517064,1.323909878730774,0.6956521739130435
290,0.2140248566865921,0.8831229546517064,1.3186144828796387,0.6956521739130435
291,0.2086387574672699,0.8831229546517064,1.3030260801315308,0.7
292,0.2663733661174774,0.8694852941176471,1.3275097608566284,0.6956521739130435
293,0.20613741874694824,0.9154411764705883,1.3395521640777588,0.6956521739130435
294,0.1744566708803177,0.8989010989010989,1.3772560358047485,0.6914893617021276
295,0.17006105184555054,0.9154411764705883,1.4233001470565796,0.6914893617021276
296,0.20511718094348907,0.9298737727910238,1.4773555994033813,0.6894736842105263
297,0.16484050452709198,0.9298737727910238,1.5277804136276245,0.6894736842105263
298,0.20448733866214752,0.8654499151103565,1.551442265510559,0.6935483870967742
299,0.16938962042331696,0.906498363721365,1.592774510383606,0.6935483870967742
300,0.21146975457668304,0.8924632352941176,1.6499898433685303,0.6914893617021276
301,0.14941416680812836,0.9154411764705883,1.673355221748352,0.6914893617021276
302,0.09948081523180008,0.9543650793650793,1.6454484462738037,0.7045454545454546
303,0.20315532386302948,0.8831229546517064,1.6102992296218872,0.7168674698795181
304,0.1755281388759613,0.9154411764705883,1.5646166801452637,0.725
305,0.21909832954406738,0.924468566259611,1.5260883569717407,0.725
306,0.21817517280578613,0.8654513888888888,1.470558762550354,0.7278481012658228
307,0.17727826535701752,0.924468566259611,1.3824048042297363,0.7337662337662337
308,0.171632781624794,0.9047619047619048,1.2925509214401245,0.7432432432432432
309,0.18507517874240875,0.924468566259611,1.2234327793121338,0.75
310,0.1574934422969818,0.8924632352941176,1.1940934658050537,0.75
311,0.151285782456398,0.9018543645409317,1.1644223928451538,0.7535211267605634
312,0.20602479577064514,0.9018543645409317,1.141573429107666,0.7535211267605634
313,0.213979110121727,0.8769230769230769,1.152427315711975,0.7535211267605634
314,0.2419026643037796,0.8831229546517064,1.1639878749847412,0.75
315,0.14296883344650269,0.9154411764705883,1.230407953262329,0.7432432432432432
316,0.18282899260520935,0.9616318601262749,1.2977639436721802,0.7368421052631579
317,0.24509403109550476,0.8976190476190476,1.359790325164795,0.725
318,0.14980438351631165,0.9208791208791209,1.406671404838562,0.7168674698795181
319,0.16173376142978668,0.9154411764705883,1.4393023252487183,0.7093023255813954
320,0.2193581461906433,0.911319073083779,1.4684988260269165,0.7093023255813954
321,0.18651890754699707,0.8890374331550802,1.4765336513519287,0.702247191011236
322,0.14981119334697723,0.9298737727910238,1.4814764261245728,0.7093023255813954
323,0.18884004652500153,0.906498363721365,1.4550786018371582,0.7093023255813954
324,0.1718757152557373,0.8964992389649924,1.4087188243865967,0.7222222222222222
325,0.16898511350154877,0.9047619047619048,1.3259823322296143,0.74
326,0.15664701163768768,0.9384191176470589,1.270735263824463,0.7465753424657534
327,0.17635416984558105,0.9208791208791209,1.2310725450515747,0.7535211267605634
328,0.23988111317157745,0.8831229546517064,1.2330046892166138,0.7535211267605634
329,0.23749899864196777,0.8831229546517064,1.2645115852355957,0.7535211267605634
330,0.16874225437641144,0.911319073083779,1.2689775228500366,0.7535211267605634
331,0.17085395753383636,0.8964992389649924,1.2650054693222046,0.7535211267605634
332,0.09808014333248138,0.9791666666666667,1.273182988166809,0.7535211267605634
333,0.16321635246276855,0.9154411764705883,1.3187607526779175,0.7535211267605634
334,0.11706315726041794,0.9336007130124777,1.3912508487701416,0.7432432432432432
335,0.15175791084766388,0.9214285714285715,1.4495095014572144,0.7432432432432432
336,0.16254374384880066,0.9336007130124777,1.5050654411315918,0.7368421052631579
337,0.12449429929256439,0.9428571428571428,1.5359859466552734,0.7307692307692308
338,0.16049915552139282,0.9298737727910238,1.505135178565979,0.7368421052631579
339,0.19342537224292755,0.9018543645409317,1.4716475009918213,0.7368421052631579
340,0.2032197117805481,0.911319073083779,1.4363147020339966,0.74
341,0.14838466048240662,0.9452380952380952,1.4039322137832642,0.74
342,0.13930387794971466,0.9298737727910238,1.3664153814315796,0.7432432432432432
343,0.21712228655815125,0.9218670725520041,1.3101376295089722,0.7535211267605634
344,0.14759904146194458,0.9373482272948033,1.2738407850265503,0.7535211267605634
345,0.18467509746551514,0.9214285714285715,1.2717374563217163,0.7571428571428571
346,0.14581996202468872,0.9336007130124777,1.2906270027160645,0.7608695652173914
347,0.2011527270078659,0.8760188760188761,1.3523942232131958,0.7571428571428571
348,0.12718094885349274,0.9452380952380952,1.4128814935684204,0.7535211267605634
349,0.16486427187919617,0.9154411764705883,1.5022544860839844,0.7432432432432432
350,0.18355420231819153,0.8667557932263814,1.5601073503494263,0.7337662337662337
351,0.161654531955719,0.9470827679782903,1.5911458730697632,0.7307692307692308
352,0.16601940989494324,0.924468566259611,1.6173542737960815,0.725
353,0.15231619775295258,0.924468566259611,1.5993576049804688,0.725
354,0.15810473263263702,0.9130645944633318,1.5697786808013916,0.7307692307692308
355,0.1296585202217102,0.9532491818606825,1.5295525789260864,0.7337662337662337
356,0.17747214436531067,0.9130645944633318,1.4975956678390503,0.7368421052631579
357,0.18612544238567352,0.9066666666666667,1.3949118852615356,0.7535211267605634
358,0.18252097070217133,0.906498363721365,1.3388500213623047,0.7535211267605634
359,0.163963183760643,0.8890374331550802,1.2875733375549316,0.7571428571428571
360,0.13468056917190552,0.911319073083779,1.2490756511688232,0.7571428571428571
361,0.2756234407424927,0.8116688116688117,1.1841105222702026,0.7647058823529411
362,0.12066449224948883,0.911319073083779,1.1406792402267456,0.7647058823529411
363,0.1644187867641449,0.911319073083779,1.11250901222229,0.7686567164179104
364,0.18012486398220062,0.9208791208791209,1.108237624168396,0.7608695652173914
365,0.13260731101036072,0.9298737727910238,1.10926353931427,0.7647058823529411
366,0.11047540605068207,0.9616318601262749,1.1028684377670288,0.7686567164179104
367,0.2136293351650238,0.9402286902286903,1.1246590614318848,0.7647058823529411
368,0.13167797029018402,0.9543650793650793,1.1668422222137451,0.7608695652173914
369,0.1662493497133255,0.906498363721365,1.2170170545578003,0.7571428571428571
370,0.18699176609516144,0.9452380952380952,1.2782431840896606,0.7535211267605634
371,0.1271374672651291,0.9214285714285715,1.361393690109253,0.7432432432432432
372,0.11578451097011566,0.9532491818606825,1.4386814832687378,0.7432432432432432
373,0.17578434944152832,0.9154411764705883,1.5044251680374146,0.7368421052631579
374,0.1275801807641983,0.9189189189189189,1.5763715505599976,0.725
375,0.1437338888645172,0.9384191176470589,1.6563793420791626,0.7195121951219512
376,0.14646385610103607,0.9218670725520041,1.7033593654632568,0.7142857142857143
377,0.14250729978084564,0.9472349061390157,1.7034456729888916,0.7168674698795181
378,0.14543230831623077,0.9298737727910238,1.725828766822815,0.7168674698795181
379,0.13577589392662048,0.9373482272948033,1.7018706798553467,0.725
380,0.13879553973674774,0.9214285714285715,1.6748123168945312,0.7337662337662337
381,0.12881146371364594,0.9336007130124777,1.6341761350631714,0.74
382,0.16681231558322906,0.9208791208791209,1.6208879947662354,0.7432432432432432
383,0.12443041801452637,0.9336007130124777,1.6246999502182007,0.7432432432432432
384,0.1712178885936737,0.906498363721365,1.6588388681411743,0.74
385,0.10935594141483307,0.9384191176470589,1.6438814401626587,0.74
386,0.12743689119815826,0.9130645944633318,1.5631844997406006,0.7432432432432432
387,0.17233571410179138,0.9662162162162162,1.514744520187378,0.75
388,0.12343858182430267,0.9298737727910238,1.5242915153503418,0.7535211267605634
389,0.1760140210390091,0.8924632352941176,1.54139244556427,0.7465753424657534
390,0.1641497015953064,0.9298737727910238,1.5298980474472046,0.7465753424657534
391,0.14428985118865967,0.9336007130124777,1.5217211246490479,0.75
392,0.10773059725761414,0.9532491818606825,1.5486184358596802,0.7465753424657534
393,0.1155330091714859,0.9384191176470589,1.5746248960494995,0.7465753424657534
394,0.09641704708337784,0.9298737727910238,1.58146333694458,0.7465753424657534
395,0.0900082066655159,0.9766245909303413,1.5730931758880615,0.7571428571428571
396,0.1688559353351593,0.9472349061390157,1.573565125465393,0.7608695652173914
397,0.1776733547449112,0.9130645944633318,1.5504406690597534,0.7608695652173914
398,0.1795576959848404,0.969047619047619,1.544329047203064,0.7647058823529411
399,0.12503288686275482,0.8989010989010989,1.5499305725097656,0.7647058823529411
400,0.1458064615726471,0.9532491818606825,1.56609046459198,0.7608695652173914
401,0.1269218623638153,0.9616318601262749,1.5960941314697266,0.7608695652173914
402,0.1686224341392517,0.9154411764705883,1.6267260313034058,0.7647058823529411
403,0.0940699428319931,0.9662162162162162,1.6443392038345337,0.7608695652173914
404,0.14256705343723297,0.9616318601262749,1.6789518594741821,0.7571428571428571
405,0.09395065158605576,0.9928571428571429,1.6879901885986328,0.7535211267605634
406,0.16687095165252686,0.906498363721365,1.679844617843628,0.7535211267605634
407,0.14252710342407227,0.924468566259611,1.6244306564331055,0.7571428571428571
408,0.17977510392665863,0.906498363721365,1.5360548496246338,0.7608695652173914
409,0.1158200204372406,0.9452380952380952,1.423798680305481,0.7647058823529411
410,0.08135112375020981,0.9766245909303413,1.3506300449371338,0.7727272727272727
411,0.1084698811173439,0.9298737727910238,1.287488579750061,0.7727272727272727
412,0.1512492597103119,0.9088541666666667,1.233489990234375,0.78125
413,0.1151571050286293,0.9384191176470589,1.1725242137908936,0.7857142857142857
414,0.12347790598869324,0.9470827679782903,1.1263680458068848,0.7950819672131147
415,0.08697180449962616,0.9613970588235294,1.1226675510406494,0.7950819672131147
416,0.14023089408874512,0.9384191176470589,1.1257528066635132,0.7950819672131147
417,0.13530872762203217,0.9295634920634921,1.1049809455871582,0.8
418,0.07839155197143555,0.9791666666666667,1.0876853466033936,0.8050847457627119
419,0.09021709859371185,0.969047619047619,1.1087250709533691,0.8050847457627119
420,0.13624455034732819,0.9154411764705883,1.1400294303894043,0.8050847457627119
421,0.1338735669851303,0.9214285714285715,1.1289927959442139,0.8050847457627119
422,0.08696737885475159,0.969047619047619,1.1356021165847778,0.8050847457627119
423,0.13816533982753754,0.9373482272948033,1.195259690284729,0.8
424,0.09581951797008514,0.9214285714285715,1.2936582565307617,0.7903225806451613
425,0.09178243577480316,0.9613970588235294,1.3760992288589478,0.7857142857142857
426,0.08178721368312836,0.969047619047619,1.4633519649505615,0.7686567164179104
427,0.11949960142374039,0.9470827679782903,1.497038722038269,0.7686567164179104
428,0.07055023312568665,0.9532491818606825,1.5319231748580933,0.7571428571428571
429,0.10157085210084915,0.9543650793650793,1.5367605686187744,0.7647058823529411
430,0.10156818479299545,0.9532491818606825,1.5543689727783203,0.7571428571428571
431,0.1785745918750763,0.9373482272948033,1.588179588317871,0.7571428571428571
432,0.15592442452907562,0.9214285714285715,1.528159499168396,0.7608695652173914
433,0.10373374074697495,0.9766245909303413,1.4130140542984009,0.7857142857142857
434,0.11285563558340073,0.9470827679782903,1.306814432144165,0.7950819672131147
435,0.10478626191616058,0.9532491818606825,1.215864658355713,0.8
436,0.0645296648144722,0.984375,1.1411068439483643,0.8
437,0.13797344267368317,0.9532491818606825,1.1064690351486206,0.8272727272727273
438,0.1225678101181984,0.969047619047619,1.1048030853271484,0.8272727272727273
439,0.07488662749528885,0.9470827679782903,1.1278437376022339,0.8272727272727273
440,0.16796942055225372,0.9373482272948033,1.1660627126693726,0.8157894736842105
441,0.07346796989440918,0.9791666666666667,1.196374535560608,0.8103448275862069
442,0.09594918042421341,0.969047619047619,1.257338047027588,0.8
443,0.0974297821521759,0.9616318601262749,1.307141661643982,0.7903225806451613
444,0.042932916432619095,0.984375,1.3419578075408936,0.7857142857142857
445,0.09338410198688507,0.9532491818606825,1.3564056158065796,0.7857142857142857
446,0.09210392087697983,0.9532491818606825,1.325966715812683,0.7903225806451613
447,0.1031884104013443,0.9532491818606825,1.3306748867034912,0.8
448,0.06565981358289719,0.9470827679782903,1.329991102218628,0.8
449,0.09011995047330856,0.9470827679782903,1.376866102218628,0.7950819672131147
450,0.07847946137189865,0.969047619047619,1.4429032802581787,0.7857142857142857
451,0.12064290791749954,0.9298737727910238,1.4691030979156494,0.7857142857142857
452,0.11771533638238907,0.9791666666666667,1.4625616073608398,0.7857142857142857
453,0.08864438533782959,0.9472349061390157,1.4687130451202393,0.78125
454,0.08470559865236282,0.9532491818606825,1.5073590278625488,0.7769230769230769
455,0.16093860566616058,0.8769230769230769,1.5174674987792969,0.7727272727272727
456,0.07915785908699036,0.9558823529411764,1.56489896774292,0.7686567164179104
457,0.07675746083259583,0.9766245909303413,1.6163854598999023,0.7647058823529411
458,0.07487533986568451,0.9696969696969697,1.5958062410354614,0.7727272727272727
459,0.16217640042304993,0.9452380952380952,1.5565049648284912,0.7769230769230769
460,0.11960840225219727,0.9373482272948033,1.4982492923736572,0.7857142857142857
461,0.168639674782753,0.9373482272948033,1.4796569347381592,0.7903225806451613
462,0.0941983312368393,0.9616318601262749,1.482688307762146,0.7769230769230769
463,0.07461058348417282,0.9613970588235294,1.46458899974823,0.78125
464,0.06350221484899521,0.9696969696969697,1.4379240274429321,0.7857142857142857
465,0.07729215174913406,0.9726027397260274,1.3986685276031494,0.7950819672131147
466,0.12969160079956055,0.9384191176470589,1.3557119369506836,0.8103448275862069
467,0.06948491930961609,0.9613970588235294,1.3229092359542847,0.8157894736842105
468,0.17055852711200714,0.969047619047619,1.2883884906768799,0.8157894736842105
469,0.11047758907079697,0.9616318601262749,1.242187261581421,0.8157894736842105
470,0.10771996527910233,0.9543650793650793,1.2198783159255981,0.8157894736842105
471,0.09846826642751694,0.9543650793650793,1.1780340671539307,0.8157894736842105
472,0.073415108025074,0.969047619047619,1.119296908378601,0.8157894736842105
473,0.09335137158632278,0.9452380952380952,1.0917702913284302,0.8157894736842105
474,0.09249469637870789,0.9532491818606825,1.0611457824707031,0.8157894736842105
475,0.10559117794036865,0.924468566259611,1.0419310331344604,0.8214285714285714
476,0.12283006310462952,0.9613970588235294,1.0394763946533203,0.8214285714285714
477,0.09636566787958145,0.9470827679782903,1.0434401035308838,0.8272727272727273
478,0.09439628571271896,0.9616318601262749,1.06766676902771,0.8272727272727273
479,0.10599406808614731,0.9726027397260274,1.0810611248016357,0.8272727272727273
480,0.06878209859132767,0.969047619047619,1.1060961484909058,0.8214285714285714
481,0.0971212387084961,0.9616318601262749,1.1661128997802734,0.8103448275862069
482,0.12090408056974411,0.9532491818606825,1.2499128580093384,0.8
483,0.09769494831562042,0.9532491818606825,1.305155634880066,0.8
484,0.09271539747714996,0.969047619047619,1.3866686820983887,0.7903225806451613
485,0.10483375936746597,0.9214285714285715,1.4344476461410522,0.7857142857142857
486,0.06795573234558105,0.9613970588235294,1.479949951171875,0.78125
487,0.09606336057186127,0.9384191176470589,1.5229907035827637,0.78125
488,0.10443729162216187,0.9373482272948033,1.4979830980300903,0.78125
489,0.07770819962024689,0.9532491818606825,1.4359925985336304,0.7857142857142857
490,0.17024172842502594,0.9373482272948033,1.374261498451233,0.7903225806451613
491,0.10441409796476364,0.9452380952380952,1.270671010017395,0.7791666666666667
492,0.05155481398105621,0.9928571428571429,1.2144299745559692,0.8272727272727273
493,0.1051202267408371,0.969047619047619,1.1894382238388062,0.8333333333333333
494,0.12475259602069855,0.9428571428571428,1.1820237636566162,0.8272727272727273
495,0.1885768473148346,0.8769230769230769,1.20807683467865,0.7898193760262726
496,0.08902805298566818,0.9613970588235294,1.2489029169082642,0.7740647330811266
497,0.09715557098388672,0.969047619047619,1.274518609046936,0.769100169779287
498,0.09057143330574036,0.9662162162162162,1.283161997795105,0.769100169779287
499,0.10851898044347763,0.9472349061390157,1.219095230102539,0.7642642642642643
500,0.12863849103450775,0.9472349061390157,1.1715401411056519,0.7642642642642643
501,0.09827321022748947,0.924468566259611,1.1117751598358154,0.7642642642642643
502,0.08583221584558487,0.9428571428571428,1.0647494792938232,0.7642642642642643
503,0.07037284970283508,0.9558823529411764,1.0565669536590576,0.78125
504,0.10780302435159683,0.9384191176470589,1.0334575176239014,0.7857142857142857
505,0.090207539498806,0.9428571428571428,1.0205506086349487,0.8
506,0.1335119605064392,0.924468566259611,1.0099307298660278,0.8
507,0.0869777500629425,0.9613970588235294,1.033913493156433,0.8
508,0.15643122792243958,0.9373482272948033,1.0560122728347778,0.8050847457627119
509,0.07320898771286011,0.9859154929577465,1.1033408641815186,0.8
510,0.08288133144378662,0.9532491818606825,1.169362187385559,0.7857142857142857
511,0.06788305938243866,0.9613970588235294,1.2234727144241333,0.78125
512,0.07358694076538086,0.9336007130124777,1.2855557203292847,0.7769230769230769
513,0.13055244088172913,0.9018543645409317,1.3184517621994019,0.7727272727272727
514,0.0842554047703743,0.9384191176470589,1.3184335231781006,0.7727272727272727
515,0.08426690101623535,0.969047619047619,1.2513006925582886,0.7857142857142857
516,0.07875964045524597,0.9613970588235294,1.218665599822998,0.7903225806451613
517,0.16363899409770966,0.9616318601262749,1.2207118272781372,0.8
518,0.037455812096595764,0.9928571428571429,1.2183732986450195,0.8103448275862069
519,0.08336739987134933,0.9859154929577465,1.2376725673675537,0.8157894736842105
520,0.1273716539144516,0.9616318601262749,1.1522196531295776,0.8214285714285714
521,0.0630728080868721,0.9766245909303413,1.099173903465271,0.8214285714285714
522,0.043569568544626236,0.984375,1.0761176347732544,0.8214285714285714
523,0.04956512525677681,0.9696969696969697,1.0703059434890747,0.8214285714285714
524,0.10841033607721329,0.9336007130124777,1.0765374898910522,0.8214285714285714
525,0.06994231045246124,0.9470827679782903,1.0722217559814453,0.8214285714285714
526,0.11948420107364655,0.924468566259611,1.0775859355926514,0.8214285714285714
527,0.08774679154157639,0.9532491818606825,1.0979087352752686,0.8214285714285714
528,0.07669248431921005,0.9532491818606825,1.1250231266021729,0.8214285714285714
529,0.07922591269016266,0.9859154929577465,1.131468653678894,0.8214285714285714
530,0.1089494600892067,0.9472349061390157,1.1422159671783447,0.8214285714285714
531,0.090225949883461,0.9616318601262749,1.1564085483551025,0.8214285714285714
532,0.11646474897861481,0.9532491818606825,1.1513862609863281,0.8214285714285714
533,0.037424035370349884,0.984375,1.1550341844558716,0.8157894736842105
534,0.07540664821863174,0.9613970588235294,1.1577060222625732,0.8103448275862069
535,0.0917767658829689,0.9470827679782903,1.1400176286697388,0.8103448275862069
536,0.08921832591295242,0.9613970588235294,1.136694312095642,0.8050847457627119
537,0.08554030954837799,0.9696969696969697,1.1296955347061157,0.8050847457627119
538,0.08404099941253662,0.9532491818606825,1.130462884902954,0.8103448275862069
539,0.07465706765651703,0.9859154929577465,1.152104139328003,0.8103448275862069
540,0.03344947099685669,0.9928571428571429,1.1644225120544434,0.8157894736842105
541,0.12218301743268967,0.9298737727910238,1.1225217580795288,0.8214285714285714
542,0.05928570777177811,0.9859154929577465,1.0756560564041138,0.8214285714285714
543,0.08155658841133118,0.9662162162162162,1.0342121124267578,0.8272727272727273
544,0.0932643786072731,0.9928571428571429,1.0108977556228638,0.8272727272727273
545,0.042014624923467636,0.984375,0.9929565191268921,0.8333333333333333
546,0.07041563093662262,0.9336007130124777,1.0013666152954102,0.8333333333333333
547,0.1149238869547844,0.9214285714285715,1.0213496685028076,0.8272727272727273
548,0.0537908636033535,0.969047619047619,1.0444103479385376,0.8272727272727273
549,0.12628470361232758,0.9384191176470589,1.0927395820617676,0.8214285714285714
550,0.06833136826753616,0.9613970588235294,1.1279007196426392,0.8214285714285714
551,0.11441254615783691,0.9616318601262749,1.1479538679122925,0.8214285714285714
552,0.07618220150470734,0.9766245909303413,1.153519868850708,0.8103448275862069
553,0.11466974765062332,0.9373482272948033,1.1524485349655151,0.8103448275862069
554,0.07228096574544907,0.969047619047619,1.1381887197494507,0.8050847457627119
555,0.046134043484926224,0.9928571428571429,1.128542423248291,0.8
556,0.07751428335905075,0.9766245909303413,1.1036819219589233,0.7844150475403059
557,0.040747642517089844,1.0,1.0894182920455933,0.7844150475403059
558,0.039076946675777435,0.984375,1.0796794891357422,0.8
559,0.0592074953019619,0.9766245909303413,1.081931471824646,0.8103448275862069
560,0.07899675518274307,0.9613970588235294,1.1009531021118164,0.8103448275862069
561,0.05872723460197449,0.984375,1.1039577722549438,0.8157894736842105
562,0.12089423835277557,0.9470827679782903,1.1300004720687866,0.8103448275862069
563,0.03264990821480751,0.9928571428571429,1.1403064727783203,0.8103448275862069
564,0.08777005225419998,0.9859154929577465,1.123076319694519,0.795389636882905
565,0.027479184791445732,0.9928571428571429,1.1026508808135986,0.795389636882905
566,0.040080808103084564,0.9766245909303413,1.0863856077194214,0.8011363636363636
567,0.02648383565247059,0.9928571428571429,1.0771775245666504,0.807070707070707
568,0.12165166437625885,0.9532491818606825,1.0610731840133667,0.807070707070707
569,0.10776226967573166,0.969047619047619,1.045928955078125,0.8214285714285714
570,0.07101020961999893,0.9613970588235294,1.0690587759017944,0.8214285714285714
571,0.08599606156349182,0.9696969696969697,1.0821276903152466,0.8214285714285714
572,0.07392656058073044,0.9452380952380952,1.0794333219528198,0.8214285714285714
573,0.0932740643620491,0.9613970588235294,1.0750832557678223,0.8214285714285714
574,0.08418890833854675,0.9452380952380952,1.0503791570663452,0.8272727272727273
575,0.03691175952553749,0.9928571428571429,1.0326964855194092,0.8272727272727273
576,0.04822664335370064,0.9928571428571429,1.0320158004760742,0.8272727272727273
577,0.08713970333337784,0.9452380952380952,1.0689449310302734,0.8272727272727273
578,0.12576988339424133,0.9766245909303413,1.1210817098617554,0.8214285714285714
579,0.06177327409386635,0.969047619047619,1.188131332397461,0.8050847457627119
580,0.09304998815059662,0.969047619047619,1.2735346555709839,0.8
581,0.04934520646929741,0.9696969696969697,1.3942620754241943,0.78125
582,0.05787520110607147,0.9613970588235294,1.4877327680587769,0.7727272727272727
583,0.059453267604112625,0.984375,1.569926142692566,0.7647058823529411
584,0.07715442776679993,0.969047619047619,1.5319041013717651,0.7686567164179104
585,0.061882369220256805,0.9766245909303413,1.4584232568740845,0.7727272727272727
586,0.047573745250701904,0.9928571428571429,1.361598014831543,0.78125
587,0.0584629587829113,0.9470827679782903,1.255000114440918,0.8
588,0.10653543472290039,0.9298737727910238,1.1547034978866577,0.8050847457627119
589,0.06413381546735764,0.9766245909303413,1.0959062576293945,0.8103448275862069
590,0.07492153346538544,0.9613970588235294,1.0682313442230225,0.8214285714285714
591,0.03487107530236244,0.9928571428571429,1.0720417499542236,0.8214285714285714
592,0.1322772055864334,0.9452380952380952,1.059648036956787,0.8214285714285714
593,0.07385985553264618,0.9766245909303413,1.0563901662826538,0.8214285714285714
594,0.08702118694782257,0.969047619047619,1.054816484451294,0.8157894736842105
595,0.059801049530506134,0.9859154929577465,1.0296388864517212,0.8103448275862069
596,0.08863037079572678,0.9859154929577465,1.0350615978240967,0.8050847457627119
597,0.05956205353140831,0.9859154929577465,1.0285823345184326,0.8050847457627119
598,0.07475363463163376,0.9859154929577465,1.0287739038467407,0.8050847457627119
599,0.11757169663906097,0.9470827679782903,1.0364727973937988,0.8
600,0.07853015512228012,0.9558823529411764,1.066298246383667,0.7950819672131147
601,0.08842401951551437,0.9558823529411764,1.0716209411621094,0.7950819672131147
602,0.060364942997694016,0.9766245909303413,1.0701110363006592,0.7950819672131147
603,0.051862895488739014,0.984375,1.0729950666427612,0.8
604,0.05932964012026787,0.9928571428571429,1.0459340810775757,0.8157894736842105
605,0.0809459462761879,0.9532491818606825,1.056032657623291,0.8157894736842105
606,0.06829296797513962,0.9859154929577465,1.0410304069519043,0.8214285714285714
607,0.05195131152868271,0.9613970588235294,1.030366063117981,0.8214285714285714
608,0.08055739104747772,0.9766245909303413,1.0281970500946045,0.8214285714285714
609,0.04621066898107529,0.9766245909303413,1.0200562477111816,0.8214285714285714
610,0.05093321576714516,0.9791666666666667,0.9993114471435547,0.8214285714285714
611,0.05428658053278923,0.9859154929577465,0.9732091426849365,0.8272727272727273
612,0.08887200802564621,0.9452380952380952,0.9712933897972107,0.8272727272727273
613,0.02895844355225563,0.984375,0.9887556433677673,0.8272727272727273
614,0.11516988277435303,0.9336007130124777,1.0133671760559082,0.8272727272727273
615,0.05342654883861542,0.9558823529411764,1.0508766174316406,0.8214285714285714
616,0.10764620453119278,0.9470827679782903,1.0570341348648071,0.8214285714285714
617,0.026753799989819527,0.9928571428571429,1.0783199071884155,0.8050847457627119
618,0.054549701511859894,0.9766245909303413,1.0931261777877808,0.8
619,0.07740221917629242,0.9859154929577465,1.1398723125457764,0.7857142857142857
620,0.07787063717842102,0.9452380952380952,1.219016671180725,0.7727272727272727
621,0.06398410350084305,0.9928571428571429,1.2770349979400635,0.7727272727272727
622,0.05144025385379791,0.9859154929577465,1.265403389930725,0.7727272727272727
623,0.03653306886553764,0.9928571428571429,1.242859959602356,0.7903225806451613
624,0.04961831867694855,0.9766245909303413,1.2140129804611206,0.7950819672131147
625,0.042686838656663895,0.9696969696969697,1.2079333066940308,0.8103448275862069
626,0.0638328343629837,0.9613970588235294,1.2331527471542358,0.8157894736842105
627,0.022254066541790962,1.0,1.2353349924087524,0.8157894736842105
628,0.035192836076021194,0.9928571428571429,1.2313463687896729,0.8157894736842105
629,0.02583756111562252,1.0,1.2072609663009644,0.8214285714285714
630,0.0930609181523323,0.969047619047619,1.1901839971542358,0.8214285714285714
631,0.05994519218802452,0.9928571428571429,1.1843628883361816,0.8214285714285714
632,0.08232194930315018,0.9532491818606825,1.1364654302597046,0.8214285714285714
633,0.0514831580221653,0.9558823529411764,1.111311912536621,0.8214285714285714
634,0.04387251287698746,0.984375,1.113702654838562,0.8214285714285714
635,0.05812129005789757,0.969047619047619,1.1588993072509766,0.8214285714285714
636,0.03474488481879234,0.9766245909303413,1.175998330116272,0.8214285714285714
637,0.037858232855796814,0.9696969696969697,1.1879042387008667,0.8214285714285714
638,0.0192060898989439,0.984375,1.1841481924057007,0.8214285714285714
639,0.019859403371810913,0.984375,1.1930488348007202,0.8214285714285714
640,0.04001001641154289,0.9859154929577465,1.1340950727462769,0.8214285714285714
641,0.015575849451124668,1.0,1.096022367477417,0.8214285714285714
642,0.07285884022712708,0.9859154929577465,1.0813488960266113,0.8214285714285714
643,0.09075196087360382,0.9543650793650793,1.0205124616622925,0.8214285714285714
644,0.08323564380407333,0.9859154929577465,0.9830034971237183,0.8214285714285714
645,0.09495074301958084,0.9616318601262749,0.9686328172683716,0.8214285714285714
646,0.07514315843582153,0.9470827679782903,0.9824257493019104,0.8214285714285714
647,0.04826688766479492,0.9613970588235294,1.007387638092041,0.8214285714285714
648,0.04763622209429741,0.9613970588235294,1.0378327369689941,0.8214285714285714
649,0.08437185734510422,0.9543650793650793,1.0646628141403198,0.8214285714285714
650,0.02674155682325363,0.9928571428571429,1.097748041152954,0.8157894736842105
651,0.013952750712633133,1.0,1.1301302909851074,0.8157894736842105
652,0.04781237617135048,0.9766245909303413,1.1663062572479248,0.8157894736842105
653,0.10955624282360077,0.9384191176470589,1.203546166419983,0.8157894736842105
654,0.06932925432920456,0.9532491818606825,1.2104843854904175,0.8157894736842105
655,0.06320609152317047,0.9928571428571429,1.2292197942733765,0.8157894736842105
656,0.04124923050403595,0.9928571428571429,1.2350345849990845,0.8157894736842105
657,0.07402367144823074,0.969047619047619,1.2805938720703125,0.8157894736842105
658,0.04222530126571655,0.9928571428571429,1.31913423538208,0.8157894736842105
659,0.04831638187170029,0.9616318601262749,1.3355141878128052,0.8157894736842105
660,0.05024978145956993,0.9613970588235294,1.3500720262527466,0.8157894736842105
661,0.031287625432014465,0.984375,1.3597795963287354,0.8050847457627119
662,0.03796159476041794,0.9613970588235294,1.3555166721343994,0.8103448275862069
663,0.038782425224781036,1.0,1.3546535968780518,0.8157894736842105
664,0.0538138709962368,0.9766245909303413,1.3617427349090576,0.8157894736842105
665,0.04576198011636734,0.9696969696969697,1.3900936841964722,0.8103448275862069
666,0.011431191116571426,1.0,1.4030770063400269,0.8103448275862069
667,0.03610123321413994,0.9766245909303413,1.4325191974639893,0.8050847457627119
668,0.030267128720879555,0.9859154929577465,1.4442495107650757,0.8103448275862069
669,0.067101389169693,0.969047619047619,1.4641674757003784,0.8103448275862069
670,0.018389301374554634,1.0,1.4641331434249878,0.8103448275862069
671,0.04351497441530228,0.9928571428571429,1.474622130393982,0.8103448275862069
672,0.012446166947484016,1.0,1.4376026391983032,0.8157894736842105
673,0.07822705805301666,0.9766245909303413,1.411956787109375,0.8157894736842105
674,0.07006091624498367,0.9766245909303413,1.4038589000701904,0.8103448275862069
675,0.06312420964241028,0.9696969696969697,1.378188133239746,0.8157894736842105
676,0.00649758568033576,1.0,1.3617312908172607,0.8214285714285714
677,0.03436911106109619,0.9766245909303413,1.3466404676437378,0.8214285714285714
678,0.011973881162703037,1.0,1.3162108659744263,0.8214285714285714
679,0.029640918597579002,0.9696969696969697,1.3032582998275757,0.8214285714285714
680,0.03539952263236046,0.9766245909303413,1.3046194314956665,0.8214285714285714
681,0.05678289383649826,0.969047619047619,1.3170465230941772,0.8214285714285714
682,0.08567357063293457,0.9558823529411764,1.3247088193893433,0.8214285714285714
683,0.014496364630758762,0.9928571428571429,1.3455501794815063,0.8214285714285714
684,0.05487723648548126,0.9766245909303413,1.3637934923171997,0.8214285714285714
685,0.09939118474721909,0.9470827679782903,1.4132320880889893,0.8157894736842105
686,0.04232003912329674,0.9859154929577465,1.4910672903060913,0.8157894736842105
687,0.010200540535151958,1.0,1.5393725633621216,0.8157894736842105
688,0.020572977140545845,1.0,1.5608779191970825,0.8157894736842105
689,0.03484633192420006,0.9766245909303413,1.5811092853546143,0.8103448275862069
690,0.10053019970655441,0.969047619047619,1.5586901903152466,0.8103448275862069
691,0.029591551050543785,0.984375,1.5082828998565674,0.8050847457627119
692,0.11458112299442291,0.9532491818606825,1.3564956188201904,0.8011363636363636
693,0.009393495507538319,1.0,1.2497442960739136,0.8011363636363636
694,0.043117132037878036,0.9613970588235294,1.1744893789291382,0.807070707070707
695,0.028966020792722702,0.9696969696969697,1.1313694715499878,0.807070707070707
696,0.06378936022520065,0.9766245909303413,1.1273598670959473,0.807070707070707
697,0.08525580912828445,0.9613970588235294,1.1395564079284668,0.8214285714285714
698,0.01998724974691868,0.984375,1.146039605140686,0.8214285714285714
699,0.048864297568798065,0.9766245909303413,1.1502677202224731,0.8214285714285714
700,0.03145710378885269,0.9928571428571429,1.153427243232727,0.8214285714285714
701,0.042644061148166656,0.9928571428571429,1.1741794347763062,0.8214285714285714
702,0.03977929428219795,0.9928571428571429,1.1613812446594238,0.8214285714285714
703,0.02229446917772293,0.9928571428571429,1.1517115831375122,0.8214285714285714
704,0.017667634412646294,0.9928571428571429,1.1301205158233643,0.8214285714285714
705,0.012706905603408813,1.0,1.1166808605194092,0.8214285714285714
706,0.03238271176815033,0.9766245909303413,1.112558364868164,0.8214285714285714
707,0.023976992815732956,0.984375,1.1558268070220947,0.8214285714285714
708,0.028916528448462486,0.984375,1.2063183784484863,0.8214285714285714
709,0.02281871810555458,1.0,1.2564270496368408,0.8214285714285714
710,0.05353384464979172,0.984375,1.3005558252334595,0.8157894736842105
711,0.0949951708316803,0.9613970588235294,1.2909204959869385,0.8157894736842105
712,0.05476111173629761,0.9696969696969697,1.2587549686431885,0.8157894736842105
713,0.05645734816789627,0.9613970588235294,1.2412277460098267,0.8157894736842105
714,0.03487655520439148,0.9696969696969697,1.2397021055221558,0.8214285714285714
715,0.013135422952473164,1.0,1.2420933246612549,0.8214285714285714
716,0.02837541326880455,0.9928571428571429,1.2301793098449707,0.8214285714285714
717,0.02881740964949131,0.9928571428571429,1.2064733505249023,0.8214285714285714
718,0.034852851182222366,0.9766245909303413,1.1945735216140747,0.8214285714285714
719,0.014010284096002579,0.984375,1.2054424285888672,0.8214285714285714
720,0.015649501234292984,0.984375,1.2418962717056274,0.8214285714285714
721,0.015550943091511726,0.9928571428571429,1.2665859460830688,0.8214285714285714
722,0.038836196064949036,0.9928571428571429,1.286468744277954,0.8214285714285714
723,0.021745728328824043,0.9928571428571429,1.3075878620147705,0.8214285714285714
724,0.012543091550469398,0.9928571428571429,1.3509783744812012,0.8214285714285714
725,0.04867136850953102,0.984375,1.4086840152740479,0.8157894736842105
726,0.026364436373114586,0.984375,1.5365091562271118,0.8103448275862069
727,0.0670357197523117,0.9766245909303413,1.626971960067749,0.7857142857142857
728,0.04923662170767784,0.9791666666666667,1.66798734664917,0.78125
729,0.05905639007687569,0.969047619047619,1.6314440965652466,0.7857142857142857
730,0.02708902209997177,0.9928571428571429,1.5607823133468628,0.8
731,0.010875813663005829,1.0,1.511601209640503,0.8050847457627119
732,0.04577847197651863,0.9613970588235294,1.49201500415802,0.8050847457627119
733,0.09566984325647354,0.9428571428571428,1.4498541355133057,0.8050847457627119
734,0.037789132446050644,0.9696969696969697,1.4365463256835938,0.8157894736842105
735,0.035432979464530945,0.9696969696969697,1.393911600112915,0.8157894736842105
736,0.014802972786128521,1.0,1.3361773490905762,0.8157894736842105
737,0.006200002506375313,1.0,1.2829134464263916,0.8214285714285714
738,0.024999644607305527,0.9928571428571429,1.2297238111495972,0.8214285714285714
739,0.06576961278915405,0.9859154929577465,1.1902635097503662,0.8272727272727273
740,0.007926116697490215,1.0,1.1529629230499268,0.8272727272727273
741,0.027864865958690643,0.9928571428571429,1.1025053262710571,0.8333333333333333
742,0.061843641102313995,0.9613970588235294,1.044803261756897,0.8333333333333333
743,0.10382699966430664,0.9613970588235294,1.010824203491211,0.8333333333333333
744,0.11881216615438461,0.9766245909303413,0.9814973473548889,0.8333333333333333
745,0.09182007610797882,0.9859154929577465,0.9495710730552673,0.8333333333333333
746,0.07686785608530045,0.9766245909303413,0.9384039640426636,0.8272727272727273
747,0.01980138011276722,0.9928571428571429,0.9422550797462463,0.8272727272727273
748,0.01785297878086567,0.984375,0.9516714811325073,0.8272727272727273
749,0.05547935888171196,0.9766245909303413,0.9940733909606934,0.8214285714285714
750,0.021941877901554108,1.0,1.0411858558654785,0.8157894736842105
751,0.056993912905454636,0.969047619047619,1.0527085065841675,0.8157894736842105
752,0.020219679921865463,1.0,1.0221340656280518,0.8214285714285714
753,0.04937252774834633,0.9613970588235294,0.984454870223999,0.8272727272727273
754,0.07936954498291016,0.9470827679782903,0.9240420460700989,0.8195503813729426
755,0.02993926964700222,0.984375,0.8758029937744141,0.8261217948717949
756,0.057145457714796066,0.9766245909303413,0.8504589796066284,0.8329331732693077
757,0.03411712870001793,0.984375,0.8265789747238159,0.8261217948717949
758,0.019539978355169296,1.0,0.8302520513534546,0.8396226415094339
759,0.024666719138622284,0.9928571428571429,0.8502799272537231,0.8396226415094339
760,0.08763764798641205,0.9532491818606825,0.8820591568946838,0.8396226415094339
761,0.06745564937591553,0.9791666666666667,0.9113138914108276,0.8396226415094339
762,0.013500658795237541,1.0,0.9183937907218933,0.8396226415094339
763,0.050485800951719284,0.9859154929577465,0.9089574813842773,0.8396226415094339
764,0.03251871466636658,0.9859154929577465,0.8917596936225891,0.8396226415094339
765,0.024819595739245415,0.984375,0.8757275342941284,0.8396226415094339
766,0.009022703394293785,1.0,0.8475550413131714,0.8396226415094339
767,0.012346635572612286,1.0,0.8328874707221985,0.8333333333333333
768,0.049977753311395645,0.9613970588235294,0.8187704086303711,0.8195503813729426
769,0.021394170820713043,0.984375,0.7969534397125244,0.8195503813729426
770,0.008777598850429058,1.0,0.7820238471031189,0.8195503813729426
771,0.019814811646938324,0.984375,0.7642664313316345,0.8195503813729426
772,0.02881808765232563,0.984375,0.7776798605918884,0.8195503813729426
773,0.026122206822037697,0.9766245909303413,0.817277193069458,0.8333333333333333
774,0.05022529885172844,0.9613970588235294,0.8421201705932617,0.8333333333333333
775,0.020142260938882828,0.9928571428571429,0.8684226870536804,0.8333333333333333
776,0.1433316171169281,0.969047619047619,0.9152370095252991,0.8333333333333333
777,0.00593735184520483,1.0,0.9464858174324036,0.8333333333333333
778,0.026543747633695602,1.0,0.9773655533790588,0.8333333333333333
779,0.05006858706474304,0.969047619047619,0.9934208393096924,0.8396226415094339
780,0.046160172671079636,0.9613970588235294,1.036829948425293,0.8272727272727273
781,0.014093703590333462,1.0,1.0750792026519775,0.8272727272727273
782,0.03975655883550644,0.9859154929577465,1.1177369356155396,0.8272727272727273
783,0.05956532806158066,0.9696969696969697,1.1672046184539795,0.8272727272727273
784,0.03993241488933563,0.9696969696969697,1.2227709293365479,0.8214285714285714
785,0.022068528458476067,0.9928571428571429,1.2804720401763916,0.8214285714285714
786,0.021400975063443184,0.9928571428571429,1.3394405841827393,0.8157894736842105
787,0.012365967035293579,1.0,1.40412437915802,0.8157894736842105
788,0.003721362678334117,1.0,1.4454656839370728,0.8157894736842105
789,0.02911699377000332,0.9859154929577465,1.4497367143630981,0.8157894736842105
790,0.055117443203926086,0.9616318601262749,1.4274804592132568,0.8157894736842105
791,0.03570931777358055,0.9859154929577465,1.4106615781784058,0.8157894736842105
792,0.05684889480471611,0.9766245909303413,1.3784006834030151,0.8157894736842105
793,0.010374707169830799,1.0,1.3413968086242676,0.8157894736842105
794,0.04383888468146324,0.9696969696969697,1.3297909498214722,0.8157894736842105
795,0.09813530743122101,0.9696969696969697,1.3201451301574707,0.8157894736842105
796,0.047434475272893906,0.9558823529411764,1.3348338603973389,0.8157894736842105
797,0.039906177669763565,0.9613970588235294,1.311545968055725,0.8157894736842105
798,0.019772633910179138,1.0,1.2730672359466553,0.8157894736842105
799,0.009867154993116856,1.0,1.2460877895355225,0.8157894736842105
800,0.0672508180141449,0.9928571428571429,1.2056045532226562,0.8157894736842105
801,0.0409097746014595,0.9928571428571429,1.141473650932312,0.8157894736842105
802,0.05565885826945305,0.9766245909303413,1.0669658184051514,0.8132045088566828
803,0.060912612825632095,0.9928571428571429,1.015029788017273,0.8132045088566828
804,0.040036097168922424,0.984375,0.9641733169555664,0.8195503813729426
805,0.010338240303099155,1.0,0.9246855974197388,0.8195503813729426
806,0.012354187667369843,1.0,0.8894751667976379,0.8195503813729426
807,0.02485639601945877,0.984375,0.8606833219528198,0.8329331732693077
808,0.03321097418665886,0.984375,0.8403286337852478,0.8329331732693077
809,0.04755540192127228,0.9766245909303413,0.8372839093208313,0.8200000000000001
810,0.02927599661052227,0.984375,0.8355672359466553,0.8200000000000001
811,0.02693854831159115,0.9766245909303413,0.8343383073806763,0.8273309323729492
812,0.045472949743270874,0.9613970588235294,0.865446925163269,0.8261217948717949
813,0.03567252680659294,0.9859154929577465,0.9023209810256958,0.8261217948717949
814,0.02293793112039566,0.9766245909303413,0.9506163001060486,0.8195503813729426
815,0.006105685140937567,1.0,0.986843466758728,0.8132045088566828
816,0.03190529718995094,0.9928571428571429,1.040200114250183,0.8195503813729426
817,0.05667634680867195,0.9616318601262749,1.0894834995269775,0.8195503813729426
818,0.01965905912220478,0.984375,1.1126658916473389,0.8132045088566828
819,0.02363264001905918,0.984375,1.117408275604248,0.8132045088566828
820,0.04616270959377289,0.9928571428571429,1.0593125820159912,0.8132045088566828
821,0.00647439481690526,1.0,1.0135377645492554,0.8060897435897436
822,0.012799488380551338,0.9928571428571429,0.9987455010414124,0.8060897435897436
823,0.04265625774860382,0.9766245909303413,1.0567405223846436,0.7994781212364512
824,0.04069391265511513,0.9696969696969697,1.0911810398101807,0.8060897435897436
825,0.007130553014576435,1.0,1.114518404006958,0.8195503813729426
826,0.012779067270457745,1.0,1.138086199760437,0.8195503813729426
827,0.01680385135114193,0.984375,1.152193307876587,0.8195503813729426
828,0.0183795765042305,0.984375,1.1598498821258545,0.8195503813729426
829,0.027001112699508667,0.984375,1.171441674232483,0.8195503813729426
830,0.0079346913844347,1.0,1.1563128232955933,0.8195503813729426
831,0.009530690498650074,1.0,1.1517819166183472,0.8195503813729426
832,0.06543496251106262,0.9928571428571429,1.1702553033828735,0.8195503813729426
833,0.03372734412550926,0.9859154929577465,1.1686331033706665,0.8129251700680271
834,0.024752004072070122,0.9928571428571429,1.1840980052947998,0.8129251700680271
835,0.07822282612323761,0.9613970588235294,1.1560145616531372,0.8129251700680271
836,0.03304905444383621,0.984375,1.1338355541229248,0.8060897435897436
837,0.01626034453511238,0.984375,1.117238998413086,0.8060897435897436
838,0.009128659963607788,1.0,1.1091482639312744,0.8060897435897436
839,0.020103642717003822,1.0,1.0960372686386108,0.8132045088566828
840,0.017940688878297806,0.984375,1.0802786350250244,0.8272727272727273
841,0.07072508335113525,0.9928571428571429,1.0642577409744263,0.8333333333333333
842,0.0028451811522245407,1.0,1.0347716808319092,0.8214285714285714
843,0.05473792552947998,0.9766245909303413,1.0596182346343994,0.8272727272727273
844,0.005516854580491781,1.0,1.0821666717529297,0.8195503813729426
845,0.009970377199351788,1.0,1.0999047756195068,0.8132045088566828
846,0.0268490482121706,0.9928571428571429,1.1217155456542969,0.8132045088566828
847,0.022504569962620735,0.9766245909303413,1.1127848625183105,0.8195503813729426
848,0.004042422398924828,1.0,1.0901583433151245,0.8060897435897436
849,0.030180184170603752,0.9928571428571429,1.0938220024108887,0.8060897435897436
850,0.03307540342211723,0.9696969696969697,1.081357717514038,0.8060897435897436
851,0.016329322010278702,0.984375,1.0848461389541626,0.8060897435897436
852,0.04447184503078461,0.9859154929577465,1.1017608642578125,0.8060897435897436
853,0.018387267366051674,1.0,1.1076200008392334,0.8060897435897436
854,0.03917956352233887,0.9696969696969697,1.1131657361984253,0.7994781212364512
855,0.018602734431624413,1.0,1.1317353248596191,0.7994781212364512
856,0.025451695546507835,0.9766245909303413,1.1179888248443604,0.8060897435897436
857,0.006334994453936815,1.0,1.09226655960083,0.8129251700680271
858,0.022999877110123634,0.984375,1.074817180633545,0.8129251700680271
859,0.019243454560637474,0.9928571428571429,1.0200963020324707,0.8129251700680271
860,0.017516590654850006,0.9928571428571429,0.9729175567626953,0.8200000000000001
861,0.010921848006546497,1.0,0.9548348784446716,0.8200000000000001
862,0.021342219784855843,0.9696969696969697,0.9634696841239929,0.8129251700680271
863,0.003549123415723443,1.0,0.9634082317352295,0.8200000000000001
864,0.024208731949329376,0.984375,0.9827328324317932,0.8200000000000001
865,0.004365887027233839,1.0,1.0002862215042114,0.8200000000000001
866,0.018451062962412834,0.984375,1.018147587776184,0.8200000000000001
867,0.061044592410326004,0.9766245909303413,1.0261660814285278,0.8200000000000001
868,0.0069170137867331505,1.0,1.0343003273010254,0.8200000000000001
869,0.01198244746774435,0.9928571428571429,1.0385968685150146,0.8200000000000001
870,0.01609993353486061,1.0,1.0605703592300415,0.8200000000000001
871,0.03297339007258415,0.9859154929577465,1.085734486579895,0.8200000000000001
872,0.011755451560020447,0.984375,1.1035397052764893,0.8200000000000001
873,0.0022774995304644108,1.0,1.1130894422531128,0.8273309323729492
874,0.0213613323867321,0.9928571428571429,1.1020921468734741,0.8273309323729492
875,0.0307258740067482,0.984375,1.06905198097229,0.8273309323729492
876,0.05535193905234337,0.984375,1.0406314134597778,0.8273309323729492
877,0.07009772956371307,0.9696969696969697,1.0379256010055542,0.8200000000000001
878,0.03378594294190407,0.9928571428571429,1.0424678325653076,0.8129251700680271
879,0.010987737216055393,1.0,1.0650759935379028,0.8195503813729426
880,0.0046408576890826225,1.0,1.0599662065505981,0.8132045088566828
881,0.01943150721490383,0.9928571428571429,1.064963698387146,0.8132045088566828
882,0.030363349243998528,0.9928571428571429,1.0982457399368286,0.8132045088566828
883,0.02181161567568779,0.984375,1.1614139080047607,0.8132045088566828
884,0.019999446347355843,0.9928571428571429,1.2427345514297485,0.8132045088566828
885,0.018691090866923332,0.984375,1.3263717889785767,0.807070707070707
886,0.021980034187436104,0.984375,1.347210168838501,0.807070707070707
887,0.05220776051282883,0.9928571428571429,1.2977774143218994,0.807070707070707
888,0.017093544825911522,0.9928571428571429,1.214461088180542,0.8195503813729426
889,0.0632440447807312,0.9766245909303413,1.1050981283187866,0.8261217948717949
890,0.027885807678103447,0.9696969696969697,1.0136948823928833,0.8261217948717949
891,0.022020334377884865,1.0,0.9402145147323608,0.84
892,0.003373117186129093,1.0,0.8883202075958252,0.8510466988727858
893,0.04286709055304527,0.9859154929577465,0.8539919257164001,0.8510466988727858
894,0.05112355947494507,0.9696969696969697,0.8275806903839111,0.8428342031312726
895,0.07657111436128616,0.969047619047619,0.8035653233528137,0.8349358974358975
896,0.04090236872434616,0.9859154929577465,0.8026266098022461,0.8349358974358975
897,0.04648981988430023,0.9558823529411764,0.8129076361656189,0.8200000000000001
898,0.04197095334529877,0.9928571428571429,0.8132489323616028,0.8349358974358975
899,0.1049690693616867,0.9616318601262749,0.8288902044296265,0.8273309323729492
900,0.01638724096119404,1.0,0.8255155682563782,0.8349358974358975
901,0.06719721108675003,0.969047619047619,0.7977139353752136,0.8273309323729492
902,0.008705745451152325,1.0,0.7689806818962097,0.8273309323729492
903,0.013839679770171642,1.0,0.7365360856056213,0.8273309323729492
904,0.0540873222053051,0.9766245909303413,0.697796106338501,0.8273309323729492
905,0.02108357474207878,0.984375,0.6582293510437012,0.8273309323729492
906,0.05842115357518196,0.9928571428571429,0.6115831732749939,0.8349358974358975
907,0.0664420798420906,0.9613970588235294,0.5792157053947449,0.8510466988727858
908,0.012987754307687283,1.0,0.55781090259552,0.8510466988727858
909,0.015864107757806778,0.984375,0.5493433475494385,0.8393939393939394
910,0.035283636301755905,0.9766245909303413,0.5520994663238525,0.8393939393939394
911,0.0157456137239933,1.0,0.5607427954673767,0.8595959595959596
912,0.03901858627796173,0.9696969696969697,0.5779809355735779,0.8482142857142857
913,0.06494820863008499,0.9791666666666667,0.5887569189071655,0.8574051407588739
914,0.048273537307977676,0.9859154929577465,0.6041362881660461,0.8482142857142857
915,0.016777638345956802,0.984375,0.6207002997398376,0.8370053039575683
916,0.047939036041498184,0.9928571428571429,0.628501296043396,0.8191919191919192
917,0.018785033375024796,0.9928571428571429,0.6454218626022339,0.8393939393939394
918,0.016976112499833107,1.0,0.6691166758537292,0.8393939393939394
919,0.007655493915081024,1.0,0.7008352279663086,0.8510466988727858
920,0.02673628181219101,0.9859154929577465,0.7254873514175415,0.8428342031312726
921,0.010506127029657364,1.0,0.7554852366447449,0.8273309323729492
922,0.01056409440934658,1.0,0.7781209945678711,0.8273309323729492
923,0.022680647671222687,0.9928571428571429,0.8125554323196411,0.84
924,0.020221419632434845,0.984375,0.8297725319862366,0.84
925,0.0035029212012887,1.0,0.8537431359291077,0.84
926,0.003952499013394117,1.0,0.8807055354118347,0.8473389355742297
927,0.02001860737800598,0.984375,0.8982194066047668,0.8473389355742297
928,0.10106512904167175,0.9532491818606825,0.8743630647659302,0.8549679487179487
929,0.004793422296643257,1.0,0.8391456604003906,0.8309178743961352
930,0.025922026485204697,0.9766245909303413,0.8044533133506775,0.8309178743961352
931,0.048703353852033615,0.9928571428571429,0.7682961821556091,0.8309178743961352
932,0.05061555281281471,0.9766245909303413,0.7191413044929504,0.8473389355742297
933,0.04811418429017067,0.984375,0.6866359710693359,0.8473389355742297
934,0.017939992249011993,0.984375,0.685339629650116,0.8349358974358975
935,0.017145687714219093,0.984375,0.6938400864601135,0.8349358974358975
936,0.040233854204416275,0.984375,0.7017739415168762,0.8200000000000001
937,0.005853836424648762,1.0,0.7085406184196472,0.8273309323729492
938,0.01373643521219492,0.9928571428571429,0.699258029460907,0.8273309323729492
939,0.007821224629878998,1.0,0.6872813105583191,0.8273309323729492
940,0.03289022296667099,0.9859154929577465,0.6628578901290894,0.8510466988727858
941,0.03731454908847809,0.9928571428571429,0.6461135745048523,0.8428342031312726
942,0.007667466066777706,1.0,0.6413851976394653,0.8309178743961352
943,0.002788182348012924,1.0,0.6508140563964844,0.8393939393939394
944,0.0027960031293332577,1.0,0.6653894186019897,0.8393939393939394
945,0.040495194494724274,0.984375,0.6780820488929749,0.8370053039575683
946,0.0027715489268302917,1.0,0.6933830976486206,0.8464696223316912
947,0.04717889800667763,0.984375,0.6948754787445068,0.8464696223316912
948,0.04673163220286369,0.9766245909303413,0.7032378911972046,0.8464696223316912
949,0.001943104201927781,1.0,0.7057843804359436,0.8370053039575683
950,0.006733752321451902,1.0,0.7129124402999878,0.827922077922078
951,0.024238185957074165,0.9928571428571429,0.7069535851478577,0.8393939393939394
952,0.03115752711892128,0.9928571428571429,0.7183266878128052,0.8510466988727858
953,0.008613131940364838,1.0,0.7312884330749512,0.8510466988727858
954,0.00583095196634531,1.0,0.7432376146316528,0.8510466988727858
955,0.014149438589811325,1.0,0.7544212341308594,0.8428342031312726
956,0.02069377899169922,0.9928571428571429,0.7830561399459839,0.8349358974358975
957,0.0053907595574855804,1.0,0.8143033981323242,0.8273309323729492
958,0.00928385928273201,1.0,0.8446465730667114,0.84
959,0.0069890860468149185,1.0,0.8816747665405273,0.8329331732693077
960,0.0047410330735147,1.0,0.9142309427261353,0.8329331732693077
961,0.006074993405491114,1.0,0.9422115087509155,0.8195503813729426
962,0.04214174672961235,0.9928571428571429,0.9933484196662903,0.8195503813729426
963,0.0016715225065127015,1.0,1.026992678642273,0.8195503813729426
964,0.012341532856225967,0.984375,1.0512912273406982,0.8195503813729426
965,0.024213459342718124,0.9928571428571429,1.0496826171875,0.8195503813729426
966,0.016529299318790436,0.9928571428571429,1.055267333984375,0.8195503813729426
967,0.023327702656388283,0.9696969696969697,1.073616862297058,0.8195503813729426
968,0.013832825236022472,0.9928571428571429,1.0778329372406006,0.8195503813729426
969,0.002927706576883793,1.0,1.0862723588943481,0.8195503813729426
970,0.011746739968657494,1.0,1.0788896083831787,0.8195503813729426
971,0.01693017967045307,0.984375,1.0624260902404785,0.8195503813729426
972,0.0012430582428351045,1.0,1.056395411491394,0.8261217948717949
973,0.08468658477067947,0.9558823529411764,1.0432671308517456,0.8261217948717949
974,0.028992269188165665,0.9696969696969697,1.0018081665039062,0.8261217948717949
975,0.04477069154381752,0.9928571428571429,0.9743266701698303,0.8329331732693077
976,0.026662932708859444,0.9928571428571429,0.9749375581741333,0.8349358974358975
977,0.006320617161691189,1.0,0.9788655042648315,0.8349358974358975
978,0.0020125708542764187,1.0,0.982109785079956,0.8349358974358975
979,0.0032577153760939837,1.0,0.981703519821167,0.8349358974358975
980,0.014090676791965961,0.9928571428571429,0.9797012805938721,0.8349358974358975
981,0.0036231966223567724,1.0,0.9849748015403748,0.8349358974358975
982,0.047203682363033295,0.9928571428571429,0.9441189169883728,0.8349358974358975
983,0.0015783696435391903,1.0,0.9192276000976562,0.8473389355742297
984,0.01261297706514597,1.0,0.8901206851005554,0.84
985,0.0018099586013704538,1.0,0.8724638223648071,0.8329331732693077
986,0.002422621473670006,1.0,0.8629661202430725,0.8329331732693077
987,0.004130668938159943,1.0,0.8605515360832214,0.8329331732693077
988,0.003955472260713577,1.0,0.8572118878364563,0.8329331732693077
989,0.0075376699678599834,1.0,0.8509601354598999,0.8329331732693077
990,0.006791846826672554,1.0,0.8382166624069214,0.8329331732693077
991,0.021449679508805275,0.984375,0.8205100297927856,0.8329331732693077
992,0.00137851492036134,1.0,0.8107921481132507,0.8461538461538461
993,0.008462800644338131,1.0,0.7958930134773254,0.8461538461538461
994,0.0015443898737430573,1.0,0.7797105312347412,0.8461538461538461
995,0.022151174023747444,0.984375,0.7347821593284607,0.8461538461538461
996,0.004030075389891863,1.0,0.6937873959541321,0.8529411764705883
997,0.002620391547679901,1.0,0.6660701632499695,0.8529411764705883
998,0.003676007268950343,1.0,0.6438634991645813,0.86
999,0.003939154092222452,1.0,0.6271871328353882,0.8673469387755102
