,loss,recall,val_loss,val_recall
0,1.4941929578781128,0.276875,1.6445597410202026,0.012445746527777779
1,0.9146730303764343,0.3802841302841303,1.6045713424682617,0.012445746527777779
2,0.7173943519592285,0.509078947368421,1.5389158725738525,0.012445746527777779
3,0.5943337678909302,0.49092956592956594,1.43986976146698,0.2630818691238976
4,0.5105448365211487,0.6212719298245614,1.28959059715271,0.4119505258323371
5,0.445608913898468,0.7038265306122449,1.0710493326187134,0.3910198942596644
6,0.39113858342170715,0.7035891089108911,0.8329466581344604,0.4606276070254675
7,0.34572625160217285,0.7589462517680339,0.6350609660148621,0.5101086401012758
8,0.3085469603538513,0.7589462517680339,0.4977336525917053,0.5584740862887382
9,0.27765145897865295,0.7599264705882353,0.41000455617904663,0.5892695496359212
10,0.25195711851119995,0.7599264705882353,0.3545657694339752,0.5977014833679131
11,0.2303605079650879,0.7603341584158416,0.3196015954017639,0.5977798482163332
12,0.21181321144104004,0.88575,0.297514945268631,0.618802273972786
13,0.19567978382110596,0.877,0.28347206115722656,0.6187931569848211
14,0.18128852546215057,0.8774242424242424,0.2741139233112335,0.6285512719804339
15,0.168167844414711,0.8778571428571429,0.2675446569919586,0.6330655505528369
16,0.1562843918800354,0.8796626054358013,0.26236140727996826,0.6407612355309958
17,0.14543746411800385,0.8801136363636364,0.25780120491981506,0.6497335335366639
18,0.13538047671318054,0.8801136363636364,0.25446411967277527,0.6487671763438916
19,0.12601852416992188,0.8801136363636364,0.25270047783851624,0.64881333359693
20,0.11723973602056503,0.8831423895253683,0.2507847547531128,0.6588777631053965
21,0.10917665809392929,0.8875204582651391,0.24812881648540497,0.6573038136873813
22,0.1014099046587944,0.8875204582651391,0.24708975851535797,0.6552519935436327
23,0.09397868067026138,0.8895289855072464,0.2476508617401123,0.6624833603919866
24,0.08686015754938126,0.8904532967032968,0.24846206605434418,0.6669415922887971
25,0.08025550842285156,0.8909722222222223,0.24905024468898773,0.6530434050179683
26,0.07417139410972595,0.8918704560475876,0.24736584722995758,0.6572175136983835
27,0.06821797788143158,0.8918704560475876,0.24831777811050415,0.664888364783819
28,0.06260520219802856,0.9446278089887641,0.2491222470998764,0.6648418343722443
29,0.0575409010052681,0.9446278089887641,0.24911852180957794,0.6627406159047611
30,0.05292503163218498,0.9488505747126437,0.2505992650985718,0.6608308000573421
31,0.048734936863183975,0.9488505747126437,0.25098752975463867,0.6608370926773461
32,0.0448024608194828,1.0,0.25239989161491394,0.6629500668610464
33,0.041754093021154404,1.0,0.2533766031265259,0.6629383111448294
34,0.038346149027347565,1.0,0.25586169958114624,0.6560889531134368
35,0.0356082022190094,1.0,0.2564120590686798,0.6421969914615194
36,0.03322412446141243,1.0,0.2571811378002167,0.6449480579742555
37,0.030683301389217377,1.0,0.2592734694480896,0.6358516201591907
38,0.028307020664215088,1.0,0.262297123670578,0.6302960646036352
39,0.026331959292292595,1.0,0.264131098985672,0.6275006865809843
40,0.024514757096767426,1.0,0.2642039358615875,0.6275044347069214
41,0.022914960980415344,1.0,0.26633039116859436,0.6345439655644177
42,0.021385636180639267,1.0,0.26947474479675293,0.6317447978496066
43,0.020078977569937706,1.0,0.27029862999916077,0.6247052669921103
44,0.018974054604768753,1.0,0.2715412676334381,0.6275076741518841
45,0.017838459461927414,1.0,0.2743171751499176,0.6274978732491334
46,0.01676119863986969,1.0,0.27535879611968994,0.6345337200512216
47,0.015877151861786842,1.0,0.27646714448928833,0.6338423322616815
48,0.01503522414714098,1.0,0.27827316522598267,0.6345219643350046
49,0.014182244427502155,1.0,0.27868038415908813,0.6345767490673603
50,0.01345962192863226,1.0,0.28050005435943604,0.6346156224069133
51,0.012809833511710167,1.0,0.28114286065101624,0.6345804331227685
52,0.012191306799650192,1.0,0.28187277913093567,0.6345364710935123
53,0.011607374995946884,1.0,0.2837217450141907,0.6346384905842553
54,0.011073725298047066,1.0,0.2852470874786377,0.6347213259530644
55,0.010583092458546162,1.0,0.2860986292362213,0.6347213259530644
56,0.010118798352777958,1.0,0.28771305084228516,0.6346773639238082
57,0.00969028566032648,1.0,0.28875088691711426,0.6346773639238082
58,0.009291622787714005,1.0,0.2898590564727783,0.6346658834406297
59,0.008917566388845444,1.0,0.29097843170166016,0.6346658834406297
60,0.008567995391786098,1.0,0.2921215891838074,0.6276706640930482
61,0.00824352540075779,1.0,0.29386579990386963,0.6276706640930482
62,0.007935790345072746,1.0,0.29544946551322937,0.6276706640930482
63,0.007638493087142706,1.0,0.2967444360256195,0.6276706640930482
64,0.007360244635492563,1.0,0.2970181405544281,0.6276706640930482
65,0.007097936235368252,1.0,0.29801034927368164,0.6276391307549471
66,0.006852479185909033,1.0,0.2994278371334076,0.6415280196438361
67,0.006623857654631138,1.0,0.30032119154930115,0.6415280196438361
68,0.006409698165953159,1.0,0.30078086256980896,0.6415280196438361
69,0.006193401757627726,1.0,0.3019265830516815,0.6415719816730923
70,0.0059916777536273,1.0,0.30275920033454895,0.6415317036992443
71,0.005800691433250904,1.0,0.30377212166786194,0.6415395001270147
72,0.005621043965220451,1.0,0.3049514889717102,0.6415395001270147
73,0.005452125333249569,1.0,0.3058687746524811,0.6415395001270147
74,0.005293969064950943,1.0,0.30641359090805054,0.6415395001270147
75,0.005138126201927662,1.0,0.30703112483024597,0.6415431841824228
76,0.004982596263289452,1.0,0.3081662356853485,0.6415431841824228
77,0.004839329048991203,1.0,0.3086194396018982,0.6415431841824228
78,0.004705864004790783,1.0,0.30899372696876526,0.6415431841824228
79,0.004575243219733238,1.0,0.3099520802497864,0.6415431841824228
80,0.004451076965779066,1.0,0.31079089641571045,0.6415431841824228
81,0.0043296972289681435,1.0,0.3116156756877899,0.6415544500771309
82,0.004214724991470575,1.0,0.31235742568969727,0.6415544500771309
83,0.0041042412631213665,1.0,0.31325870752334595,0.6415544500771309
84,0.003999390173703432,1.0,0.3139936625957489,0.6415544500771309
85,0.0038992625195533037,1.0,0.3149239420890808,0.6415016336887519
86,0.003803720697760582,1.0,0.31569769978523254,0.6276127447998631
87,0.0037084734067320824,1.0,0.31651508808135986,0.6276127447998631
88,0.003617634531110525,1.0,0.3171105980873108,0.6276127447998631
89,0.0035293542314320803,1.0,0.3179032504558563,0.6276127447998631
90,0.0034455989953130484,1.0,0.3185838758945465,0.6276127447998631
91,0.0033650558907538652,1.0,0.3192690908908844,0.6276127447998631
92,0.0032882066443562508,1.0,0.3199271261692047,0.6276127447998631
93,0.003212344367057085,1.0,0.320694237947464,0.6276127447998631
94,0.0031389035284519196,1.0,0.3212563991546631,0.6276127447998631
95,0.003068627556785941,1.0,0.3216836154460907,0.6276127447998631
96,0.003002072684466839,1.0,0.3221069574356079,0.622011475155743
97,0.0029371813870966434,1.0,0.3229423761367798,0.622011475155743
98,0.002873028162866831,1.0,0.32364168763160706,0.622011475155743
99,0.0028103869408369064,1.0,0.3243568241596222,0.622011475155743
100,0.002750229090452194,1.0,0.3248022198677063,0.622011475155743
101,0.0026927958242595196,1.0,0.32550060749053955,0.622011475155743
102,0.0026386594399809837,1.0,0.3259628713130951,0.622011475155743
103,0.0025834129191935062,1.0,0.3264226019382477,0.622011475155743
104,0.0025302781723439693,1.0,0.32702454924583435,0.622011475155743
105,0.0024790926836431026,1.0,0.32739484310150146,0.622011475155743
106,0.0024297358468174934,1.0,0.32775092124938965,0.6248171022162136
107,0.00238187238574028,1.0,0.3283606469631195,0.6248678076835856
108,0.0023364145308732986,1.0,0.3291582763195038,0.6248678076835856
109,0.0022906698286533356,1.0,0.32988491654396057,0.6219652197933956
110,0.00224663270637393,1.0,0.33073821663856506,0.6219652197933956
111,0.002203951356932521,1.0,0.3312130868434906,0.6219652197933956
112,0.002162160351872444,1.0,0.3313429653644562,0.6219652197933956
113,0.002121739089488983,1.0,0.33183708786964417,0.6220159252607677
114,0.0020834836177527905,1.0,0.33238184452056885,0.6248215523212383
115,0.0020455345511436462,1.0,0.3326916992664337,0.6248215523212383
116,0.002008386654779315,1.0,0.3334541916847229,0.6248215523212383
117,0.0019724557641893625,1.0,0.33393633365631104,0.6248215523212383
118,0.001937272259965539,1.0,0.33439064025878906,0.6248215523212383
119,0.0019030675757676363,1.0,0.3351048529148102,0.6248215523212383
120,0.0018707690760493279,1.0,0.3356258273124695,0.6248215523212383
121,0.0018382680136710405,1.0,0.3360068202018738,0.6248215523212383
122,0.0018066721968352795,1.0,0.33679479360580444,0.6248215523212383
123,0.0017755738226696849,1.0,0.3371678590774536,0.6248215523212383
124,0.001745746936649084,1.0,0.33756256103515625,0.6248215523212383
125,0.0017166556790471077,1.0,0.3378748297691345,0.6248215523212383
126,0.0016883054049685597,1.0,0.3381742835044861,0.6248215523212383
127,0.0016618396621197462,1.0,0.33861202001571655,0.6248215523212383
128,0.001634174957871437,1.0,0.33902859687805176,0.6248215523212383
129,0.0016080024652183056,1.0,0.3396417796611786,0.6248215523212383
130,0.0015820309054106474,1.0,0.339805543422699,0.6109326634323494
131,0.0015567592345178127,1.0,0.340266615152359,0.6109326634323494
132,0.0015326899010688066,1.0,0.34074488282203674,0.6109326634323494
133,0.0015088006621226668,1.0,0.34108009934425354,0.6109326634323494
134,0.0014860709197819233,1.0,0.34153464436531067,0.6109326634323494
135,0.0014624663162976503,1.0,0.3419495224952698,0.6109326634323494
136,0.0014403322711586952,1.0,0.3424685597419739,0.6109326634323494
137,0.0014184180181473494,1.0,0.34287554025650024,0.6109326634323494
138,0.0013971731532365084,1.0,0.34351399540901184,0.6109326634323494
139,0.001376370433717966,1.0,0.3440340459346771,0.6109326634323494
140,0.0013561472296714783,1.0,0.34455886483192444,0.6109326634323494
141,0.0013364753685891628,1.0,0.3449919521808624,0.6109326634323494
142,0.001317053334787488,1.0,0.3453863859176636,0.6109326634323494
143,0.0012983412016183138,1.0,0.3458651602268219,0.6109326634323494
144,0.0012791024055331945,1.0,0.3460656702518463,0.6109326634323494
145,0.001260827062651515,1.0,0.34668684005737305,0.6109326634323494
146,0.00124299805611372,1.0,0.347290962934494,0.6109326634323494
147,0.0012254787143319845,1.0,0.34761250019073486,0.6109326634323494
148,0.0012087502982467413,1.0,0.3479650020599365,0.6109326634323494
149,0.0011916423682123423,1.0,0.34828659892082214,0.6109326634323494
150,0.001175102312117815,1.0,0.34864702820777893,0.6109326634323494
151,0.0011594074312597513,1.0,0.3490305542945862,0.6109213975376414
152,0.0011432355968281627,1.0,0.34944310784339905,0.6109213975376414
153,0.0011280737817287445,1.0,0.3498697876930237,0.6109326634323494
154,0.0011126315221190453,1.0,0.3501008450984955,0.6109213975376414
155,0.0010977357160300016,1.0,0.35045331716537476,0.6179174848322851
156,0.0010831754188984632,1.0,0.35076797008514404,0.617928750726993
157,0.0010690349154174328,1.0,0.3510911166667938,0.617928750726993
158,0.0010551707819104195,1.0,0.3515970706939697,0.617928750726993
159,0.0010416042059659958,1.0,0.35202234983444214,0.6109213975376414
160,0.0010278302943333983,1.0,0.3523333966732025,0.6109213975376414
161,0.0010146384593099356,1.0,0.3529096245765686,0.6109326634323494
162,0.0010016128653660417,1.0,0.35338911414146423,0.6109326634323494
163,0.000988866901025176,1.0,0.3538326919078827,0.6109326634323494
164,0.0009764704736880958,1.0,0.354271799325943,0.6109326634323494
165,0.0009643427329137921,1.0,0.3545035421848297,0.6109213975376414
166,0.0009523954358883202,1.0,0.3547195792198181,0.6109213975376414
167,0.0009408662444911897,1.0,0.3550226390361786,0.6109213975376414
168,0.0009287747088819742,1.0,0.3552672564983368,0.6109213975376414
169,0.0009174266597256064,1.0,0.35563793778419495,0.6109213975376414
170,0.0009065121412277222,1.0,0.35598254203796387,0.6109213975376414
171,0.0008954674704000354,1.0,0.35642170906066895,0.6109213975376414
172,0.00088470708578825,1.0,0.3568462133407593,0.6109213975376414
173,0.0008740719058550894,1.0,0.35712841153144836,0.6109213975376414
174,0.0008638122235424817,1.0,0.3576185405254364,0.6109213975376414
175,0.0008539127302356064,1.0,0.357979953289032,0.6109213975376414
176,0.0008436922216787934,1.0,0.358313649892807,0.6109213975376414
177,0.0008338019251823425,1.0,0.3588040769100189,0.6109213975376414
178,0.0008240552269853652,1.0,0.3592089116573334,0.6109326634323494
179,0.0008145751198753715,1.0,0.35940021276474,0.6109326634323494
180,0.0008052600314840674,1.0,0.3595942556858063,0.6109854798207283
181,0.000796122825704515,1.0,0.359892338514328,0.617970301220664
182,0.0007871912093833089,1.0,0.36014553904533386,0.617970301220664
183,0.0007784273475408554,1.0,0.3603871762752533,0.617970301220664
184,0.0007697708206251264,1.0,0.36077985167503357,0.617970301220664
185,0.0007609623717144132,1.0,0.3611408770084381,0.617970301220664
186,0.0007525556720793247,1.0,0.36157989501953125,0.617970301220664
187,0.0007442854112014174,1.0,0.3620164692401886,0.6248743687096172
188,0.0007361661992035806,1.0,0.36247679591178894,0.6248631028149092
189,0.0007282716687768698,1.0,0.3628588914871216,0.6248743687096172
190,0.0007203305140137672,1.0,0.3631114065647125,0.6248743687096172
191,0.0007127263816073537,1.0,0.36351314187049866,0.6318704560042608
192,0.0007048138068057597,1.0,0.36366039514541626,0.617981567115372
193,0.0006972193368710577,1.0,0.36385396122932434,0.6318704560042608
194,0.0006898139836266637,1.0,0.36421191692352295,0.6318704560042608
195,0.0006824684096500278,1.0,0.36457112431526184,0.6318704560042608
196,0.0006751636392436922,1.0,0.3647507131099701,0.6318704560042608
197,0.0006679329671896994,1.0,0.3649958670139313,0.6318704560042608
198,0.0006608648109249771,1.0,0.36545902490615845,0.6318704560042608
199,0.0006538444431498647,1.0,0.36583390831947327,0.6318704560042608
200,0.000647061038762331,1.0,0.3661916255950928,0.6318704560042608
201,0.0006403241422958672,1.0,0.36639657616615295,0.6318704560042608
202,0.0006337309023365378,1.0,0.36650794744491577,0.617981567115372
203,0.0006270356243476272,1.0,0.36669960618019104,0.617981567115372
204,0.0006206165999174118,1.0,0.36718490719795227,0.617981567115372
205,0.0006142552010715008,1.0,0.36756208539009094,0.617981567115372
206,0.0006080138264223933,1.0,0.3678940236568451,0.6207770329510762
207,0.0006018950371071696,1.0,0.36837083101272583,0.6346659218399651
208,0.0005959299160167575,1.0,0.3687424659729004,0.6207770329510762
209,0.000590033654589206,1.0,0.36904340982437134,0.6207770329510762
210,0.000584140419960022,1.0,0.36921951174736023,0.6207770329510762
211,0.0005783191882073879,1.0,0.36943063139915466,0.6207770329510762
212,0.0005726531380787492,1.0,0.3698185384273529,0.6207770329510762
213,0.0005670709069818258,1.0,0.37016528844833374,0.6207770329510762
214,0.0005616224370896816,1.0,0.3703698217868805,0.6207770329510762
215,0.0005562506848946214,1.0,0.37056809663772583,0.6207770329510762
216,0.0005508410395123065,1.0,0.3708190321922302,0.6207770329510762
217,0.0005455369246192276,1.0,0.3711455464363098,0.6207770329510762
218,0.0005403382238000631,1.0,0.3714574873447418,0.6207770329510762
219,0.0005351967993192375,1.0,0.3716617226600647,0.6207770329510762
220,0.0005301685305312276,1.0,0.37185344099998474,0.6207770329510762
221,0.0005252588307484984,1.0,0.3721708357334137,0.6207770329510762
222,0.0005203948821872473,1.0,0.3724823296070099,0.6207796673426823
223,0.0005155615508556366,1.0,0.3728245794773102,0.6207796673426823
224,0.0005107683828100562,1.0,0.37324461340904236,0.6207796673426823
225,0.0005060096154920757,1.0,0.3733746111392975,0.6207796673426823
226,0.000501357892062515,1.0,0.3736019730567932,0.6207796673426823
227,0.0004968424327671528,1.0,0.3738139867782593,0.6207796673426823
228,0.000492315914016217,1.0,0.3740653097629547,0.6207796673426823
229,0.0004878278123214841,1.0,0.3743807375431061,0.6207796673426823
230,0.0004834159917663783,1.0,0.3746674656867981,0.6207796673426823
231,0.0004790927632711828,1.0,0.37497997283935547,0.6207796673426823
232,0.0004748852807097137,1.0,0.3750976622104645,0.6207796673426823
233,0.0004706370527856052,1.0,0.3753070831298828,0.6207796673426823
234,0.00046645657857879996,1.0,0.37558722496032715,0.6207796673426823
235,0.0004623229615390301,1.0,0.37586313486099243,0.6207796673426823
236,0.00045824964763596654,1.0,0.37610509991645813,0.6207796673426823
237,0.0004542471724562347,1.0,0.3762960433959961,0.6207796673426823
238,0.00045034658978693187,1.0,0.37668246030807495,0.6207796673426823
239,0.00044648541370406747,1.0,0.37699955701828003,0.6207796673426823
240,0.0004425652732606977,1.0,0.3772246539592743,0.6207796673426823
241,0.00043874105904251337,1.0,0.3774721920490265,0.6207796673426823
242,0.00043498826562426984,1.0,0.37761190533638,0.6207796673426823
243,0.00043131428537890315,1.0,0.3776739239692688,0.6207796673426823
244,0.0004276438558008522,1.0,0.37788814306259155,0.6207796673426823
245,0.0004239892296027392,1.0,0.3780275881290436,0.6207796673426823
246,0.0004204344586469233,1.0,0.37825295329093933,0.6207796673426823
247,0.00041687366319820285,1.0,0.37850573658943176,0.6207796673426823
248,0.0004133824841119349,1.0,0.37888309359550476,0.6207796673426823
249,0.0004099744837731123,1.0,0.3792199194431305,0.6207796673426823
250,0.00040653481846675277,1.0,0.3794235587120056,0.6207796673426823
251,0.000403151469072327,1.0,0.37968260049819946,0.6207822588986525
252,0.00039980222936719656,1.0,0.3799684941768646,0.6207822588986525
253,0.0003964908537454903,1.0,0.3801533281803131,0.6207822588986525
254,0.000393231981433928,1.0,0.38045886158943176,0.6207822588986525
255,0.00039002002449706197,1.0,0.38081005215644836,0.6207822588986525
256,0.00038682486047036946,1.0,0.3810449540615082,0.6207858805124435
257,0.00038366756052710116,1.0,0.38137027621269226,0.6207858805124435
258,0.00038054981268942356,1.0,0.3817136585712433,0.6207858805124435
259,0.0003774826764129102,1.0,0.38195016980171204,0.6207858805124435
260,0.0003744426358025521,1.0,0.38201141357421875,0.6207858805124435
261,0.0003714698541443795,1.0,0.3821555972099304,0.6207858805124435
262,0.00036849325988441706,1.0,0.3824619948863983,0.6207858805124435
263,0.0003655500477179885,1.0,0.38276368379592896,0.6207858805124435
264,0.0003626482794061303,1.0,0.38292446732521057,0.6207858805124435
265,0.00035977212246507406,1.0,0.38311341404914856,0.6207858805124435
266,0.000356954347807914,1.0,0.3833383321762085,0.6207858805124435
267,0.0003541621845215559,1.0,0.38360223174095154,0.6207858805124435
268,0.00035143422428518534,1.0,0.3839327394962311,0.6207858805124435
269,0.00034866074565798044,1.0,0.38408103585243225,0.6207746146177356
270,0.0003459620347712189,1.0,0.38435298204421997,0.6207746146177356
271,0.0003432890516705811,1.0,0.38467055559158325,0.6207746146177356
272,0.0003406729665584862,1.0,0.3849281668663025,0.6207746146177356
273,0.0003380620328243822,1.0,0.38524261116981506,0.6207746146177356
274,0.0003354410582687706,1.0,0.38547831773757935,0.6207746146177356
275,0.00033288195845671,1.0,0.38579708337783813,0.6207746146177356
276,0.00033037582761608064,1.0,0.3859875202178955,0.6207746146177356
277,0.00032787566306069493,1.0,0.3861314356327057,0.6207746146177356
278,0.0003253860049881041,1.0,0.3864014446735382,0.6207746146177356
279,0.00032294937409460545,1.0,0.3866582214832306,0.6207746146177356
280,0.00032052549067884684,1.0,0.38688549399375916,0.6207746146177356
281,0.00031813723035156727,1.0,0.3871259391307831,0.6207746146177356
282,0.0003157619503326714,1.0,0.38741084933280945,0.6207746146177356
283,0.00031343550654128194,1.0,0.3876217007637024,0.6207746146177356
284,0.00031114992452785373,1.0,0.3877330720424652,0.6207746146177356
285,0.0003088663797825575,1.0,0.3878783583641052,0.6207746146177356
286,0.0003065593773499131,1.0,0.3879677951335907,0.6207746146177356
287,0.0003043225733563304,1.0,0.3881637156009674,0.6207746146177356
288,0.00030210695695132017,1.0,0.38836100697517395,0.6207746146177356
289,0.00029993330826982856,1.0,0.3886255621910095,0.6207746146177356
290,0.0002977711264975369,1.0,0.38894620537757874,0.6207746146177356
291,0.0002955988165922463,1.0,0.38918304443359375,0.6207746146177356
292,0.00029348881798796356,1.0,0.3894503116607666,0.6207746146177356
293,0.00029135297518223524,1.0,0.3896602392196655,0.6207746146177356
294,0.0002892774064093828,1.0,0.38987165689468384,0.6207746146177356
295,0.00028722366550937295,1.0,0.3901214897632599,0.6207746146177356
296,0.00028518139151856303,1.0,0.39032551646232605,0.6207746146177356
297,0.00028318160912021995,1.0,0.39056506752967834,0.6207746146177356
298,0.0002811712911352515,1.0,0.3907829821109772,0.6207746146177356
299,0.0002792073064483702,1.0,0.3910462558269501,0.6207746146177356
300,0.00027723563835024834,1.0,0.3913653492927551,0.6207746146177356
301,0.00027529592625796795,1.0,0.39172616600990295,0.6207339594324851
302,0.00027338345535099506,1.0,0.39194148778915405,0.6207339594324851
303,0.000271477154456079,1.0,0.39211979508399963,0.6207339594324851
304,0.000269594369456172,1.0,0.39227908849716187,0.6207339594324851
305,0.000267721654381603,1.0,0.3923737108707428,0.6207339594324851
306,0.00026590091874822974,1.0,0.3925360143184662,0.6207339594324851
307,0.00026406964752823114,1.0,0.3926972448825836,0.6207746146177356
308,0.0002622585743665695,1.0,0.39288052916526794,0.6207746146177356
309,0.00026045748381875455,1.0,0.3931010067462921,0.6207746146177356
310,0.0002586853806860745,1.0,0.3933141231536865,0.6207339594324851
311,0.00025693682255223393,1.0,0.3935511112213135,0.6207339594324851
312,0.0002552222285885364,1.0,0.39379069209098816,0.6207339594324851
313,0.00025350958458147943,1.0,0.3938944935798645,0.6207339594324851
314,0.0002517935645300895,1.0,0.39412760734558105,0.6207339594324851
315,0.00025011421530507505,1.0,0.39433160424232483,0.6207339594324851
316,0.0002484204014763236,1.0,0.39453527331352234,0.6207339594324851
317,0.0002467855520080775,1.0,0.39481040835380554,0.6207339594324851
318,0.00024513964308425784,1.0,0.39507725834846497,0.6207339594324851
319,0.0002435223723296076,1.0,0.39532026648521423,0.6207339594324851
320,0.00024191079137381166,1.0,0.39555302262306213,0.6207339594324851
321,0.00024035619571805,1.0,0.39578595757484436,0.6207339594324851
322,0.0002387642307439819,1.0,0.39589253067970276,0.6207339594324851
323,0.00023719554883427918,1.0,0.3961119055747986,0.6207339594324851
324,0.00023564379080198705,1.0,0.39639684557914734,0.6207339594324851
325,0.00023413024609908462,1.0,0.3965975344181061,0.6207339594324851
326,0.00023261633759830147,1.0,0.3967750072479248,0.6207339594324851
327,0.00023110279289539903,1.0,0.39695557951927185,0.6207339594324851
328,0.00022961696959100664,1.0,0.39717885851860046,0.6207339594324851
329,0.00022814140538685024,1.0,0.39734989404678345,0.6207339594324851
330,0.00022668919700663537,1.0,0.3975624144077301,0.6207339594324851
331,0.00022523693041875958,1.0,0.39777302742004395,0.6207339594324851
332,0.00022381784219760448,1.0,0.39800336956977844,0.6207339594324851
333,0.00022239971440285444,1.0,0.39814773201942444,0.6207339594324851
334,0.00022099463967606425,1.0,0.3983662724494934,0.6207339594324851
335,0.0002196056884713471,1.0,0.39851030707359314,0.6207339594324851
336,0.00021823954011779279,1.0,0.3986516296863556,0.6207339594324851
337,0.00021686610125470906,1.0,0.39886385202407837,0.6207339594324851
338,0.0002155088004656136,1.0,0.39913326501846313,0.6207339594324851
339,0.00021418207325041294,1.0,0.3993750214576721,0.6207339594324851
340,0.00021284475224092603,1.0,0.39955654740333557,0.6207339594324851
341,0.00021152359840925783,1.0,0.39973220229148865,0.6207339594324851
342,0.00021020826534368098,1.0,0.39988675713539124,0.6207339594324851
343,0.00020892659085802734,1.0,0.4000800549983978,0.6207339594324851
344,0.00020763746579177678,1.0,0.4002572298049927,0.6207339594324851
345,0.0002063684951281175,1.0,0.4004107117652893,0.6207339594324851
346,0.00020512758055701852,1.0,0.40050628781318665,0.6207339594324851
347,0.00020386712276376784,1.0,0.4006308913230896,0.6207339594324851
348,0.0002026282309088856,1.0,0.40090447664260864,0.6207339594324851
349,0.00020140311971772462,1.0,0.4011191129684448,0.6207339594324851
350,0.0002001824032049626,1.0,0.401289701461792,0.6207339594324851
351,0.0001989883603528142,1.0,0.4014643728733063,0.6207339594324851
352,0.0001977831998374313,1.0,0.40160804986953735,0.6207339594324851
353,0.00019660679390653968,1.0,0.40178748965263367,0.6207339594324851
354,0.00019543172675184906,1.0,0.4019851088523865,0.6207339594324851
355,0.00019427129882387817,1.0,0.40217575430870056,0.6207339594324851
356,0.00019311255891807377,1.0,0.40236997604370117,0.6207339594324851
357,0.00019197151414118707,1.0,0.40260156989097595,0.6207339594324851
358,0.000190824837773107,1.0,0.40277716517448425,0.6207339594324851
359,0.00018969905795529485,1.0,0.40297406911849976,0.6207339594324851
360,0.00018858100520446897,1.0,0.40318891406059265,0.6207339594324851
361,0.00018747667490970343,1.0,0.4034067392349243,0.6207339594324851
362,0.00018638765322975814,1.0,0.4036078155040741,0.6207339594324851
363,0.0001852846471592784,1.0,0.4037604331970215,0.6207339594324851
364,0.00018421784625388682,1.0,0.4038909077644348,0.6207339594324851
365,0.00018313637701794505,1.0,0.4039950966835022,0.6207339594324851
366,0.00018207967514172196,1.0,0.4041806161403656,0.6207339594324851
367,0.00018102100875694305,1.0,0.40428173542022705,0.6207339594324851
368,0.0001799806923372671,1.0,0.404411256313324,0.6207339594324851
369,0.00017894155462272465,1.0,0.4046071469783783,0.6207339594324851
370,0.00017790957645047456,1.0,0.4047400951385498,0.6207339594324851
371,0.0001768898800946772,1.0,0.40494656562805176,0.6207339594324851
372,0.00017588739865459502,1.0,0.4051763713359833,0.6207339594324851
373,0.0001748923968989402,1.0,0.4053512513637543,0.6207339594324851
374,0.00017389020649716258,1.0,0.405511736869812,0.6207339594324851
375,0.00017289667448494583,1.0,0.40574780106544495,0.6207339594324851
376,0.00017192063387483358,1.0,0.4059556722640991,0.6207305093125934
377,0.00017095101065933704,1.0,0.40608468651771545,0.6207305093125934
378,0.0001699834392638877,1.0,0.4062666893005371,0.6207305093125934
379,0.0001690165081527084,1.0,0.40642526745796204,0.6207305093125934
380,0.00016806958592496812,1.0,0.406615287065506,0.6207305093125934
381,0.00016714635421521962,1.0,0.4067845046520233,0.6207305093125934
382,0.00016620027599856257,1.0,0.4069656729698181,0.6207305093125934
383,0.00016527797561138868,1.0,0.40718451142311096,0.6207305093125934
384,0.00016435094585176557,1.0,0.4073266088962555,0.6207305093125934
385,0.0001634379877941683,1.0,0.40743938088417053,0.6207305093125934
386,0.00016253834473900497,1.0,0.4075837731361389,0.6207305093125934
387,0.00016162668180186301,1.0,0.4077015519142151,0.6207305093125934
388,0.00016073969891294837,1.0,0.4078802764415741,0.6207305093125934
389,0.00015985708159860224,1.0,0.40805584192276,0.6207305093125934
390,0.00015897865523584187,1.0,0.40820440649986267,0.6207305093125934
391,0.00015811102639418095,1.0,0.40834760665893555,0.6207305093125934
392,0.00015724154945928603,1.0,0.4084925651550293,0.6207305093125934
393,0.00015638876357115805,1.0,0.4086419641971588,0.6207305093125934
394,0.00015553628327324986,1.0,0.4088301956653595,0.6207305093125934
395,0.00015469096251763403,1.0,0.4090944230556488,0.6207305093125934
396,0.000153854867676273,1.0,0.4092486500740051,0.6207305093125934
397,0.00015302591782528907,1.0,0.4093994200229645,0.6207305093125934
398,0.0001521904196124524,1.0,0.4095766544342041,0.6207305093125934
399,0.00015137782611418515,1.0,0.4097945988178253,0.6207305093125934
400,0.0001505710242781788,1.0,0.41000011563301086,0.6207305093125934
401,0.00014975364319980145,1.0,0.4101296663284302,0.6207305093125934
402,0.00014895724598318338,1.0,0.4102514982223511,0.6207305093125934
403,0.00014815578470006585,1.0,0.41032758355140686,0.6207305093125934
404,0.00014736951561644673,1.0,0.41046491265296936,0.6207305093125934
405,0.0001465894456487149,1.0,0.41060763597488403,0.6207305093125934
406,0.00014581414870917797,1.0,0.41072991490364075,0.6207305093125934
407,0.0001450462150387466,1.0,0.4109414517879486,0.6207305093125934
408,0.00014427080168388784,1.0,0.4111645817756653,0.6207305093125934
409,0.00014350327546708286,1.0,0.41145095229148865,0.6207305093125934
410,0.00014275280409492552,1.0,0.4116571247577667,0.6207305093125934
411,0.0001420039334334433,1.0,0.4117414057254791,0.6207305093125934
412,0.00014125862799119204,1.0,0.4117937386035919,0.6207305093125934
413,0.0001405174843966961,1.0,0.41188734769821167,0.6207305093125934
414,0.00013978313654661179,1.0,0.41203781962394714,0.6207305093125934
415,0.0001390585384797305,1.0,0.41214436292648315,0.6207305093125934
416,0.00013832497643306851,1.0,0.4122518002986908,0.6207305093125934
417,0.0001376159198116511,1.0,0.41246798634529114,0.6207305093125934
418,0.00013689915067516267,1.0,0.41266971826553345,0.6207305093125934
419,0.00013620630488730967,1.0,0.41287294030189514,0.6207305093125934
420,0.00013549240247812122,1.0,0.41303393244743347,0.6207305093125934
421,0.00013479668996296823,1.0,0.4132370054721832,0.6207305093125934
422,0.00013410263636615127,1.0,0.4134519398212433,0.6207305093125934
423,0.0001334131957264617,1.0,0.4136318266391754,0.6207305093125934
424,0.0001327337813563645,1.0,0.4137648344039917,0.6207305093125934
425,0.00013205615687184036,1.0,0.4138566553592682,0.6207305093125934
426,0.00013138017675373703,1.0,0.4140247106552124,0.6207305093125934
427,0.0001307172205997631,1.0,0.41419723629951477,0.6207305093125934
428,0.0001300539297517389,1.0,0.41436338424682617,0.6207305093125934
429,0.00012940441956743598,1.0,0.41452980041503906,0.6207305093125934
430,0.00012874050298705697,1.0,0.4145994782447815,0.6207305093125934
431,0.00012808771862182766,1.0,0.4147759974002838,0.6207305093125934
432,0.00012744984996970743,1.0,0.4149814546108246,0.6207305093125934
433,0.0001268010528292507,1.0,0.415100634098053,0.6207305093125934
434,0.00012616731692105532,1.0,0.4152272343635559,0.6207305093125934
435,0.00012553180567920208,1.0,0.41539469361305237,0.6207305093125934
436,0.00012490228982642293,1.0,0.4155209958553314,0.6207305093125934
437,0.0001242861762875691,1.0,0.4157363474369049,0.6207305093125934
438,0.00012366562441457063,1.0,0.4159236550331116,0.6207305093125934
439,0.00012304645497351885,1.0,0.41608962416648865,0.6207305093125934
440,0.0001224416628247127,1.0,0.4163036346435547,0.6207305093125934
441,0.00012183144281152636,1.0,0.4165133237838745,0.6207305093125934
442,0.00012123094347771257,1.0,0.4166485369205475,0.6207305093125934
443,0.00012062703171977773,1.0,0.41666901111602783,0.6207305093125934
444,0.00012002991570625454,1.0,0.416792631149292,0.6207305093125934
445,0.00011944651487283409,1.0,0.41699668765068054,0.6207305093125934
446,0.0001188604801427573,1.0,0.41709935665130615,0.6207305093125934
447,0.00011827878915937617,1.0,0.4171679615974426,0.6207305093125934
448,0.0001176977384602651,1.0,0.4172595739364624,0.6207305093125934
449,0.00011712981358869001,1.0,0.41742604970932007,0.6207305093125934
450,0.00011655577691271901,1.0,0.4175294041633606,0.6207305093125934
451,0.00011599500430747867,1.0,0.4176599085330963,0.6207305093125934
452,0.00011543453729245812,1.0,0.4177941381931305,0.6207305093125934
453,0.0001148689552792348,1.0,0.41790762543678284,0.6207305093125934
454,0.00011431838356656954,1.0,0.4181486964225769,0.6207305093125934
455,0.0001137676154030487,1.0,0.41837263107299805,0.6207305093125934
456,0.0001132174365920946,1.0,0.41853705048561096,0.6207305093125934
457,0.00011267414811300114,1.0,0.4186531901359558,0.6207305093125934
458,0.00011213122343178838,1.0,0.41879546642303467,0.6207305093125934
459,0.00011159114365000278,1.0,0.41896772384643555,0.6207305093125934
460,0.00011106100282631814,1.0,0.4191465377807617,0.6207305093125934
461,0.00011053335765609518,1.0,0.41933730244636536,0.6207305093125934
462,0.00011000983067788184,1.0,0.4195369780063629,0.6207305093125934
463,0.00010948505951091647,1.0,0.4196300208568573,0.6207305093125934
464,0.00010896370804402977,1.0,0.41972142457962036,0.6207305093125934
465,0.00010844638018170372,1.0,0.4197925627231598,0.6207305093125934
466,0.0001079283538274467,1.0,0.4198984205722809,0.6207305093125934
467,0.00010742240556282923,1.0,0.4200829565525055,0.6207305093125934
468,0.00010691273200791329,1.0,0.4202538728713989,0.6207305093125934
469,0.00010640699474606663,1.0,0.42038360238075256,0.6207305093125934
470,0.00010590964666334912,1.0,0.4204653799533844,0.6207305093125934
471,0.00010541694791754708,1.0,0.4206096827983856,0.6207305093125934
472,0.00010492825822439045,1.0,0.42071524262428284,0.6207305093125934
473,0.00010442864731885493,1.0,0.4208233058452606,0.6207305093125934
474,0.0001039427297655493,1.0,0.4210081696510315,0.6207305093125934
475,0.00010345906048314646,1.0,0.42114371061325073,0.6207305093125934
476,0.00010298263077856973,1.0,0.42129477858543396,0.6207305093125934
477,0.00010250296327285469,1.0,0.42145535349845886,0.6207305093125934
478,0.00010202452540397644,1.0,0.42160308361053467,0.6207305093125934
479,0.00010155825293622911,1.0,0.4217706620693207,0.6207305093125934
480,0.00010108688002219424,1.0,0.42190849781036377,0.6207305093125934
481,0.00010062273941002786,1.0,0.4220614731311798,0.6207305093125934
482,0.00010015667794505134,1.0,0.4222172200679779,0.6207305093125934
483,9.969575330615044e-05,1.0,0.4223281443119049,0.6207305093125934
484,9.923863399308175e-05,1.0,0.4224577844142914,0.6207305093125934
485,9.87848179647699e-05,1.0,0.4226037859916687,0.6207305093125934
486,9.833634248934686e-05,1.0,0.4227615296840668,0.6207305093125934
487,9.78876487351954e-05,1.0,0.42292100191116333,0.6207305093125934
488,9.74397553363815e-05,1.0,0.4230346083641052,0.6207305093125934
489,9.699756628833711e-05,1.0,0.4231413006782532,0.6207305093125934
490,9.655566100263968e-05,1.0,0.42324379086494446,0.6207305093125934
491,9.612520079826936e-05,1.0,0.4234043061733246,0.6207305093125934
492,9.568206587573513e-05,1.0,0.423563152551651,0.6207305093125934
493,9.525773930363357e-05,1.0,0.423642098903656,0.6207305093125934
494,9.482112363912165e-05,1.0,0.42382553219795227,0.6207305093125934
495,9.439760469831526e-05,1.0,0.42396602034568787,0.6207305093125934
496,9.397108806297183e-05,1.0,0.42410001158714294,0.6207305093125934
497,9.355394286103547e-05,1.0,0.4242798089981079,0.626286064868149
498,9.313157352153212e-05,1.0,0.42444923520088196,0.626286064868149
499,9.270587906939909e-05,1.0,0.4245728850364685,0.626286064868149
500,9.230048453900963e-05,1.0,0.42470788955688477,0.626286064868149
501,9.188277181237936e-05,1.0,0.4248639941215515,0.626286064868149
502,9.147186210611835e-05,1.0,0.4249942898750305,0.6262824432543578
503,9.10643138922751e-05,1.0,0.4250919818878174,0.6262824432543578
504,9.065477934200317e-05,1.0,0.42523524165153503,0.6262824432543578
505,9.024766040965915e-05,1.0,0.4253626763820648,0.6262824432543578
506,8.985462773125619e-05,1.0,0.4254502058029175,0.6262824432543578
507,8.945196168497205e-05,1.0,0.42553937435150146,0.6262824432543578
508,8.905735739972442e-05,1.0,0.42567387223243713,0.6262824432543578
509,8.86688067112118e-05,1.0,0.42580321431159973,0.6262824432543578
510,8.827527926769108e-05,1.0,0.42589467763900757,0.6262824432543578
511,8.788325067143887e-05,1.0,0.42598846554756165,0.6262824432543578
512,8.749967673793435e-05,1.0,0.42610397934913635,0.6262824432543578
513,8.711162081453949e-05,1.0,0.42624449729919434,0.6262824432543578
514,8.67307317093946e-05,1.0,0.42639869451522827,0.6262824432543578
515,8.635000267531723e-05,1.0,0.4265023469924927,0.6262824432543578
516,8.597590203862637e-05,1.0,0.42665374279022217,0.6262824432543578
517,8.55978432809934e-05,1.0,0.42677041888237,0.6262824432543578
518,8.522353891748935e-05,1.0,0.4269278645515442,0.6262824432543578
519,8.48539057187736e-05,1.0,0.4270680248737335,0.6262824432543578
520,8.448689186479896e-05,1.0,0.4271712303161621,0.6262824432543578
521,8.412233728449792e-05,1.0,0.4272726774215698,0.6262824432543578
522,8.375362085644156e-05,1.0,0.4274265170097351,0.6262824432543578
523,8.339446503669024e-05,1.0,0.42757847905158997,0.6262824432543578
524,8.303441427415237e-05,1.0,0.42772719264030457,0.6262824432543578
525,8.267263183370233e-05,1.0,0.4278193712234497,0.6262824432543578
526,8.232030086219311e-05,1.0,0.4279792010784149,0.6262824432543578
527,8.197226998163387e-05,1.0,0.42817413806915283,0.6262824432543578
528,8.16160609247163e-05,1.0,0.4282984137535095,0.6262824432543578
529,8.126063039526343e-05,1.0,0.42841023206710815,0.6262824432543578
530,8.09143966762349e-05,1.0,0.4284857511520386,0.6262824432543578
531,8.057003287831321e-05,1.0,0.428586483001709,0.6262824432543578
532,8.022367546800524e-05,1.0,0.42869940400123596,0.6262824432543578
533,7.988511788425967e-05,1.0,0.42878371477127075,0.6262824432543578
534,7.954346074257046e-05,1.0,0.42891308665275574,0.6262824432543578
535,7.920006464701146e-05,1.0,0.4290980398654938,0.6262824432543578
536,7.886478852014989e-05,1.0,0.4292822778224945,0.6262824432543578
537,7.853333954699337e-05,1.0,0.42939871549606323,0.6262824432543578
538,7.819856546120718e-05,1.0,0.42950963973999023,0.6262824432543578
539,7.787384674884379e-05,1.0,0.4296501874923706,0.6262824432543578
540,7.754290709272027e-05,1.0,0.42976298928260803,0.6262824432543578
541,7.721595466136932e-05,1.0,0.4299129843711853,0.6262824432543578
542,7.689374615438282e-05,1.0,0.4300668239593506,0.6262824432543578
543,7.656466186745092e-05,1.0,0.4302273392677307,0.6262824432543578
544,7.62470590416342e-05,1.0,0.4303974211215973,0.6262824432543578
545,7.592872134409845e-05,1.0,0.4304758608341217,0.6262824432543578
546,7.560927770100534e-05,1.0,0.4305473864078522,0.6262824432543578
547,7.529478170908988e-05,1.0,0.4306306838989258,0.6262824432543578
548,7.498133345507085e-05,1.0,0.43075838685035706,0.6262824432543578
549,7.466261740773916e-05,1.0,0.43089690804481506,0.6262824432543578
550,7.435608131345361e-05,1.0,0.430997759103775,0.6262824432543578
551,7.404727512039244e-05,1.0,0.4311124384403229,0.6262824432543578
552,7.374182314379141e-05,1.0,0.4312918782234192,0.6262824432543578
553,7.343351899180561e-05,1.0,0.4314552843570709,0.6262824432543578
554,7.31318723410368e-05,1.0,0.4316483438014984,0.6262824432543578
555,7.282661681529135e-05,1.0,0.43182602524757385,0.6262824432543578
556,7.252738578245044e-05,1.0,0.43188542127609253,0.6262824432543578
557,7.222549902508035e-05,1.0,0.43201130628585815,0.6262824432543578
558,7.192877819761634e-05,1.0,0.43211629986763,0.6262824432543578
559,7.163062400650233e-05,1.0,0.43224993348121643,0.6262824432543578
560,7.133770850487053e-05,1.0,0.43235060572624207,0.6262824432543578
561,7.104731048457325e-05,1.0,0.43250125646591187,0.6262824432543578
562,7.075332541717216e-05,1.0,0.43260306119918823,0.6262824432543578
563,7.046392420306802e-05,1.0,0.43269822001457214,0.6262824432543578
564,7.017703319434077e-05,1.0,0.4328233003616333,0.6262824432543578
565,6.98921357979998e-05,1.0,0.43291354179382324,0.6262824432543578
566,6.960600876482204e-05,1.0,0.4329892098903656,0.6262824432543578
567,6.932116230018437e-05,1.0,0.4331296980381012,0.6262824432543578
568,6.904027395648882e-05,1.0,0.43320000171661377,0.6262824432543578
569,6.875993858557194e-05,1.0,0.4333062171936035,0.6262824432543578
570,6.848544580861926e-05,1.0,0.4334448277950287,0.6262824432543578
571,6.820124690420926e-05,1.0,0.43352067470550537,0.6262824432543578
572,6.792740896344185e-05,1.0,0.4336259663105011,0.6262824432543578
573,6.76559575367719e-05,1.0,0.433745414018631,0.6262824432543578
574,6.738195952493697e-05,1.0,0.4338437616825104,0.6262824432543578
575,6.710898014716804e-05,1.0,0.43398457765579224,0.6262824432543578
576,6.683664105366915e-05,1.0,0.4341093897819519,0.6262824432543578
577,6.65708867018111e-05,1.0,0.4342587888240814,0.6262824432543578
578,6.630139250773937e-05,1.0,0.4344346523284912,0.6262824432543578
579,6.602841312997043e-05,1.0,0.4345613420009613,0.6262824432543578
580,6.577068415936083e-05,1.0,0.43466800451278687,0.6262824432543578
581,6.550782563863322e-05,1.0,0.4348357617855072,0.6262824432543578
582,6.524599302792922e-05,1.0,0.4350007474422455,0.6262824432543578
583,6.498885340988636e-05,1.0,0.43515515327453613,0.6262824432543578
584,6.472769746324047e-05,1.0,0.43525931239128113,0.6262824432543578
585,6.44726533209905e-05,1.0,0.43536505103111267,0.6262824432543578
586,6.421514990506694e-05,1.0,0.4354690611362457,0.6262824432543578
587,6.396093522198498e-05,1.0,0.4355604946613312,0.6262824432543578
588,6.370999471982941e-05,1.0,0.43565475940704346,0.6262824432543578
589,6.345525616779923e-05,1.0,0.43572884798049927,0.6262824432543578
590,6.320777902146801e-05,1.0,0.435817688703537,0.6262824432543578
591,6.29486094112508e-05,1.0,0.43591099977493286,0.6262824432543578
592,6.270292215049267e-05,1.0,0.4360363483428955,0.6262824432543578
593,6.245955592021346e-05,1.0,0.4362233579158783,0.6262824432543578
594,6.22178049525246e-05,1.0,0.4364396929740906,0.6262824432543578
595,6.19709026068449e-05,1.0,0.43659529089927673,0.6262824432543578
596,6.172684516059235e-05,1.0,0.4367264211177826,0.6262824432543578
597,6.148374086478725e-05,1.0,0.4368351995944977,0.6262824432543578
598,6.124404171714559e-05,1.0,0.43697482347488403,0.6262824432543578
599,6.1013084632577375e-05,1.0,0.4370632767677307,0.6262824432543578
600,6.076557474443689e-05,1.0,0.4371047616004944,0.6262824432543578
601,6.0529037000378594e-05,1.0,0.43723806738853455,0.6262824432543578
602,6.029264477547258e-05,1.0,0.4373842775821686,0.6262824432543578
603,6.005692557664588e-05,1.0,0.4375239908695221,0.6262824432543578
604,5.98272708884906e-05,1.0,0.4376625120639801,0.6262824432543578
605,5.959555710433051e-05,1.0,0.43774470686912537,0.6262824432543578
606,5.9362333558965474e-05,1.0,0.43780145049095154,0.6262824432543578
607,5.913060886086896e-05,1.0,0.4378759264945984,0.6262824432543578
608,5.89053743169643e-05,1.0,0.4379526674747467,0.6262824432543578
609,5.867732397746295e-05,1.0,0.43809711933135986,0.6262824432543578
610,5.844464976689778e-05,1.0,0.43822920322418213,0.6262824432543578
611,5.822097955388017e-05,1.0,0.4383689761161804,0.6262824432543578
612,5.799983409815468e-05,1.0,0.43842989206314087,0.6123935543654688
613,5.77740793232806e-05,1.0,0.43857327103614807,0.6123935543654688
614,5.755394522566348e-05,1.0,0.4387805461883545,0.6123935543654688
615,5.7336510508321226e-05,1.0,0.4389016032218933,0.6123935543654688
616,5.711219273507595e-05,1.0,0.43897515535354614,0.6123935543654688
617,5.690001853508875e-05,1.0,0.43910980224609375,0.6123935543654688
618,5.667516961693764e-05,1.0,0.43923336267471313,0.6123935543654688
619,5.6461292842868716e-05,1.0,0.43931207060813904,0.6123935543654688
620,5.625003177556209e-05,1.0,0.43940573930740356,0.6123935543654688
621,5.603793397312984e-05,1.0,0.4395543336868286,0.6123935543654688
622,5.582503945333883e-05,1.0,0.4396582245826721,0.6123935543654688
623,5.560958743444644e-05,1.0,0.4397050142288208,0.6123935543654688
624,5.539503035834059e-05,1.0,0.43984201550483704,0.6123935543654688
625,5.519008118426427e-05,1.0,0.43998876214027405,0.6123935543654688
626,5.497498204931617e-05,1.0,0.44007813930511475,0.6123935543654688
627,5.477120794239454e-05,1.0,0.4401609003543854,0.6123935543654688
628,5.456365397549234e-05,1.0,0.4402672350406647,0.6123935543654688
629,5.4358315537683666e-05,1.0,0.44037967920303345,0.6123935543654688
630,5.415059422375634e-05,1.0,0.44046181440353394,0.6123935543654688
631,5.395172047428787e-05,1.0,0.44061288237571716,0.6123935543654688
632,5.374617103370838e-05,1.0,0.4407285749912262,0.6123935543654688
633,5.354153108783066e-05,1.0,0.44082164764404297,0.6123935543654688
634,5.3344472689786926e-05,1.0,0.44095784425735474,0.6123935543654688
635,5.3140491218073294e-05,1.0,0.44107669591903687,0.6123935543654688
636,5.2939481975045055e-05,1.0,0.441190242767334,0.6123935543654688
637,5.2749983296962455e-05,1.0,0.4413146376609802,0.6123935543654688
638,5.254753341432661e-05,1.0,0.44149571657180786,0.6123935543654688
639,5.235335265751928e-05,1.0,0.44165197014808655,0.6123935543654688
640,5.2157694881316274e-05,1.0,0.4417799711227417,0.6123935543654688
641,5.1968694606330246e-05,1.0,0.44187361001968384,0.6123935543654688
642,5.1773880841210485e-05,1.0,0.44193798303604126,0.6123935543654688
643,5.1578776037786156e-05,1.0,0.4420296251773834,0.6123935543654688
644,5.1390590670052916e-05,1.0,0.44216611981391907,0.6123935543654688
645,5.119927664054558e-05,1.0,0.44226205348968506,0.6123935543654688
646,5.1012117182835937e-05,1.0,0.44233566522598267,0.6123935543654688
647,5.082365169073455e-05,1.0,0.44251227378845215,0.6123935543654688
648,5.062764830654487e-05,1.0,0.4426386058330536,0.6123935543654688
649,5.044487625127658e-05,1.0,0.44271454215049744,0.6123935543654688
650,5.026112557970919e-05,1.0,0.4428168535232544,0.6123935543654688
651,5.0077993364539e-05,1.0,0.4429353177547455,0.6123935543654688
652,4.9888985813595355e-05,1.0,0.4430607855319977,0.6123935543654688
653,4.970685040461831e-05,1.0,0.443144291639328,0.6123935543654688
654,4.952149174641818e-05,1.0,0.44321173429489136,0.6123935543654688
655,4.9339963879901916e-05,1.0,0.44334712624549866,0.6123935543654688
656,4.915953104500659e-05,1.0,0.44345471262931824,0.6123935543654688
657,4.8979418352246284e-05,1.0,0.44353169202804565,0.6123935543654688
658,4.88004952785559e-05,1.0,0.4436631500720978,0.6123935543654688
659,4.862415516981855e-05,1.0,0.44381946325302124,0.6123935543654688
660,4.844621435040608e-05,1.0,0.4439447224140167,0.6123935543654688
661,4.826771328225732e-05,1.0,0.44405096769332886,0.6123935543654688
662,4.8094341764226556e-05,1.0,0.44417890906333923,0.6123935543654688
663,4.791701212525368e-05,1.0,0.4443517327308655,0.6123935543654688
664,4.774319313582964e-05,1.0,0.4444332718849182,0.6123935543654688
665,4.757361239171587e-05,1.0,0.4445202648639679,0.6123935543654688
666,4.740132135339081e-05,1.0,0.4446355104446411,0.6123935543654688
667,4.72285901196301e-05,1.0,0.44477787613868713,0.6123935543654688
668,4.7054432798177004e-05,1.0,0.4448980391025543,0.6123935543654688
669,4.6885135816410184e-05,1.0,0.444961816072464,0.6123935543654688
670,4.671765782404691e-05,1.0,0.44505396485328674,0.6123935543654688
671,4.654776421375573e-05,1.0,0.44518062472343445,0.6123935543654688
672,4.638403333956376e-05,1.0,0.445263534784317,0.6123935543654688
673,4.62122552562505e-05,1.0,0.4453853964805603,0.6123935543654688
674,4.604660352924839e-05,1.0,0.44549334049224854,0.6123935543654688
675,4.588087904267013e-05,1.0,0.4455973207950592,0.6123935543654688
676,4.5714128646068275e-05,1.0,0.4456462860107422,0.6123935543654688
677,4.555342820822261e-05,1.0,0.44576066732406616,0.6123935543654688
678,4.539011570159346e-05,1.0,0.4459146559238434,0.6123935543654688
679,4.522416566032916e-05,1.0,0.4460388422012329,0.6124050923832374
680,4.506058030528948e-05,1.0,0.44619131088256836,0.6124050923832374
681,4.489921411732212e-05,1.0,0.44631263613700867,0.6124050923832374
682,4.4738924771081656e-05,1.0,0.44642072916030884,0.6123935543654688
683,4.45823825430125e-05,1.0,0.44653305411338806,0.6124050923832374
684,4.4421183702070266e-05,1.0,0.44659915566444397,0.6124050923832374
685,4.426050145411864e-05,1.0,0.4467049837112427,0.6124050923832374
686,4.411028203321621e-05,1.0,0.4468441605567932,0.6124050923832374
687,4.3948144593741745e-05,1.0,0.446930468082428,0.6123935543654688
688,4.379441088531166e-05,1.0,0.44697967171669006,0.6123935543654688
689,4.3637781345751137e-05,1.0,0.44708114862442017,0.6124050923832374
690,4.348172660684213e-05,1.0,0.44723430275917053,0.6124050923832374
691,4.332872777013108e-05,1.0,0.44735682010650635,0.6124050923832374
692,4.3176540202694014e-05,1.0,0.4474433958530426,0.6124050923832374
693,4.302948946133256e-05,1.0,0.44755738973617554,0.6124050923832374
694,4.287187766749412e-05,1.0,0.44765913486480713,0.6124050923832374
695,4.272345540812239e-05,1.0,0.4477464258670807,0.6124050923832374
696,4.25703838118352e-05,1.0,0.44784975051879883,0.6124050923832374
697,4.241625720169395e-05,1.0,0.4479568898677826,0.6124050923832374
698,4.226885721436702e-05,1.0,0.4480607211589813,0.6124050923832374
699,4.212510248180479e-05,1.0,0.4482056796550751,0.6124050923832374
700,4.197550879325718e-05,1.0,0.44830459356307983,0.6124050923832374
701,4.1829393012449145e-05,1.0,0.44840627908706665,0.6124050923832374
702,4.1679835703689605e-05,1.0,0.44857195019721985,0.6124050923832374
703,4.1534854972269386e-05,1.0,0.448690265417099,0.6124050923832374
704,4.138888471061364e-05,1.0,0.44878292083740234,0.6124050923832374
705,4.1245035390602425e-05,1.0,0.44887372851371765,0.6124050923832374
706,4.1103019611909986e-05,1.0,0.4489106237888336,0.6124050923832374
707,4.095735857845284e-05,1.0,0.4490486681461334,0.6124050923832374
708,4.0810311475070193e-05,1.0,0.4491615891456604,0.6124050923832374
709,4.066899055032991e-05,1.0,0.4492102861404419,0.6124050923832374
710,4.052834992762655e-05,1.0,0.4493277966976166,0.6124050923832374
711,4.0387356420978904e-05,1.0,0.44945967197418213,0.6124050923832374
712,4.0246952266898006e-05,1.0,0.44955217838287354,0.6124050923832374
713,4.010821430711076e-05,1.0,0.4496239721775055,0.6124050923832374
714,3.99677301174961e-05,1.0,0.4497202932834625,0.6124050923832374
715,3.983257192885503e-05,1.0,0.4498134255409241,0.6124050923832374
716,3.969380122725852e-05,1.0,0.4498957693576813,0.6124050923832374
717,3.955333158955909e-05,1.0,0.45002493262290955,0.6124050923832374
718,3.941920294892043e-05,1.0,0.45015519857406616,0.6124050923832374
719,3.9278667827602476e-05,1.0,0.4502556025981903,0.6124050923832374
720,3.9152389945229515e-05,1.0,0.4503259062767029,0.6124050923832374
721,3.9017279050312936e-05,1.0,0.4503895044326782,0.6124050923832374
722,3.888102583005093e-05,1.0,0.45043250918388367,0.6124050923832374
723,3.874643152812496e-05,1.0,0.4505411386489868,0.6124050923832374
724,3.861203003907576e-05,1.0,0.45068231225013733,0.6124050923832374
725,3.848197957267985e-05,1.0,0.4508363902568817,0.6124050923832374
726,3.834630479104817e-05,1.0,0.4509803056716919,0.6124050923832374
727,3.8213212974369526e-05,1.0,0.45114052295684814,0.6124050923832374
728,3.8084508560132235e-05,1.0,0.45120885968208313,0.6124050923832374
729,3.795250813709572e-05,1.0,0.451304167509079,0.6124050923832374
730,3.782571729971096e-05,1.0,0.45137977600097656,0.6124050923832374
731,3.769811155507341e-05,1.0,0.4514600932598114,0.6124050923832374
732,3.756715886993334e-05,1.0,0.4515147805213928,0.6124050923832374
733,3.7440695450641215e-05,1.0,0.45158639550209045,0.6124050923832374
734,3.73176226275973e-05,1.0,0.4516734480857849,0.6124050923832374
735,3.7185760447755456e-05,1.0,0.4517626166343689,0.6124050923832374
736,3.7060985050629824e-05,1.0,0.4518549144268036,0.6124050923832374
737,3.69316985597834e-05,1.0,0.4519996643066406,0.6124050923832374
738,3.680769441416487e-05,1.0,0.4521483778953552,0.6124050923832374
739,3.66789499821607e-05,1.0,0.45225968956947327,0.6124050923832374
740,3.655556793091819e-05,1.0,0.45235979557037354,0.6124050923832374
741,3.6433957575354725e-05,1.0,0.4524971544742584,0.6124050923832374
742,3.631070285337046e-05,1.0,0.45263153314590454,0.6124050923832374
743,3.6185265344101936e-05,1.0,0.4526999294757843,0.6124050923832374
744,3.607101098168641e-05,1.0,0.452792227268219,0.6124050923832374
745,3.594694135244936e-05,1.0,0.4528612494468689,0.6124050923832374
746,3.582158387871459e-05,1.0,0.4529232084751129,0.6124050923832374
747,3.570925036910921e-05,1.0,0.4530520439147949,0.6124050923832374
748,3.559193282853812e-05,1.0,0.4531286656856537,0.6124050923832374
749,3.5464960092213005e-05,1.0,0.4531871974468231,0.6124050923832374
750,3.534656570991501e-05,1.0,0.4532529413700104,0.6124050923832374
751,3.522886254359037e-05,1.0,0.4533214569091797,0.6124050923832374
752,3.510723036015406e-05,1.0,0.45341312885284424,0.6124050923832374
753,3.4993659937754273e-05,1.0,0.4535655081272125,0.6124050923832374
754,3.487693174974993e-05,1.0,0.453686386346817,0.6124050923832374
755,3.475888661341742e-05,1.0,0.45377227663993835,0.6124050923832374
756,3.464248584350571e-05,1.0,0.4538840353488922,0.6124050923832374
757,3.4524819056969136e-05,1.0,0.45403656363487244,0.6124050923832374
758,3.4411837987136096e-05,1.0,0.4541281759738922,0.6124050923832374
759,3.4295666409889236e-05,1.0,0.45419469475746155,0.6124050923832374
760,3.418343112571165e-05,1.0,0.45428070425987244,0.6124050923832374
761,3.4068580134771764e-05,1.0,0.4543662667274475,0.6124050923832374
762,3.39541511493735e-05,1.0,0.4544510245323181,0.6124050923832374
763,3.3842778066173196e-05,1.0,0.4545726180076599,0.6124050923832374
764,3.3730109862517565e-05,1.0,0.4546589255332947,0.6124050923832374
765,3.361838753335178e-05,1.0,0.45477357506752014,0.6124050923832374
766,3.350753468112089e-05,1.0,0.45486441254615784,0.6124050923832374
767,3.339511022204533e-05,1.0,0.4549410045146942,0.6124050923832374
768,3.328313323436305e-05,1.0,0.45501041412353516,0.6124050923832374
769,3.3180753234773874e-05,1.0,0.45513784885406494,0.6124050923832374
770,3.307143924757838e-05,1.0,0.4552425742149353,0.6124050923832374
771,3.2955314964056015e-05,1.0,0.4553387463092804,0.6124050923832374
772,3.2847725378815085e-05,1.0,0.45543423295021057,0.6124050923832374
773,3.2738258596509695e-05,1.0,0.45553669333457947,0.6124050923832374
774,3.263122562202625e-05,1.0,0.4556148946285248,0.6124050923832374
775,3.252442547818646e-05,1.0,0.45567587018013,0.6124050923832374
776,3.2417367037851363e-05,1.0,0.455803781747818,0.6124050923832374
777,3.231089795008302e-05,1.0,0.4559021592140198,0.6124050923832374
778,3.2206262403633446e-05,1.0,0.45595529675483704,0.6124050923832374
779,3.209896749467589e-05,1.0,0.4560493528842926,0.6124050923832374
780,3.199152342858724e-05,1.0,0.45615237951278687,0.6124050923832374
781,3.188780101481825e-05,1.0,0.4562484920024872,0.6124050923832374
782,3.1782845326233655e-05,1.0,0.45636120438575745,0.6124050923832374
783,3.167730028508231e-05,1.0,0.45646393299102783,0.6124050923832374
784,3.157467290293425e-05,1.0,0.45653751492500305,0.6124050923832374
785,3.1472234695684165e-05,1.0,0.45663881301879883,0.6124050923832374
786,3.137163002975285e-05,1.0,0.4567209780216217,0.6124050923832374
787,3.126557567156851e-05,1.0,0.45686018466949463,0.6124050923832374
788,3.1168077839538455e-05,1.0,0.457013338804245,0.6124050923832374
789,3.106556323473342e-05,1.0,0.45712560415267944,0.6124050923832374
790,3.096503496635705e-05,1.0,0.45719948410987854,0.6124050923832374
791,3.0865885491948575e-05,1.0,0.4572877287864685,0.6124050923832374
792,3.0762821552343667e-05,1.0,0.4573684334754944,0.6124050923832374
793,3.065735654672608e-05,1.0,0.4574653208255768,0.6124050923832374
794,3.05632856907323e-05,1.0,0.4575935900211334,0.6124050923832374
795,3.0459643312497064e-05,1.0,0.45761311054229736,0.6124050923832374
796,3.0365177735802718e-05,1.0,0.4576971232891083,0.6124050923832374
797,3.0267819965956733e-05,1.0,0.4578074812889099,0.6124050923832374
798,3.016811388079077e-05,1.0,0.45788946747779846,0.6124050923832374
799,3.0070452339714393e-05,1.0,0.45799800753593445,0.6124050923832374
800,2.9976548830745742e-05,1.0,0.45812299847602844,0.6124050923832374
801,2.98779305012431e-05,1.0,0.4581919312477112,0.6124050923832374
802,2.978108386741951e-05,1.0,0.45826810598373413,0.6124050923832374
803,2.9685288609471172e-05,1.0,0.4584346413612366,0.6124050923832374
804,2.95909121632576e-05,1.0,0.45855268836021423,0.6124050923832374
805,2.9493443435057998e-05,1.0,0.45863285660743713,0.6124050923832374
806,2.9401940992102027e-05,1.0,0.4587264060974121,0.6124050923832374
807,2.930457776528783e-05,1.0,0.45879867672920227,0.6124050923832374
808,2.9211507353466004e-05,1.0,0.45890718698501587,0.6124050923832374
809,2.9118960810592398e-05,1.0,0.4590132534503937,0.6124050923832374
810,2.9028364224359393e-05,1.0,0.4591017961502075,0.6124050923832374
811,2.8931728593306616e-05,1.0,0.45916569232940674,0.6124050923832374
812,2.8838081561843865e-05,1.0,0.45921120047569275,0.6124050923832374
813,2.8746457246597856e-05,1.0,0.45929521322250366,0.6124050923832374
814,2.8652466426137835e-05,1.0,0.4593825936317444,0.6124050923832374
815,2.8560472856042907e-05,1.0,0.45949792861938477,0.6124050923832374
816,2.8472413760027848e-05,1.0,0.45959001779556274,0.6124050923832374
817,2.8382048185449094e-05,1.0,0.4596671462059021,0.6124050923832374
818,2.8293097784626298e-05,1.0,0.45976871252059937,0.6124050923832374
819,2.8198535801493563e-05,1.0,0.45981353521347046,0.6124050923832374
820,2.810730438795872e-05,1.0,0.45985502004623413,0.6124050923832374
821,2.8022350306855515e-05,1.0,0.45995670557022095,0.6124050923832374
822,2.7931924705626443e-05,1.0,0.4600697159767151,0.6124050923832374
823,2.784134994726628e-05,1.0,0.4601735472679138,0.6124050923832374
824,2.7751826564781368e-05,1.0,0.4602483808994293,0.6124050923832374
825,2.7666274036164396e-05,1.0,0.4603385329246521,0.6124050923832374
826,2.7582716938923113e-05,1.0,0.46044886112213135,0.6124050923832374
827,2.7488644263939932e-05,1.0,0.4605213403701782,0.6124050923832374
828,2.7399779355619103e-05,1.0,0.460627019405365,0.6124050923832374
829,2.7315085390000604e-05,1.0,0.46072742342948914,0.6124050923832374
830,2.722470526350662e-05,1.0,0.46082475781440735,0.6124050923832374
831,2.713984031288419e-05,1.0,0.46092692017555237,0.6124050923832374
832,2.705574661376886e-05,1.0,0.4610227942466736,0.6124050923832374
833,2.6969068130711094e-05,1.0,0.46112585067749023,0.6124050923832374
834,2.688425956876017e-05,1.0,0.46123647689819336,0.6124050923832374
835,2.6804475055541843e-05,1.0,0.4613417088985443,0.6124050923832374
836,2.6717056243796833e-05,1.0,0.461415559053421,0.6124050923832374
837,2.663191844476387e-05,1.0,0.4614860713481903,0.6124050923832374
838,2.654901982168667e-05,1.0,0.4616211950778961,0.6124050923832374
839,2.6463625545147806e-05,1.0,0.46171945333480835,0.6124050923832374
840,2.6382942451164126e-05,1.0,0.4618247449398041,0.6124050923832374
841,2.629771552165039e-05,1.0,0.46196022629737854,0.6124050923832374
842,2.621667954372242e-05,1.0,0.46204128861427307,0.6124050923832374
843,2.6134079234907404e-05,1.0,0.4621148705482483,0.6124050923832374
844,2.6055018679471686e-05,1.0,0.46221017837524414,0.6124050923832374
845,2.5967327019316144e-05,1.0,0.46232715249061584,0.6124050923832374
846,2.5892793928505853e-05,1.0,0.46240854263305664,0.6124050923832374
847,2.581096487119794e-05,1.0,0.462501585483551,0.6124050923832374
848,2.5731485948199406e-05,1.0,0.4625791013240814,0.6124050923832374
849,2.564862006693147e-05,1.0,0.46264806389808655,0.6124050923832374
850,2.556839353928808e-05,1.0,0.4627622067928314,0.6124050923832374
851,2.549057717260439e-05,1.0,0.4628209173679352,0.6124050923832374
852,2.5411332899238914e-05,1.0,0.4629320502281189,0.6124050923832374
853,2.5332639779662713e-05,1.0,0.46305927634239197,0.612416418694258
854,2.5256220396840945e-05,1.0,0.46317386627197266,0.612416418694258
855,2.5176397684845142e-05,1.0,0.4632379114627838,0.612416418694258
856,2.5098444893956184e-05,1.0,0.4633030891418457,0.612416418694258
857,2.502022653061431e-05,1.0,0.46336445212364197,0.612416418694258
858,2.4944769393187016e-05,1.0,0.46346813440322876,0.612416418694258
859,2.4866712919902056e-05,1.0,0.4635665714740753,0.612416418694258
860,2.4786568246781826e-05,1.0,0.46365615725517273,0.612416418694258
861,2.4706838303245604e-05,1.0,0.4637213349342346,0.612416418694258
862,2.4636321541038342e-05,1.0,0.4638034403324127,0.612416418694258
863,2.455843787174672e-05,1.0,0.46388155221939087,0.612416418694258
864,2.4485230824211612e-05,1.0,0.4639882445335388,0.612416418694258
865,2.4404876967309974e-05,1.0,0.46408072113990784,0.612416418694258
866,2.432985456835013e-05,1.0,0.46416446566581726,0.612416418694258
867,2.4256172764580697e-05,1.0,0.4642598330974579,0.612416418694258
868,2.4183686036849394e-05,1.0,0.4643338620662689,0.612416418694258
869,2.4112468963721767e-05,1.0,0.4644324481487274,0.612416418694258
870,2.4036631657509133e-05,1.0,0.46450960636138916,0.612416418694258
871,2.3963617422850803e-05,1.0,0.46460071206092834,0.612416418694258
872,2.388443681411445e-05,1.0,0.4647151529788971,0.612416418694258
873,2.3810793209122494e-05,1.0,0.464822918176651,0.612416418694258
874,2.3741918994346634e-05,1.0,0.4649142622947693,0.612416418694258
875,2.3669443180551752e-05,1.0,0.4650014340877533,0.612416418694258
876,2.359424252063036e-05,1.0,0.4650656282901764,0.612416418694258
877,2.352320916543249e-05,1.0,0.46511369943618774,0.612416418694258
878,2.3451291781384498e-05,1.0,0.4651946425437927,0.612416418694258
879,2.3382661311188713e-05,1.0,0.4652772545814514,0.612416418694258
880,2.3310278265853412e-05,1.0,0.4654054641723633,0.612416418694258
881,2.324262459296733e-05,1.0,0.4655137062072754,0.612416418694258
882,2.3170852728071623e-05,1.0,0.46561071276664734,0.612416418694258
883,2.3096999939298257e-05,1.0,0.46572569012641907,0.612416418694258
884,2.3022539608064108e-05,1.0,0.4657840132713318,0.612416418694258
885,2.2953561710892245e-05,1.0,0.465838760137558,0.612416418694258
886,2.288453651999589e-05,1.0,0.46595948934555054,0.612416418694258
887,2.281684282934293e-05,1.0,0.4660205841064453,0.612416418694258
888,2.2746555259800516e-05,1.0,0.466079443693161,0.612416418694258
889,2.267808304168284e-05,1.0,0.4661906063556671,0.612416418694258
890,2.2610396626987495e-05,1.0,0.46627792716026306,0.612416418694258
891,2.253992533951532e-05,1.0,0.4663701057434082,0.612416418694258
892,2.247124575660564e-05,1.0,0.46647554636001587,0.612416418694258
893,2.2406329662771896e-05,1.0,0.46658673882484436,0.612416418694258
894,2.2337953851092607e-05,1.0,0.46670499444007874,0.612416418694258
895,2.227137520094402e-05,1.0,0.46679264307022095,0.612416418694258
896,2.2202790205483325e-05,1.0,0.46686431765556335,0.612416418694258
897,2.2130689103505574e-05,1.0,0.4669918417930603,0.612416418694258
898,2.2070060367695987e-05,1.0,0.4670962691307068,0.612416418694258
899,2.200103335781023e-05,1.0,0.46717560291290283,0.612416418694258
900,2.1934127289569005e-05,1.0,0.4672929346561432,0.612416418694258
901,2.1865340386284515e-05,1.0,0.46739259362220764,0.612416418694258
902,2.1803356503369287e-05,1.0,0.46748870611190796,0.612416418694258
903,2.1740928787039593e-05,1.0,0.4675942659378052,0.612416418694258
904,2.1671974536729977e-05,1.0,0.4676115810871124,0.612416418694258
905,2.160469739465043e-05,1.0,0.46764448285102844,0.612416418694258
906,2.15444051718805e-05,1.0,0.4677572250366211,0.612416418694258
907,2.1482526790350676e-05,1.0,0.4678378105163574,0.612416418694258
908,2.141511140507646e-05,1.0,0.4679322838783264,0.612416418694258
909,2.1348292648326606e-05,1.0,0.46804821491241455,0.612416418694258
910,2.1284475224092603e-05,1.0,0.4681328237056732,0.612416418694258
911,2.122104342561215e-05,1.0,0.46820059418678284,0.612416418694258
912,2.115649840561673e-05,1.0,0.4682725965976715,0.612416418694258
913,2.1092224415042438e-05,1.0,0.4683087170124054,0.612416418694258
914,2.1028521587140858e-05,1.0,0.46835243701934814,0.612416418694258
915,2.096728167089168e-05,1.0,0.4684540033340454,0.612416418694258
916,2.0907607904518954e-05,1.0,0.46857818961143494,0.612416418694258
917,2.0843552192673087e-05,1.0,0.46865612268447876,0.612416418694258
918,2.0779862097697333e-05,1.0,0.46876826882362366,0.612416418694258
919,2.0722027329611592e-05,1.0,0.46886539459228516,0.612416418694258
920,2.0655505068134516e-05,1.0,0.46892547607421875,0.612416418694258
921,2.0595172827597708e-05,1.0,0.4689863622188568,0.612416418694258
922,2.0535106159513816e-05,1.0,0.4690690040588379,0.612416418694258
923,2.047580164799001e-05,1.0,0.46915334463119507,0.612416418694258
924,2.041619154624641e-05,1.0,0.46925774216651917,0.612416418694258
925,2.035136458289344e-05,1.0,0.4693700075149536,0.612416418694258
926,2.0290710381232202e-05,1.0,0.46950170397758484,0.612416418694258
927,2.023183333221823e-05,1.0,0.4696204960346222,0.612416418694258
928,2.017080259975046e-05,1.0,0.46974796056747437,0.612416418694258
929,2.0113318896619603e-05,1.0,0.46980372071266174,0.612416418694258
930,2.005620626732707e-05,1.0,0.4698674976825714,0.612416418694258
931,1.9993383830296807e-05,1.0,0.46994107961654663,0.612416418694258
932,1.9934297597501427e-05,1.0,0.4700128734111786,0.612416418694258
933,1.987362702493556e-05,1.0,0.4700716435909271,0.612416418694258
934,1.9815022824332118e-05,1.0,0.4701429009437561,0.612416418694258
935,1.9755949324462563e-05,1.0,0.4702228009700775,0.612416418694258
936,1.969963159353938e-05,1.0,0.47031769156455994,0.612416418694258
937,1.9642993720481172e-05,1.0,0.4704272449016571,0.612416418694258
938,1.9583974790293723e-05,1.0,0.47056224942207336,0.612416418694258
939,1.9519935449352488e-05,1.0,0.4706549048423767,0.612416418694258
940,1.9468538084765896e-05,1.0,0.470731645822525,0.612416418694258
941,1.941322443599347e-05,1.0,0.47083133459091187,0.612416418694258
942,1.9351053197169676e-05,1.0,0.4709221422672272,0.612416418694258
943,1.9297656763228588e-05,1.0,0.4710066616535187,0.612416418694258
944,1.9238890672568232e-05,1.0,0.47111305594444275,0.612416418694258
945,1.9180941308150068e-05,1.0,0.4711836278438568,0.612416418694258
946,1.9126142433378845e-05,1.0,0.471273273229599,0.612416418694258
947,1.9074135707342066e-05,1.0,0.4713805615901947,0.612416418694258
948,1.901814539451152e-05,1.0,0.471443235874176,0.612416418694258
949,1.895880268421024e-05,1.0,0.471478134393692,0.612416418694258
950,1.8903510863310657e-05,1.0,0.4715723395347595,0.612416418694258
951,1.8848266336135566e-05,1.0,0.4716566503047943,0.612416418694258
952,1.8791950424201787e-05,1.0,0.4717212915420532,0.612416418694258
953,1.8741764506557956e-05,1.0,0.4718177616596222,0.612416418694258
954,1.8684684619074687e-05,1.0,0.47192320227622986,0.612416418694258
955,1.8631511920830235e-05,1.0,0.4720200002193451,0.612416418694258
956,1.857529059634544e-05,1.0,0.47212764620780945,0.612416418694258
957,1.852185232564807e-05,1.0,0.47221246361732483,0.612416418694258
958,1.8465776520315558e-05,1.0,0.4722791910171509,0.612416418694258
959,1.841477569541894e-05,1.0,0.47238022089004517,0.612416418694258
960,1.836249248299282e-05,1.0,0.47245508432388306,0.612416418694258
961,1.830932160373777e-05,1.0,0.47254297137260437,0.612416418694258
962,1.825587787607219e-05,1.0,0.472592830657959,0.612416418694258
963,1.8200513295596465e-05,1.0,0.47269386053085327,0.612416418694258
964,1.8150025425711647e-05,1.0,0.47278520464897156,0.612416418694258
965,1.8097511201631278e-05,1.0,0.4728584289550781,0.612416418694258
966,1.8047230696538463e-05,1.0,0.4729456305503845,0.612416418694258
967,1.7995207599597052e-05,1.0,0.47301340103149414,0.612416418694258
968,1.7941361875273287e-05,1.0,0.47312211990356445,0.612416418694258
969,1.789363523130305e-05,1.0,0.4732056260108948,0.612416418694258
970,1.783510742825456e-05,1.0,0.4732653796672821,0.612416418694258
971,1.7784384908736683e-05,1.0,0.47335392236709595,0.612416418694258
972,1.7733636923367158e-05,1.0,0.4734557569026947,0.612416418694258
973,1.7678603398962878e-05,1.0,0.4735102653503418,0.612416418694258
974,1.7628539353609085e-05,1.0,0.4735894799232483,0.612416418694258
975,1.7577767721377313e-05,1.0,0.47369062900543213,0.612416418694258
976,1.7529799151816405e-05,1.0,0.4737795293331146,0.612416418694258
977,1.7481059330748394e-05,1.0,0.47388988733291626,0.612416418694258
978,1.7430320440325886e-05,1.0,0.473971962928772,0.612416418694258
979,1.7378200936946087e-05,1.0,0.4740651547908783,0.612416418694258
980,1.732799137244001e-05,1.0,0.47413361072540283,0.612416418694258
981,1.7279557141591795e-05,1.0,0.47416916489601135,0.612416418694258
982,1.7225527699338272e-05,1.0,0.47428104281425476,0.612416418694258
983,1.7178048437926918e-05,1.0,0.47440868616104126,0.612416418694258
984,1.7127982573583722e-05,1.0,0.4745319187641144,0.612416418694258
985,1.7080994439311326e-05,1.0,0.47459593415260315,0.612416418694258
986,1.702945155557245e-05,1.0,0.47466060519218445,0.612416418694258
987,1.698311280051712e-05,1.0,0.47477278113365173,0.612416418694258
988,1.6934349332586862e-05,1.0,0.4748699367046356,0.612416418694258
989,1.688267911958974e-05,1.0,0.4749550223350525,0.612416418694258
990,1.6837373550515622e-05,1.0,0.4750405550003052,0.612416418694258
991,1.67902180692181e-05,1.0,0.4750783145427704,0.612416418694258
992,1.6747417248552665e-05,1.0,0.475101113319397,0.612416418694258
993,1.6695908925612457e-05,1.0,0.47515228390693665,0.612416418694258
994,1.6647707525407895e-05,1.0,0.4752142131328583,0.612416418694258
995,1.6598107322352007e-05,1.0,0.4753221869468689,0.612416418694258
996,1.655333471717313e-05,1.0,0.4754435122013092,0.612416418694258
997,1.650293961574789e-05,1.0,0.4755539894104004,0.612416418694258
998,1.6457981473649852e-05,1.0,0.47567182779312134,0.612416418694258
999,1.641357630433049e-05,1.0,0.4757782518863678,0.612416418694258
