,loss,recall,val_loss,val_recall
0,1.8361163139343262,0.5310639880952379,1.3329466581344604,0.401529702238922
1,1.3311630487442017,0.4210069444444444,0.8737586140632629,0.6292505112762207
2,0.8628047108650208,0.7096354166666666,0.788274347782135,0.4670137580110986
3,0.7095896005630493,0.603298611111111,0.61390221118927,0.4877891661136343
4,0.6413251161575317,0.5911458333333334,0.46133318543434143,0.5629596910182016
5,0.5207931995391846,0.699032738095238,0.46128788590431213,0.5777910402245511
6,0.5173436999320984,0.7005208333333334,0.46413859724998474,0.5925366423371747
7,0.5193010568618774,0.714657738095238,0.46404778957366943,0.5761081781693486
8,0.4958016872406006,0.7005208333333334,0.46068572998046875,0.5884388124680682
9,0.4985674023628235,0.7317708333333333,0.4518226683139801,0.5938664295712173
10,0.4737727642059326,0.7317708333333333,0.44035932421684265,0.6080717671808101
11,0.46759721636772156,0.7317708333333333,0.42709892988204956,0.6207031911154254
12,0.4575839340686798,0.7319568452380952,0.42605412006378174,0.6240543631900018
13,0.4547433853149414,0.7319568452380952,0.4196314215660095,0.633103172930301
14,0.4419113099575043,0.7473958333333333,0.44182708859443665,0.6009977409312519
15,0.4483535587787628,0.777157738095238,0.43037885427474976,0.6008782928064845
16,0.4359026551246643,0.7475818452380952,0.4178539216518402,0.6169714372506929
17,0.4206823706626892,0.7632068452380952,0.39537620544433594,0.691325870248743
18,0.4381040334701538,0.7788318452380952,0.407320499420166,0.6600658945073842
19,0.39824819564819336,0.792782738095238,0.4465767443180084,0.5704921944682584
20,0.40657633543014526,0.76171875,0.40823835134506226,0.6456296117200376
21,0.44648051261901855,0.7281507554945055,0.38784027099609375,0.6990348746997688
22,0.416284441947937,0.7125257554945055,0.40346720814704895,0.7224583434689824
23,0.3796240985393524,0.8297132554945055,0.4015760123729706,0.6674758628880973
24,0.4032265543937683,0.8257068452380952,0.38790014386177063,0.740187550825849
25,0.3901374042034149,0.8411458333333333,0.3996032178401947,0.6506804882469781
26,0.38466569781303406,0.7731026785714286,0.38959380984306335,0.6797536092748864
27,0.35655292868614197,0.8074776785714286,0.3754301071166992,0.7045649858415819
28,0.33075347542762756,0.8219007554945055,0.37391483783721924,0.7343823950871828
29,0.35111719369888306,0.8541666666666666,0.3851918578147888,0.6671442549767022
30,0.34171417355537415,0.7447916666666666,0.3994840383529663,0.6913427244544272
31,0.5461815595626831,0.767485119047619,0.8010382652282715,0.4609578502663611
32,0.585205614566803,0.6938244047619048,0.7318874597549438,0.4853960061805808
33,0.6760034561157227,0.5598958333333334,0.41081517934799194,0.5783753598647217
34,0.4437547028064728,0.6458333333333334,0.3735181987285614,0.6988773465502196
35,0.3628048300743103,0.7729166666666666,0.37936660647392273,0.7027165235276944
36,0.391234815120697,0.7677083333333332,0.3786723017692566,0.6917619343816158
37,0.36780720949172974,0.7729166666666666,0.37304189801216125,0.692300776941735
38,0.35773953795433044,0.7967548076923077,0.36559563875198364,0.7018216097338444
39,0.3481551706790924,0.8102964743589743,0.3611038327217102,0.7179081655145492
40,0.33914995193481445,0.8020833333333333,0.3599657118320465,0.7288552587089828
41,0.3506088852882385,0.826171875,0.3631821870803833,0.7275126174062351
42,0.3242153823375702,0.8386181526806525,0.35754355788230896,0.7422718972320042
43,0.33313190937042236,0.8197616185897435,0.36715853214263916,0.7395577998636513
44,0.3209882378578186,0.8309151785714286,0.36232084035873413,0.7387994639324432
45,0.30120769143104553,0.842092803030303,0.3481543958187103,0.7393518739928321
46,0.30135104060173035,0.8398200757575757,0.3513556122779846,0.739335740599039
47,0.3135405480861664,0.8021834935897435,0.33522704243659973,0.7566798966400035
48,0.3201562762260437,0.810842803030303,0.34440580010414124,0.7574492956806792
49,0.3121250867843628,0.8365885416666666,0.33965450525283813,0.7640160174734647
50,0.3131573498249054,0.857717803030303,0.3319675624370575,0.7356107505575591
51,0.3633389174938202,0.766903409090909,0.3205522298812866,0.7141700926142418
52,0.46675246953964233,0.7087339743589743,0.3631882965564728,0.7253944066178113
53,0.36872798204421997,0.7721354166666666,0.35558587312698364,0.7480392661908623
54,0.32578736543655396,0.8236979166666666,0.3602129817008972,0.7276347175283349
55,0.3196551501750946,0.8424479166666666,0.3538825809955597,0.7492801573918598
56,0.32145261764526367,0.8134469696969696,0.3528646230697632,0.7461502322539563
57,0.36192479729652405,0.7966200466200465,0.3791278600692749,0.7281338731205758
58,0.3264331817626953,0.7725694444444444,0.35154667496681213,0.7476351239383158
59,0.31740644574165344,0.8516626602564101,0.34373947978019714,0.737526332513035
60,0.28813618421554565,0.8080729166666666,0.33919408917427063,0.7469878304319796
61,0.2805393636226654,0.8580729166666666,0.3250453472137451,0.7504355174966881
62,0.265898197889328,0.8401041666666667,0.34197983145713806,0.7538497278922814
63,0.2783125936985016,0.8705729166666666,0.4573422968387604,0.5604719054586071
64,0.3249433934688568,0.7491319444444444,0.345880925655365,0.7433320417761913
65,0.31669190526008606,0.759548611111111,0.3235475718975067,0.7475640322049901
66,0.2843897342681885,0.8029513888888888,0.3311268985271454,0.7325302160408542
67,0.27916425466537476,0.8246527777777777,0.3746567666530609,0.6152518718476161
68,0.29411840438842773,0.7972355769230769,0.3109316825866699,0.7623801188960765
69,0.2505025267601013,0.8408854166666666,0.29597339034080505,0.7640632387706857
70,0.2598382234573364,0.8390758547008546,0.43379029631614685,0.5313952074324414
71,0.5180689692497253,0.5944010416666667,0.43953555822372437,0.6283065880140353
72,0.4842696785926819,0.7182088744588745,0.3846004009246826,0.7016379891778832
73,0.4109193682670593,0.7041666666666666,0.36566147208213806,0.733851628572374
74,0.3592630624771118,0.7768229166666666,0.35837095975875854,0.718137931808145
75,0.3752874732017517,0.7690104166666666,0.3530197739601135,0.7323662714354208
76,0.35013851523399353,0.7924479166666666,0.3494848310947418,0.7265725822640721
77,0.3513735234737396,0.8085069444444444,0.356655091047287,0.7279845400856045
78,0.35113221406936646,0.8064453125,0.3504624664783478,0.7293364141768404
79,0.3367094397544861,0.8241319444444444,0.3429880738258362,0.7352423256412625
80,0.33180904388427734,0.8085069444444444,0.3602336645126343,0.7039042291435914
81,0.331964910030365,0.8143229166666666,0.3440958559513092,0.7318250843915742
82,0.3495413661003113,0.7796875,0.3647672235965729,0.7165001123777724
83,0.3319185972213745,0.8449652777777777,0.349855899810791,0.728644008670605
84,0.3295857310295105,0.8085069444444444,0.35242757201194763,0.7305909860431142
85,0.3233640193939209,0.8241319444444444,0.34987732768058777,0.7329661148544133
86,0.3200479745864868,0.8397569444444444,0.34881624579429626,0.7317840817574867
87,0.31704068183898926,0.8272569444444444,0.3483951687812805,0.729354419221441
88,0.31520548462867737,0.8272569444444444,0.34900256991386414,0.7311348565736868
89,0.3168441355228424,0.8116319444444444,0.34245023131370544,0.7428485934868919
90,0.3046628534793854,0.8428819444444444,0.3416367173194885,0.7472988073785952
91,0.30574336647987366,0.8741319444444444,0.3444737493991852,0.7467674066477263
92,0.30356264114379883,0.8397569444444444,0.3450826108455658,0.7398356051946482
93,0.29307717084884644,0.853298611111111,0.3472181260585785,0.7283790308391376
94,0.31393495202064514,0.8260550213675213,0.3459835648536682,0.7571369868311363
95,0.30029383301734924,0.8741319444444444,0.35001012682914734,0.7392345169605814
96,0.2958897054195404,0.8397569444444444,0.34994351863861084,0.7333527165309084
97,0.2929713726043701,0.8241319444444444,0.3436616063117981,0.7391985029352053
98,0.31570056080818176,0.8525094696969696,0.34387898445129395,0.7393035786120897
99,0.30860254168510437,0.8553819444444444,0.35516616702079773,0.7154424205621018
100,0.31382089853286743,0.7869925213675213,0.3775586783885956,0.6843263784088259
101,0.36199715733528137,0.7569444444444444,0.3757916986942291,0.6644889566698083
102,0.3244059979915619,0.775173611111111,0.36045846343040466,0.7176102187804323
103,0.31224146485328674,0.8416800213675213,0.37561535835266113,0.6817785612732429
104,0.37304556369781494,0.7314453124999999,0.3746396601200104,0.6799072105987005
105,0.3828660249710083,0.7658730158730158,0.37930384278297424,0.6625129032708823
106,0.5871114134788513,0.4892578125,0.5678860545158386,0.4918028361512406
107,0.4178459942340851,0.7084334935897435,0.40686020255088806,0.7077876972646482
108,0.41866815090179443,0.7256944444444443,0.39374977350234985,0.7138848405337773
109,0.3703981041908264,0.68046875,0.4017586410045624,0.6908662564779593
110,0.36440354585647583,0.743923611111111,0.4009964168071747,0.6715725960406818
111,0.33418330550193787,0.7980902777777777,0.38400083780288696,0.7044686056654147
112,0.3601101338863373,0.7533854166666666,0.35104677081108093,0.7350232775498738
113,0.34573134779930115,0.8004261363636362,0.36512893438339233,0.7215339939808033
114,0.3561006486415863,0.7584635416666666,0.35531604290008545,0.749226838960882
115,0.3561471700668335,0.743923611111111,0.344643771648407,0.7549056981237835
116,0.40793532133102417,0.7304687499999999,0.3641977608203888,0.7237224059431513
117,0.35129314661026,0.7694444444444444,0.48878878355026245,0.6279684057077674
118,0.3523211181163788,0.6820312499999999,0.35746100544929504,0.7306404657202533
119,0.2918688654899597,0.8006944444444444,0.41702452301979065,0.598431384907449
120,0.39896804094314575,0.7611979166666666,0.4110056161880493,0.6855135629736699
121,0.37331193685531616,0.7304687499999999,0.3699176609516144,0.7074618496161053
122,0.3500206768512726,0.7335069444444444,0.3812378942966461,0.6743075974458954
123,0.34248554706573486,0.7595486111111112,0.3405243456363678,0.7339003805493173
124,0.35334694385528564,0.8108428030303029,0.38780683279037476,0.696977180620798
125,0.2935100793838501,0.7965494791666666,0.3925260007381439,0.6683924896025962
126,0.6218298673629761,0.5661591880341881,0.5896692276000977,0.538282454346284
127,0.5748943090438843,0.5487971230158731,0.4153966009616852,0.6952935657722901
128,0.4268698990345001,0.7092803030303029,0.5038390755653381,0.513354043513618
129,0.5781949758529663,0.6256510416666667,0.40821823477745056,0.7424048375777107
130,0.4071452021598816,0.7413194444444443,0.38512733578681946,0.7235916496820757
131,0.3822248578071594,0.7647786458333332,0.37265288829803467,0.7224121012950806
132,0.36175596714019775,0.7626953124999999,0.3623569905757904,0.7288781795430737
133,0.3410329222679138,0.7626953124999999,0.35434842109680176,0.7322198856108436
134,0.33301955461502075,0.7679036458333333,0.3549589514732361,0.7289893690824548
135,0.3222416639328003,0.7574869791666666,0.35170629620552063,0.733918972575888
136,0.31753069162368774,0.7913411458333333,0.34834548830986023,0.7359738916520837
137,0.30400198698043823,0.8017578125,0.340139776468277,0.7422472184041339
138,0.2879396677017212,0.8173828125,0.3347972333431244,0.7440437448682135
139,0.2904423475265503,0.8486328125,0.33545756340026855,0.7420993215807052
140,0.2804785966873169,0.8486328125,0.3371889889240265,0.738910776969288
141,0.2721903324127197,0.8642578125,0.3458774983882904,0.728120129476513
142,0.2932441532611847,0.8642578125,0.35273802280426025,0.7052169392860888
143,0.270455539226532,0.8486328125,0.3407857120037079,0.7292021340558578
144,0.26502859592437744,0.8486328125,0.33374080061912537,0.7326297864861698
145,0.25776010751724243,0.8642578125,0.33518925309181213,0.7405804744900494
146,0.25305628776550293,0.8642578125,0.33837249875068665,0.7241492185907084
147,0.24856431782245636,0.8642578125,0.33938053250312805,0.7226040242263647
148,0.24560847878456116,0.8642578125,0.34387728571891785,0.7109622700979087
149,0.23775434494018555,0.8798828125,0.3441477119922638,0.7128328423940128
150,0.23335975408554077,0.8798828125,0.3442855775356293,0.7090802612478146
151,0.23077183961868286,0.8798828125,0.3427298963069916,0.7123156438714952
152,0.22389528155326843,0.8909970238095237,0.3459588885307312,0.7016610010360012
153,0.21848443150520325,0.9144345238095237,0.3499547839164734,0.7063545344529388
154,0.21639564633369446,0.9137369791666666,0.34755197167396545,0.7091763068491795
155,0.21123135089874268,0.9293619791666666,0.3491002023220062,0.7101968780825166
156,0.2082320898771286,0.9144345238095237,0.35102611780166626,0.7073917753837969
157,0.20728513598442078,0.8988095238095237,0.3528452515602112,0.7107078963195985
158,0.21611341834068298,0.9144345238095237,0.3542543351650238,0.7069878747139386
159,0.2080756425857544,0.9144345238095237,0.3509843945503235,0.7124000649665545
160,0.2045273333787918,0.9144345238095237,0.3522590398788452,0.7159718994559421
161,0.203299880027771,0.9144345238095237,0.35166943073272705,0.7191430117360972
162,0.1983364075422287,0.8988095238095237,0.3526335656642914,0.7196262164746211
163,0.21372726559638977,0.9144345238095237,0.34741508960723877,0.72362146521721
164,0.2023204118013382,0.8675595238095237,0.35878556966781616,0.7198469325198049
165,0.21001917123794556,0.8988095238095237,0.3483821749687195,0.722259703948534
166,0.20968513190746307,0.8988095238095237,0.3524520695209503,0.7228966704099686
167,0.20229804515838623,0.9144345238095237,0.3537715673446655,0.7204134862379545
168,0.19945943355560303,0.8831845238095237,0.3647363483905792,0.7208527775416075
169,0.19974257051944733,0.9300595238095237,0.35444504022598267,0.717993782222506
170,0.20914378762245178,0.8831845238095237,0.36078429222106934,0.7195326565672314
171,0.20332947373390198,0.9144345238095237,0.3632398247718811,0.7141162245949484
172,0.20016716420650482,0.8841145833333333,0.3600843548774719,0.7273070654719596
173,0.20048950612545013,0.9144345238095237,0.35123515129089355,0.7139849261258839
174,0.20674288272857666,0.8476562499999999,0.37194162607192993,0.7272641168917771
175,0.4529198706150055,0.8062499999999999,0.4982105791568756,0.6854955721976999
176,0.442710816860199,0.6296672077922078,0.42548471689224243,0.7170975773635352
177,0.40951502323150635,0.7543619791666666,0.4022223651409149,0.6696280325269689
178,0.3803732395172119,0.7100694444444445,0.36725038290023804,0.7321120319790538
179,0.31071335077285767,0.8142578125,0.3655949831008911,0.7117947979916072
180,0.4253314733505249,0.7262369791666665,0.38124793767929077,0.7232945816988378
181,0.3380741477012634,0.7262369791666666,0.36071571707725525,0.7092609444338174
182,0.2914842367172241,0.7861328125,0.3646704852581024,0.7049054447325728
183,0.2723035514354706,0.8330078125,0.3606109321117401,0.7193159111377203
184,0.2741782069206238,0.8017578125,0.3588040769100189,0.7222465305577013
185,0.2698288559913635,0.8642578125,0.36046114563941956,0.7190342581964928
186,0.3860454857349396,0.750790550595238,0.3809622526168823,0.7223607996613318
187,0.31967511773109436,0.7913411458333333,0.3611031174659729,0.7193067895461516
188,0.2772150933742523,0.7669270833333333,0.3621382713317871,0.7146440660403431
189,0.25033968687057495,0.8597470238095237,0.35832419991493225,0.7226488050956142
190,0.24470536410808563,0.8753720238095237,0.3590565621852875,0.7287123116245462
191,0.2378581166267395,0.8493303571428571,0.3582419157028198,0.7264009065205881
192,0.24555842578411102,0.8330078125,0.35810911655426025,0.7165906616039599
193,0.2352968156337738,0.8909970238095237,0.35530567169189453,0.7111874950305807
194,0.22476154565811157,0.8649553571428571,0.36268603801727295,0.7231615459009081
195,0.2316281497478485,0.8493303571428571,0.36042946577072144,0.7150679526344427
196,0.23237355053424835,0.9075520833333333,0.35850539803504944,0.7132593863976846
197,0.22634489834308624,0.9075520833333333,0.3514663279056549,0.7227615203944995
198,0.21150708198547363,0.8909970238095237,0.3634929060935974,0.7208004515185373
199,0.20711678266525269,0.8909970238095237,0.3585604429244995,0.7201302686675033
200,0.19644124805927277,0.9309895833333333,0.3531036376953125,0.7301416304341839
201,0.18138985335826874,0.9309895833333333,0.3502391278743744,0.7237874959949434
202,0.1690785139799118,0.9092261904761904,0.35995662212371826,0.7299044907023633
203,0.1741282194852829,0.9144345238095237,0.3636797368526459,0.7234808094781503
204,0.40407270193099976,0.8137152777777777,0.4422151446342468,0.5753014469769788
205,0.39897146821022034,0.7191220238095237,0.43249574303627014,0.691655977985765
206,0.3133070468902588,0.7738095238095237,0.37294021248817444,0.719045397569334
207,0.2705240547657013,0.8408203125,0.3430129885673523,0.7419528885220378
208,0.2173011302947998,0.9179687499999999,0.3769134283065796,0.6867899023750087
209,0.5391726493835449,0.6831597222222221,0.39495155215263367,0.71182102718007
210,0.4853706359863281,0.6131944444444445,0.45039603114128113,0.6793167997290342
211,0.37471920251846313,0.7538194444444444,0.39890483021736145,0.7365537486548127
212,0.30507349967956543,0.803298611111111,0.380273699760437,0.7302278739778744
213,0.3487253189086914,0.7425595238095237,0.373893678188324,0.7278601914240216
214,0.3079015016555786,0.810267857142857,0.37081462144851685,0.7206255776335568
215,0.3132607340812683,0.7972470238095236,0.37202149629592896,0.731979073428542
216,0.2992357015609741,0.8244047619047618,0.375560462474823,0.720975589127185
217,0.2333643138408661,0.8415178571428571,0.35809892416000366,0.7249394326123052
218,0.21669158339500427,0.9033203124999999,0.36264702677726746,0.7275094315652828
219,0.2294943928718567,0.8962053571428571,0.4133402705192566,0.6708791587647972
220,0.2537986636161804,0.8902994791666666,0.36380723118782043,0.7414891078188954
221,0.20520131289958954,0.8519345238095237,0.3594819903373718,0.7154003330200142
222,0.1880795657634735,0.9300595238095237,0.3576677441596985,0.7251706971121867
223,0.1777164489030838,0.9049479166666666,0.3637058436870575,0.7281194475343418
224,0.16993281245231628,0.9352678571428571,0.3627547025680542,0.7236567800796527
225,0.16800397634506226,0.9300595238095237,0.36784857511520386,0.7257913215625983
226,0.16207732260227203,0.9361979166666666,0.37409308552742004,0.7315003751173966
227,0.15985599160194397,0.9361979166666666,0.3770991563796997,0.7292758630258631
228,0.16488927602767944,0.9361979166666666,0.3844396770000458,0.7236452451213091
229,0.20901010930538177,0.9352678571428571,0.38511309027671814,0.7234082623444329
230,0.21899902820587158,0.8710937499999999,0.38510605692863464,0.7170977658078725
231,0.22107236087322235,0.8684895833333333,0.3846214711666107,0.7236546963674628
232,0.2501712441444397,0.8161808894230768,0.3952147662639618,0.7052367495585586
233,0.24051056802272797,0.7946428571428571,0.39613550901412964,0.7157640207507233
234,0.20228832960128784,0.8727678571428571,0.3943427801132202,0.7182325328335972
235,0.17649707198143005,0.8893229166666666,0.3918798863887787,0.7240989925165462
236,0.19355224072933197,0.8571428571428571,0.3920174837112427,0.7334996735927591
237,0.1955639123916626,0.8736979166666666,0.4054703414440155,0.7252475036783551
238,0.1918822079896927,0.8528645833333333,0.399168998003006,0.7268117589660146
239,0.3993740379810333,0.7761418269230769,0.4367358088493347,0.7220232048290561
240,0.4165410101413727,0.7001953125,0.4046232998371124,0.7374476119821868
241,0.37053966522216797,0.8225911458333333,0.36739206314086914,0.7588914739712611
242,0.3490472435951233,0.7719100560897435,0.3513462245464325,0.7177447818139309
243,0.375024676322937,0.6652777777777777,0.36703604459762573,0.7373292192441131
244,0.30877867341041565,0.7965494791666666,0.3803343176841736,0.7283598961125561
245,0.3069213628768921,0.7699652777777777,0.376874178647995,0.6886886065077559
246,0.3038885295391083,0.7757161458333333,0.37517258524894714,0.7402262724470173
247,0.29077768325805664,0.7757161458333333,0.363164484500885,0.730447248771717
248,0.2707447409629822,0.837673611111111,0.3661225438117981,0.7295747293486661
249,0.28365492820739746,0.724330357142857,0.359815776348114,0.7435905367288348
250,0.33003103733062744,0.8000133547008547,0.3740265667438507,0.7396281771813689
251,0.32314637303352356,0.7439617673992672,0.3698561191558838,0.728041848321104
252,0.28450506925582886,0.8272569444444444,0.35028576850891113,0.7492973309196718
253,0.3349657952785492,0.8073918269230769,0.37525835633277893,0.7341590029355989
254,0.2849377393722534,0.7894345238095237,0.3686490058898926,0.7297696418042164
255,0.3646949529647827,0.7088675213675213,0.42434161901474,0.676022064027384
256,0.28337109088897705,0.7821969696969696,0.3811175227165222,0.7220816097810784
257,0.2843732535839081,0.7543402777777777,0.3748682737350464,0.736671128320065
258,0.30241477489471436,0.7829861111111112,0.45788058638572693,0.5182428849716085
259,0.6946620941162109,0.5055803571428573,0.6455230712890625,0.5441411069558237
260,0.6421003341674805,0.69140625,0.509196937084198,0.6632720116762673
261,0.8130744099617004,0.44863281250000003,0.5358200669288635,0.581368309586395
262,0.5735225677490234,0.6784939236111109,0.41594842076301575,0.7152624266985972
263,0.4245007634162903,0.7256944444444444,0.4023248851299286,0.700294079443016
264,0.4076591730117798,0.782986111111111,0.38236546516418457,0.7184378618820113
265,0.4045776128768921,0.782986111111111,0.3749355971813202,0.738495876660771
266,0.3800877630710602,0.7960286458333332,0.373235821723938,0.7376777408958268
267,0.3686267137527466,0.7991536458333333,0.3711581528186798,0.736329628311012
268,0.3607592284679413,0.8147786458333333,0.369729608297348,0.7364292351659378
269,0.3547496497631073,0.8043619791666666,0.3697131276130676,0.7367110553945667
270,0.34873512387275696,0.8199869791666666,0.36901891231536865,0.7397083536046307
271,0.34322822093963623,0.8043619791666666,0.36876341700553894,0.736151508558424
272,0.34348613023757935,0.8043619791666666,0.39871957898139954,0.7344727848983174
273,0.37844136357307434,0.8043619791666666,0.3871821165084839,0.735091271022123
274,0.3477635681629181,0.7887369791666666,0.3759770095348358,0.736970366119303
275,0.34263691306114197,0.8277994791666666,0.3714769184589386,0.7426924464424474
276,0.3366696238517761,0.8121744791666666,0.3689917325973511,0.7413669417658786
277,0.33147621154785156,0.8277994791666666,0.36863526701927185,0.7405311837492696
278,0.3280130624771118,0.8121744791666666,0.36707228422164917,0.7319405456639507
279,0.33254483342170715,0.7965494791666666,0.3631041944026947,0.7388211256828285
280,0.32408374547958374,0.8121744791666666,0.3614519536495209,0.7422567778950765
281,0.3190944492816925,0.8434244791666666,0.3626052737236023,0.7377882066711862
282,0.3184391260147095,0.8434244791666666,0.3611411452293396,0.7378501226905488
283,0.31346338987350464,0.8434244791666666,0.36020877957344055,0.7363893592617003
284,0.31007465720176697,0.8434244791666666,0.36209794878959656,0.7385845635845641
285,0.30748724937438965,0.8434244791666666,0.36074012517929077,0.7375637168190365
286,0.31033891439437866,0.8590494791666666,0.37032148241996765,0.7339331226299317
287,0.3078179955482483,0.8434244791666666,0.3588908016681671,0.736982550546381
288,0.3102264106273651,0.8434244791666666,0.36161279678344727,0.7295145531182771
289,0.33700498938560486,0.8251953125,0.36265677213668823,0.7274125278779542
290,0.31626051664352417,0.8382161458333333,0.3559649884700775,0.743181203154608
291,0.30851975083351135,0.8746744791666666,0.3567114472389221,0.7423047844590404
292,0.3024179935455322,0.8746744791666666,0.35695135593414307,0.7402000727798606
293,0.29879647493362427,0.8590494791666666,0.3565724194049835,0.7402000727798606
294,0.2955365478992462,0.8746744791666666,0.3563429117202759,0.7390053750426097
295,0.2932605743408203,0.8746744791666666,0.3558315932750702,0.736636437833247
296,0.2912321090698242,0.8746744791666666,0.3557279706001282,0.7370797002445945
297,0.2900289297103882,0.8746744791666666,0.3554820716381073,0.7368751175932033
298,0.28759416937828064,0.8798828125,0.3546108603477478,0.7331901574587751
299,0.2911960482597351,0.8590494791666666,0.35532328486442566,0.7306860697419214
300,0.2988624572753906,0.8798828125,0.3527714014053345,0.7342254470312988
301,0.29068416357040405,0.8434244791666666,0.3494042158126831,0.74665138053436
302,0.3015107810497284,0.8798828125,0.35535943508148193,0.74173565992715
303,0.2762703597545624,0.8798828125,0.354338139295578,0.7403721003189094
304,0.27434083819389343,0.8798828125,0.3543437123298645,0.7337609145188939
305,0.27358582615852356,0.8798828125,0.35190629959106445,0.734665326792987
306,0.27978259325027466,0.8590494791666666,0.35228586196899414,0.7380051115157504
307,0.26739171147346497,0.8642578125,0.3496328294277191,0.7372083216232159
308,0.267286092042923,0.8642578125,0.35279980301856995,0.7360728928282126
309,0.2857469618320465,0.8225911458333333,0.34857305884361267,0.7410720160454208
310,0.27134549617767334,0.8642578125,0.3504124879837036,0.7407682541060207
311,0.29777660965919495,0.790798611111111,0.3583332896232605,0.7304447247000446
312,0.2744646668434143,0.8434244791666666,0.3458986282348633,0.7319516540394204
313,0.2986317574977875,0.7960069444444444,0.3514874577522278,0.7282657049412373
314,0.2528526782989502,0.8486328125,0.3476054072380066,0.7456583428391942
315,0.3272225558757782,0.8402994791666666,0.3645157516002655,0.7423000580979309
316,0.3119502365589142,0.8017578125,0.37126246094703674,0.7203897801371214
317,0.2613827884197235,0.8642578125,0.348991721868515,0.7489893006914288
318,0.3381730914115906,0.8324869791666666,0.37274134159088135,0.750069263872456
319,0.2649089992046356,0.8642578125,0.3770384192466736,0.7284715432321821
320,0.2916920781135559,0.8330078125,0.3618079423904419,0.74057553655958
321,0.26454973220825195,0.8798828125,0.3575597405433655,0.7356412937928902
322,0.2609180212020874,0.8642578125,0.3584635853767395,0.7390071556693905
323,0.251345694065094,0.8772786458333334,0.3566722273826599,0.7338442285649738
324,0.2520182728767395,0.8772786458333334,0.3655409812927246,0.734324058034165
325,0.2534748911857605,0.8616536458333334,0.357822448015213,0.7394786945717802
326,0.24192719161510468,0.8772786458333334,0.35287711024284363,0.7306291319988133
327,0.2636798322200775,0.8434244791666666,0.35873445868492126,0.7386939867657959
328,0.26069340109825134,0.8798828125,0.3598339557647705,0.7338590462925575
329,0.26000720262527466,0.8460286458333334,0.35326921939849854,0.7310947671320019
330,0.2521805465221405,0.8616536458333334,0.35243329405784607,0.7398148044823584
331,0.2657507061958313,0.8168402777777778,0.3466923236846924,0.7299064066351307
332,0.24291351437568665,0.8611111111111112,0.35960131883621216,0.7287544016267427
333,0.27389857172966003,0.7965494791666666,0.3541998565196991,0.7245774861466358
334,0.24635837972164154,0.8486328125,0.3491627275943756,0.7406069939713563
335,0.2761247456073761,0.7738095238095237,0.43425339460372925,0.6467209957103578
336,0.908453106880188,0.5405982905982906,0.6014659404754639,0.489835321790109
337,0.7055857181549072,0.5430194805194805,0.43797919154167175,0.5226775006251958
338,0.5496498942375183,0.5284455128205129,0.40340977907180786,0.5590441481620559
339,0.4817503094673157,0.6624053030303031,0.37750545144081116,0.6305000894495577
340,0.4418807327747345,0.6263020833333334,0.36270835995674133,0.6935914036711912
341,0.4222847819328308,0.7533854166666666,0.3629315197467804,0.7233762268070785
342,0.4020255208015442,0.7850694444444444,0.35797491669654846,0.7330665094361909
343,0.38894540071487427,0.7850694444444444,0.3554702401161194,0.7383332408332414
344,0.3787403106689453,0.8006944444444444,0.3526172637939453,0.7401300108480964
345,0.3705100119113922,0.8006944444444444,0.3498457670211792,0.7454646387891074
346,0.363211452960968,0.8006944444444444,0.34847328066825867,0.7456025874243964
347,0.35796236991882324,0.8038194444444444,0.3479289412498474,0.747038265123372
348,0.35145509243011475,0.8194444444444444,0.346568763256073,0.745265215477982
349,0.3471560478210449,0.8350694444444444,0.34585338830947876,0.7469791634685257
350,0.3426250219345093,0.8350694444444444,0.3453267514705658,0.7452061138231356
351,0.3382565379142761,0.8350694444444444,0.3448069393634796,0.7469158402669046
352,0.3342222571372986,0.8350694444444444,0.3443267345428467,0.7474108166262426
353,0.3303802013397217,0.8350694444444444,0.34387150406837463,0.7486042154260244
354,0.32673051953315735,0.8350694444444444,0.34344545006752014,0.7485985325745969
355,0.3232220709323883,0.8350694444444444,0.3430496156215668,0.7502936459718378
356,0.3198234438896179,0.8356119791666666,0.3426852524280548,0.7467989727963135
357,0.3165076673030853,0.8356119791666666,0.34235236048698425,0.7432528735055334
358,0.3132585287094116,0.8356119791666666,0.3420447111129761,0.7414798238601433
359,0.31006962060928345,0.8356119791666666,0.34174737334251404,0.7432528735055334
360,0.306939959526062,0.8356119791666666,0.34143707156181335,0.743444953883784
361,0.3038637042045593,0.8512369791666666,0.3410843312740326,0.7409331335528148
362,0.3008006811141968,0.8585069444444444,0.3406566381454468,0.7423993092211182
363,0.29760465025901794,0.8585069444444444,0.340122252702713,0.738853209930338
364,0.2939915359020233,0.8585069444444444,0.339472234249115,0.7406376252785831
365,0.29000598192214966,0.8428819444444444,0.3387138247489929,0.7406376252785831
366,0.28636521100997925,0.8428819444444444,0.338020384311676,0.7384756521059714
367,0.2824263870716095,0.8428819444444444,0.33741334080696106,0.7408077049034498
368,0.27799394726753235,0.8585069444444444,0.3366756737232208,0.7438337096315821
369,0.26924198865890503,0.8585069444444444,0.3369271159172058,0.7341821318948981
370,0.2736780643463135,0.8428819444444444,0.3441024422645569,0.7150955693242932
371,0.3022737503051758,0.7600911458333333,0.6192817687988281,0.4981872186127506
372,0.36647215485572815,0.7118844696969696,0.34332475066185,0.6955977601988244
373,0.29862773418426514,0.7934244791666666,0.3766181468963623,0.6594685638435642
374,0.4053099453449249,0.6184895833333334,0.5231896042823792,0.46693915767054106
375,0.4630517363548279,0.5816761363636364,0.37261462211608887,0.6657045604120078
376,0.30796611309051514,0.7835069444444445,0.3519769012928009,0.7166258731418309
377,0.2786943018436432,0.8585069444444444,0.3387942314147949,0.7334887723584536
378,0.31130504608154297,0.800956530448718,0.365395724773407,0.6546353985848666
379,0.2997467815876007,0.8038411458333332,0.3441016972064972,0.7209878793389433
380,0.265254944562912,0.8746744791666666,0.3384624421596527,0.7302698970651101
381,0.2545449137687683,0.8434244791666666,0.33628055453300476,0.7363078602839245
382,0.24691998958587646,0.8428819444444444,0.3359784781932831,0.7368656328895694
383,0.2340526282787323,0.8720703125,0.3363212049007416,0.7370647619716773
384,0.23573458194732666,0.8871527777777778,0.33871370553970337,0.7386310616097854
385,0.22146032750606537,0.8720703125,0.3365911543369293,0.7375070619884454
386,0.2271401286125183,0.8929036458333334,0.3411429226398468,0.740921846081421
387,0.23137648403644562,0.8720703125,0.34262815117836,0.7419467761356064
388,0.22265684604644775,0.8715277777777778,0.3433329164981842,0.7309889125846576
389,0.24298366904258728,0.8715277777777778,0.3460182845592499,0.7386958780974742
390,0.27054670453071594,0.8580729166666666,0.3528923988342285,0.7357305913156978
391,0.2537508010864258,0.80859375,0.3398232161998749,0.6917021606250334
392,0.3194792866706848,0.7382812499999999,0.3557603657245636,0.6956582700199726
393,0.24268335103988647,0.8663194444444444,0.34329792857170105,0.7329012540847649
394,0.2278406023979187,0.8819444444444444,0.34506624937057495,0.7309467837127412
395,0.22350168228149414,0.8512369791666666,0.3449466824531555,0.7338795409673069
396,0.2628611922264099,0.8090277777777778,0.3523578345775604,0.7339118102150018
397,0.23564982414245605,0.8715277777777778,0.3467314839363098,0.7351249297392917
398,0.21975964307785034,0.9027777777777778,0.34595608711242676,0.743723868723869
399,0.2145644575357437,0.8871527777777778,0.3463357090950012,0.7395926374649782
400,0.20879271626472473,0.9033203125,0.34774574637413025,0.7411328525690232
401,0.20453818142414093,0.8936011904761905,0.3467246890068054,0.7436044058384487
402,0.2027355134487152,0.8923611111111112,0.34927546977996826,0.7388665314197231
403,0.19791319966316223,0.8929036458333334,0.3501845896244049,0.7390725753757671
404,0.19334201514720917,0.9189453125,0.3518783450126648,0.7350591562692629
405,0.19380760192871094,0.9196428571428571,0.3506685495376587,0.7409277557548836
406,0.20388060808181763,0.8506944444444444,0.3603214621543884,0.7388657097433695
407,0.18538163602352142,0.8883928571428571,0.35207587480545044,0.737197337237231
408,0.22498193383216858,0.9189453125,0.3467835485935211,0.7353417017379784
409,0.3181092441082001,0.82421875,0.35416558384895325,0.7329336069761605
410,0.2921825349330902,0.8043619791666666,0.3508055806159973,0.7322159814181095
411,0.24191595613956451,0.8408203125,0.35050973296165466,0.7220951231589533
412,0.23298530280590057,0.8623511904761905,0.3504248857498169,0.7298645700241447
413,0.22088950872421265,0.8779761904761905,0.3518293797969818,0.7251632498706968
414,0.2144550085067749,0.9014136904761905,0.3535850942134857,0.7273584325446032
415,0.21006272733211517,0.8936011904761905,0.34811931848526,0.7284991919034474
416,0.19851647317409515,0.9040178571428571,0.3493608832359314,0.7296587100842423
417,0.18857067823410034,0.9196428571428571,0.34829986095428467,0.7292444843375696
418,0.1798482984304428,0.9300595238095237,0.3511173129081726,0.7286548749713646
419,0.17298726737499237,0.9300595238095237,0.35616007447242737,0.7263535691062291
420,0.18272298574447632,0.9014136904761905,0.3532487750053406,0.7328576358629554
421,0.1760787069797516,0.9196428571428571,0.3527294993400574,0.7343158826004573
422,0.17400714755058289,0.9300595238095237,0.34965693950653076,0.738117228516165
423,0.19659322500228882,0.91796875,0.35941967368125916,0.7273729914687366
424,0.18795566260814667,0.9007161458333334,0.3604132831096649,0.7310488713414249
425,0.18269862234592438,0.9040178571428571,0.35570409893989563,0.7363706501339484
426,0.18550093472003937,0.9007161458333334,0.3519282341003418,0.7248220947689038
427,0.17555436491966248,0.9040178571428571,0.36113211512565613,0.7390151933370022
428,0.16365045309066772,0.9014136904761905,0.3636701703071594,0.7370081701198725
429,0.16113516688346863,0.9144345238095237,0.36098968982696533,0.7464922833273899
430,0.1525110900402069,0.9040178571428571,0.36397355794906616,0.7290660654357467
431,0.15683011710643768,0.9144345238095237,0.36481690406799316,0.7372561663120176
432,0.15675301849842072,0.8883928571428571,0.3715161681175232,0.7342477410296562
433,0.152116596698761,0.9144345238095237,0.3676700294017792,0.7280572338418082
434,0.15573397278785706,0.8893229166666666,0.37168240547180176,0.7345505312260633
435,0.26822611689567566,0.868923611111111,0.42454835772514343,0.6957891684753392
436,0.46128153800964355,0.7491319444444443,0.5340868830680847,0.5084048206521611
437,0.6278474926948547,0.5489583333333333,0.4137866497039795,0.7203601874878472
438,0.44370508193969727,0.7485119047619047,0.374858558177948,0.7125155523160848
439,0.4455452859401703,0.74609375,0.37095069885253906,0.6980153996909321
440,0.4114707112312317,0.748342803030303,0.36660417914390564,0.6961237782115447
441,0.3537445664405823,0.7816761363636363,0.3653945028781891,0.7176960937998177
442,0.34006819128990173,0.81640625,0.35965481400489807,0.7255813699696683
443,0.3315313458442688,0.8111111111111111,0.35719335079193115,0.7327787013026379
444,0.3232687711715698,0.8142361111111112,0.3555675446987152,0.7325099294913129
445,0.3160470128059387,0.8267361111111111,0.3530973792076111,0.7373878943160863
446,0.3098195493221283,0.8304036458333334,0.3515423834323883,0.738244164720229
447,0.30437159538269043,0.8460286458333334,0.3503548204898834,0.7391258185274148
448,0.30055657029151917,0.8460286458333334,0.34960508346557617,0.745921242370711
449,0.2964992821216583,0.8460286458333334,0.34937530755996704,0.7456257340964793
450,0.2926003932952881,0.8616536458333334,0.34761935472488403,0.7428817286928993
451,0.2886165678501129,0.8616536458333334,0.34806501865386963,0.741933969300991
452,0.28413090109825134,0.8616536458333334,0.34810638427734375,0.7405258443290362
453,0.27859681844711304,0.8772786458333334,0.3495798408985138,0.7301120461492806
454,0.2828019857406616,0.8611111111111112,0.34879550337791443,0.7308954136879674
455,0.28466591238975525,0.8402777777777778,0.35264456272125244,0.7232055956258089
456,0.28823745250701904,0.8298611111111112,0.35522106289863586,0.737555760335016
457,0.27692779898643494,0.8551136363636364,0.35303744673728943,0.7219923147183789
458,0.2678494453430176,0.8460286458333334,0.3583986461162567,0.7402291286333843
459,0.264114111661911,0.8720703125,0.35455089807510376,0.7200833607881483
460,0.2605148255825043,0.8720703125,0.358504980802536,0.7369810321672028
461,0.2553153336048126,0.8772786458333334,0.35342109203338623,0.7317298211048215
462,0.2516094744205475,0.8772786458333334,0.35503044724464417,0.7320683891561556
463,0.2487318515777588,0.8876953125,0.3568308353424072,0.7330083327822694
464,0.24574413895606995,0.8876953125,0.3569384813308716,0.7301756748964201
465,0.2438422590494156,0.8876953125,0.35841354727745056,0.7294261584554143
466,0.2414764165878296,0.8883928571428571,0.3595427870750427,0.7294369042108408
467,0.23892821371555328,0.8883928571428571,0.35976648330688477,0.729449568851165
468,0.2370520830154419,0.8883928571428571,0.3613000810146332,0.7285066484933511
469,0.23388518393039703,0.8883928571428571,0.36056530475616455,0.7260515631925211
470,0.23123037815093994,0.8883928571428571,0.3618744909763336,0.7212349136285312
471,0.22675037384033203,0.8727678571428571,0.36385378241539,0.7191194857152309
472,0.22256892919540405,0.8876953125,0.3639063835144043,0.7170351781787957
473,0.2220340520143509,0.8876953125,0.3646458089351654,0.7204305195395625
474,0.2216663956642151,0.885267857142857,0.3678539991378784,0.7208266413452588
475,0.21294429898262024,0.8876953125,0.37426361441612244,0.7216202109553178
476,0.2122693657875061,0.8883928571428571,0.36983299255371094,0.7216445660328642
477,0.2140941023826599,0.8876953125,0.37591931223869324,0.7319654262207459
478,0.2746237814426422,0.8454861111111112,0.365215927362442,0.7255053157047839
479,0.24937723577022552,0.8232886904761905,0.3682154417037964,0.7099837608215271
480,0.21546117961406708,0.8545386904761905,0.367063969373703,0.7056670201351055
481,0.20467424392700195,0.8689453125,0.37404361367225647,0.7028297790664817
482,0.20176315307617188,0.8493303571428571,0.37498724460601807,0.7093586225634103
483,0.1997653841972351,0.8876953125,0.37464824318885803,0.6981481402758005
484,0.2577485144138336,0.8232886904761905,0.3782213628292084,0.7125182067735265
485,0.24091443419456482,0.8675595238095237,0.3798109292984009,0.7048657700652387
486,0.345242977142334,0.7914117132867132,0.4262827932834625,0.7214890261432821
487,0.310603529214859,0.7217261904761904,0.41900020837783813,0.7032806781477
488,0.28319403529167175,0.80859375,0.403675377368927,0.7358396115311014
489,0.3485252857208252,0.8007812499999999,0.40515145659446716,0.7232943922704569
490,0.3224719762802124,0.7979517227564102,0.39369842410087585,0.6955559171915559
491,0.29729071259498596,0.8337053571428571,0.3859378695487976,0.7272458579639437
492,0.2978077530860901,0.8527777777777777,0.3857502043247223,0.7432191842830147
493,0.3086532950401306,0.86328125,0.4157559871673584,0.5859397620700809
494,0.45716217160224915,0.5886418269230769,0.38970571756362915,0.6744968288540986
495,0.31981250643730164,0.8304036458333334,0.3727450668811798,0.7335441789298172
496,0.3060714304447174,0.8408203125,0.37126702070236206,0.7382382639031576
497,0.2823972702026367,0.8720703125,0.3675091862678528,0.7293700438647247
498,0.27424556016921997,0.8767361111111112,0.36675503849983215,0.7284529940115049
499,0.27073511481285095,0.8720703125,0.3668888807296753,0.7351962212334554
500,0.2610739767551422,0.8850911458333334,0.3688609302043915,0.7162601602495224
501,0.2600998878479004,0.8616536458333334,0.3674699664115906,0.7170614865827635
502,0.247433602809906,0.8857886904761905,0.3636004328727722,0.7120191294127465
503,0.2423342615365982,0.9014136904761905,0.36242279410362244,0.7109605396573483
504,0.2401084005832672,0.8857886904761905,0.3595935106277466,0.7119455692062077
505,0.24334639310836792,0.8689236111111112,0.36289364099502563,0.7068412792880879
506,0.24646610021591187,0.8642578125,0.36883458495140076,0.7082540828950405
507,0.24757170677185059,0.8402777777777778,0.35698843002319336,0.7205889136474244
508,0.2533183991909027,0.8512369791666666,0.36119309067726135,0.7333487405029961
509,0.24647091329097748,0.80859375,0.3556501269340515,0.6954452723202724
510,0.23500387370586395,0.9007161458333334,0.36321425437927246,0.7179535584588778
511,0.26200610399246216,0.8694661458333334,0.375389963388443,0.7117224727597071
512,0.23623128235340118,0.8857886904761905,0.37246382236480713,0.7281570478378993
513,0.24084320664405823,0.8720703125,0.37043794989585876,0.7408804847634636
514,0.2265186309814453,0.9007161458333334,0.36375540494918823,0.7192062537541261
515,0.21924200654029846,0.9040178571428571,0.3631269335746765,0.7275081316437703
516,0.2111373096704483,0.9033203125,0.35974088311195374,0.72748361419904
517,0.20567412674427032,0.9014136904761905,0.3590201139450073,0.7241604991737974
518,0.20484529435634613,0.9040178571428571,0.35922864079475403,0.7256610868445977
519,0.19928093254566193,0.9014136904761905,0.36086148023605347,0.7159907802992914
520,0.19485533237457275,0.9040178571428571,0.3626847267150879,0.7192921971645381
521,0.19265376031398773,0.9014136904761905,0.3592432737350464,0.7271309157745331
522,0.20944029092788696,0.9033203125,0.35923707485198975,0.7387826731975671
523,0.21691693365573883,0.8727678571428571,0.3548499643802643,0.7306202903676311
524,0.20024223625659943,0.8798828125,0.35038143396377563,0.7242386450232198
525,0.18664762377738953,0.9014136904761905,0.35430362820625305,0.7131938727151497
526,0.18110552430152893,0.9196428571428571,0.3557402789592743,0.7173712014935422
527,0.1771448403596878,0.9196428571428571,0.35632503032684326,0.7108990241437054
528,0.1756920963525772,0.9196428571428571,0.36417147517204285,0.7103741500815971
529,0.20917603373527527,0.9033203125,0.36492860317230225,0.728198979901108
530,0.21226905286312103,0.8590494791666666,0.3563319146633148,0.7163980739512659
531,0.1916847974061966,0.9189453125,0.35756728053092957,0.7071194506832807
532,0.19462034106254578,0.9040178571428571,0.36057737469673157,0.7308131432200583
533,0.16897273063659668,0.9040178571428571,0.3581986427307129,0.7268544910566194
534,0.16399706900119781,0.9196428571428571,0.35805341601371765,0.7283560794996972
535,0.16954608261585236,0.8883928571428571,0.361397385597229,0.72316984778421
536,0.1916227638721466,0.9196428571428571,0.36707043647766113,0.7198736035438167
537,0.20754694938659668,0.8356119791666666,0.36778995394706726,0.7176212223552654
538,0.21682016551494598,0.8251953125,0.36252421140670776,0.6885579348744246
539,0.17660531401634216,0.8330078125,0.36520200967788696,0.6955143989186545
540,0.17447061836719513,0.8893229166666666,0.36079955101013184,0.7088638794223904
541,0.16354882717132568,0.8883928571428571,0.36398711800575256,0.7117711622498861
542,0.18021757900714874,0.9040178571428571,0.3681093156337738,0.7134397655142339
543,0.17206761240959167,0.8883928571428571,0.37264880537986755,0.7014184490647263
544,0.14972226321697235,0.9040178571428571,0.37347957491874695,0.6874902584610032
545,0.20500296354293823,0.8142361111111112,0.3750123381614685,0.6995172838390927
546,0.21967166662216187,0.7913411458333334,0.3754993975162506,0.7028756551761876
547,0.21725811064243317,0.8772786458333334,0.4322616755962372,0.652158234299192
548,0.5771440863609314,0.6705729166666665,0.446242094039917,0.6981465520295311
549,0.40810516476631165,0.6095703124999999,0.43559926748275757,0.6623607061771958
550,0.37877362966537476,0.7335069444444444,0.4204830825328827,0.7218388831420751
551,0.3377508521080017,0.7881944444444444,0.40396207571029663,0.7081502348124693
552,0.3647719919681549,0.7548828124999999,0.4030575156211853,0.7078731424210152
553,0.4545590281486511,0.7613636363636364,0.43033695220947266,0.7377366595185754
554,0.40183818340301514,0.751736111111111,0.41783684492111206,0.6900986228113891
555,0.339145302772522,0.8038194444444444,0.4225780665874481,0.7093452420314129
556,0.30543458461761475,0.8116536458333332,0.39682021737098694,0.7127619223762848
557,0.3234311640262604,0.8272786458333332,0.40049320459365845,0.7047289840773888
558,0.3568735718727112,0.7179036458333332,0.413047194480896,0.6872457570994809
559,0.3510296940803528,0.814236111111111,0.4285469949245453,0.5983968179180947
560,0.3279997706413269,0.7152777777777777,0.4120710790157318,0.6411150605698479
561,0.3113558292388916,0.7887369791666666,0.38081109523773193,0.7289219965416779
562,0.25798046588897705,0.7725694444444444,0.37671998143196106,0.7041901336449214
563,0.23958373069763184,0.7835286458333334,0.3849467635154724,0.7042131405828218
564,0.23519913852214813,0.7842261904761905,0.3958079516887665,0.6950782718069957
565,0.23710131645202637,0.8304036458333334,0.3962496519088745,0.7162790150157177
566,0.21875818073749542,0.8623511904761905,0.39184239506721497,0.7019748474535712
567,0.2146306335926056,0.7913411458333334,0.4081626236438751,0.6907583152662945
568,0.5628100633621216,0.7274305555555555,0.4519520103931427,0.7075079899415008
569,0.4651154577732086,0.6137152777777777,0.46437427401542664,0.7131320290229871
570,0.42500051856040955,0.7096354166666666,0.4508611559867859,0.7530077364518857
571,0.33876579999923706,0.8294270833333333,0.4384545683860779,0.7428574508627704
572,0.37126147747039795,0.7218883547008547,0.4350297749042511,0.717765702087511
573,0.5544291734695435,0.6575520833333333,0.7525978088378906,0.4030916901262649
574,0.7476439476013184,0.5543619791666666,0.4313815236091614,0.5979463336112274
575,0.4900308847427368,0.6669146825396826,0.39084598422050476,0.6845880227928105
576,0.4410941004753113,0.6913194444444444,0.3737688362598419,0.7171389086681645
577,0.39021679759025574,0.7074652777777778,0.3629657030105591,0.7246663103445025
578,0.3720638155937195,0.7355902777777777,0.3587299585342407,0.7169830952144787
579,0.36513811349868774,0.7069444444444444,0.3563600480556488,0.7215874619863987
580,0.35591697692871094,0.7225694444444444,0.35465505719184875,0.7236904958713474
581,0.3474268913269043,0.7381944444444444,0.35353708267211914,0.7286010207286807
582,0.3402502238750458,0.7538194444444444,0.35266777873039246,0.727418987631754
583,0.3341061472892761,0.7694444444444444,0.35190141201019287,0.7282950127099068
584,0.32855087518692017,0.7725694444444444,0.3511556386947632,0.729516798705629
585,0.32286813855171204,0.7881944444444444,0.3503251075744629,0.7294153733382462
586,0.31721097230911255,0.7881944444444444,0.34936583042144775,0.7335286753238885
587,0.3119331896305084,0.8038194444444444,0.34844353795051575,0.7372878003596093
588,0.30790889263153076,0.8038194444444444,0.3477376401424408,0.7355400799948675
589,0.30391862988471985,0.8194444444444444,0.34704411029815674,0.7403192227394358
590,0.2974819839000702,0.8277994791666666,0.3463013470172882,0.7391371896425092
591,0.29387927055358887,0.8277994791666666,0.34587547183036804,0.7391371896425092
592,0.28903087973594666,0.8277994791666666,0.3452621400356293,0.737898517459688
593,0.2852003574371338,0.8434244791666666,0.3450644314289093,0.7369493730265011
594,0.28160789608955383,0.8277994791666666,0.34467649459838867,0.7358474853554645
595,0.27734315395355225,0.8434244791666666,0.3444750905036926,0.7365267484682382
596,0.27349749207496643,0.8434244791666666,0.34514886140823364,0.7324557701951323
597,0.2760852575302124,0.7960069444444444,0.3468977212905884,0.7358700322530113
598,0.2672526240348816,0.8121744791666666,0.3457786440849304,0.7387372940298474
599,0.26097190380096436,0.8590494791666666,0.34604668617248535,0.737538374745822
600,0.2589595913887024,0.8434244791666666,0.34506192803382874,0.739889776299351
601,0.2521703243255615,0.8590494791666666,0.34541764855384827,0.7361541807286491
602,0.24923330545425415,0.8590494791666666,0.3451649844646454,0.7356750223771504
603,0.24554002285003662,0.8590494791666666,0.34440234303474426,0.7386498056710826
604,0.2449163794517517,0.8585069444444444,0.3441789150238037,0.7337471826833533
605,0.24318556487560272,0.8434244791666666,0.3420654237270355,0.7384490711219437
606,0.24135228991508484,0.8585069444444444,0.34461426734924316,0.7242126214998561
607,0.24379873275756836,0.8121744791666666,0.345546156167984,0.7366358134576223
608,0.23321451246738434,0.8642578125,0.34438827633857727,0.736593100063845
609,0.22953632473945618,0.8746744791666666,0.343406617641449,0.7390679115014226
610,0.22854015231132507,0.8585069444444444,0.34443217515945435,0.7300426991251465
611,0.2230631709098816,0.8798828125,0.34230148792266846,0.7395006200458333
612,0.21938025951385498,0.8590494791666666,0.3443240821361542,0.737098771008346
613,0.21584950387477875,0.8955078125,0.3424542546272278,0.7377120913956026
614,0.21661674976348877,0.8798828125,0.3448374271392822,0.7247330294803704
615,0.21723392605781555,0.8382161458333334,0.345523476600647,0.7404752561268523
616,0.20959189534187317,0.8850911458333334,0.34450849890708923,0.7394735819735824
617,0.20459413528442383,0.9007161458333334,0.34353139996528625,0.7335133055478806
618,0.20325583219528198,0.8694661458333334,0.3453243672847748,0.7343234243101269
619,0.19832520186901093,0.8850911458333334,0.3433915972709656,0.7338194700295768
620,0.19742152094841003,0.8850911458333334,0.34553804993629456,0.7300558528351088
621,0.19374661147594452,0.8798828125,0.3435371518135071,0.7343253520514164
622,0.19460129737854004,0.8642578125,0.34766247868537903,0.7312378859320354
623,0.1913437694311142,0.8486328125,0.34360677003860474,0.7379452349266183
624,0.19636236131191254,0.8486328125,0.359858900308609,0.6908282266393975
625,0.2998470962047577,0.7295272435897435,0.43348196148872375,0.7337811612146723
626,0.4161533713340759,0.8106398809523808,0.5333414077758789,0.47997727105439886
627,0.5404461026191711,0.5716517857142857,0.3812961280345917,0.7361818520329163
628,0.40450820326805115,0.689236111111111,0.402069091796875,0.6997011189165445
629,0.36654168367385864,0.7314453124999999,0.3731367588043213,0.7289153065216896
630,0.2946756184101105,0.7340494791666666,0.366790235042572,0.7371533480310077
631,0.27823078632354736,0.7652994791666666,0.36499327421188354,0.7439919910664595
632,0.2527238130569458,0.7991536458333333,0.361977219581604,0.754729300447386
633,0.23991626501083374,0.8095703125,0.35941097140312195,0.7531204881603824
634,0.2462201863527298,0.8772786458333334,0.3612027168273926,0.756700069040495
635,0.25617241859436035,0.8408203125,0.36618882417678833,0.7551469993757233
636,0.24658343195915222,0.9033203125,0.3532181978225708,0.7409658948222783
637,0.3102172315120697,0.759548611111111,0.38833755254745483,0.7321690627142755
638,0.29967623949050903,0.8038194444444444,0.4106043875217438,0.7444113874698984
639,0.3114008903503418,0.7725694444444444,0.38666051626205444,0.7435018778502823
640,0.29353728890419006,0.8324869791666666,0.3876098096370697,0.7473776907686485
641,0.26463770866394043,0.8277994791666666,0.36152535676956177,0.7470131405237791
642,0.24267175793647766,0.8616536458333334,0.351359099149704,0.7540381043306575
643,0.22757309675216675,0.8772786458333334,0.35385990142822266,0.7496763879343669
644,0.3042454123497009,0.8225911458333333,0.36482277512550354,0.699205036492271
645,0.4356679916381836,0.6131510416666668,0.5024125576019287,0.5542327427300834
646,0.691786527633667,0.5043619791666667,0.4718168377876282,0.6140069731293135
647,0.4834853708744049,0.6471354166666667,0.4394456446170807,0.6451267256187472
648,0.4324798583984375,0.7252604166666667,0.41758430004119873,0.6559091071458099
649,0.413219153881073,0.7356770833333334,0.40392595529556274,0.6833353230693662
650,0.38940712809562683,0.75859375,0.39204567670822144,0.6991631049210842
651,0.37275227904319763,0.7690104166666666,0.3838013708591461,0.7055739891511174
652,0.35992205142974854,0.7690104166666666,0.37810254096984863,0.7118325946118503
653,0.34829315543174744,0.7877604166666666,0.3740590810775757,0.7196340130515666
654,0.33818507194519043,0.8190104166666666,0.3712184429168701,0.7218547360834598
655,0.32634878158569336,0.8419270833333332,0.3687463700771332,0.7329599626142184
656,0.295338898897171,0.8393229166666666,0.371818482875824,0.7209612712937182
657,0.28615763783454895,0.8294270833333333,0.37321192026138306,0.69909203040852
658,0.2708964943885803,0.8294270833333333,0.3693762421607971,0.7029108253842296
659,0.2621704936027527,0.83984375,0.3661263883113861,0.7073457226382759
660,0.2556239068508148,0.8402777777777778,0.364353746175766,0.7085924319966875
661,0.25134554505348206,0.8689236111111112,0.3618997633457184,0.7111929048099263
662,0.24490462243556976,0.8532986111111112,0.36043477058410645,0.712094908637462
663,0.2624836266040802,0.9001736111111112,0.36180469393730164,0.7337957698330041
664,0.23997166752815247,0.8845486111111112,0.3569793999195099,0.7120995631633933
665,0.23462697863578796,0.8521412037037037,0.35645726323127747,0.7168276955511
666,0.2517062723636627,0.8871527777777778,0.35842248797416687,0.7268004601781201
667,0.23027411103248596,0.8625578703703703,0.36997106671333313,0.6857763616407233
668,0.2413320243358612,0.83984375,0.35548320412635803,0.7260367021670217
669,0.22533513605594635,0.87890625,0.35770130157470703,0.7174280039306639
670,0.23008644580841064,0.88671875,0.36083897948265076,0.711589929475568
671,0.25775909423828125,0.7861328125,0.3942014276981354,0.6584104454450201
672,0.22907818853855133,0.85546875,0.37425756454467773,0.6889244448419987
673,0.2236378937959671,0.8642578125,0.36956435441970825,0.7007443526725445
674,0.21526505053043365,0.8819444444444444,0.3649376332759857,0.7039820527187555
675,0.2122667282819748,0.8798828125,0.364920973777771,0.7077371825377149
676,0.2071404606103897,0.8819444444444444,0.36369913816452026,0.7037856327085055
677,0.2054862380027771,0.8753720238095237,0.36548876762390137,0.7075077577072262
678,0.20145490765571594,0.8975694444444444,0.35971981287002563,0.7114954563757758
679,0.19864259660243988,0.8753720238095237,0.3608221709728241,0.7216935620526052
680,0.19534453749656677,0.8824869791666666,0.3562491536140442,0.7178080759862677
681,0.19463640451431274,0.8753720238095237,0.3564327359199524,0.7276762515459327
682,0.18899281322956085,0.8824869791666666,0.35448312759399414,0.7182464673821058
683,0.18954075872898102,0.8597470238095237,0.3567836284637451,0.7273444000837622
684,0.185344398021698,0.8824869791666666,0.3547714352607727,0.7235571732247266
685,0.184676393866539,0.8597470238095237,0.3573996424674988,0.7269608887959955
686,0.18270531296730042,0.8824869791666666,0.35413533449172974,0.7230888373840503
687,0.18200019001960754,0.8597470238095237,0.3558248281478882,0.7281429218929223
688,0.18025989830493927,0.8824869791666666,0.352477103471756,0.7232413542918863
689,0.1777583360671997,0.8658854166666666,0.35503116250038147,0.7269411882443803
690,0.1767885535955429,0.8824869791666666,0.3513500988483429,0.7269647585472055
691,0.17222680151462555,0.8971354166666666,0.35490497946739197,0.7285983077206487
692,0.1727469116449356,0.9137369791666666,0.35073235630989075,0.7266179422429424
693,0.16914238035678864,0.8971354166666666,0.3542178273200989,0.7287580770293541
694,0.1705854833126068,0.9137369791666666,0.35092103481292725,0.7289820084367957
695,0.16670362651348114,0.8971354166666666,0.3541426360607147,0.7312272213602006
696,0.1712128221988678,0.9137369791666666,0.34983792901039124,0.7316804914943214
697,0.16352055966854095,0.8971354166666666,0.3535158038139343,0.7335117276340685
698,0.16653446853160858,0.9137369791666666,0.35026535391807556,0.7358711885041677
699,0.15969309210777283,0.8971354166666666,0.3533026874065399,0.7299023051416673
700,0.16438692808151245,0.9144345238095237,0.35025304555892944,0.7356510186031465
701,0.15604740381240845,0.8971354166666666,0.353548526763916,0.7287202720447405
702,0.16427543759346008,0.9144345238095237,0.351932168006897,0.7354226909812019
703,0.15272840857505798,0.8997395833333333,0.3539906144142151,0.7287009232886895
704,0.16030369699001312,0.9144345238095237,0.35201749205589294,0.7331683850034918
705,0.15076003968715668,0.8945312499999999,0.3542090356349945,0.7245220938439026
706,0.1628006249666214,0.8988095238095237,0.35258400440216064,0.7404987811636751
707,0.1458655595779419,0.9127604166666666,0.352556973695755,0.7311607861208929
708,0.16600671410560608,0.9137369791666666,0.35583561658859253,0.7254898145589637
709,0.15111470222473145,0.8789062499999999,0.3507784903049469,0.7309800862061505
710,0.15641790628433228,0.9144345238095237,0.3550185561180115,0.736064208643996
711,0.1443271040916443,0.8971354166666666,0.3475284278392792,0.7429067135583097
712,0.16630986332893372,0.9196428571428571,0.3500467538833618,0.7357612044181193
713,0.14373375475406647,0.9127604166666666,0.3518242835998535,0.7325160527022233
714,0.15140482783317566,0.9144345238095237,0.3570426106452942,0.7370486261177753
715,0.13880404829978943,0.8997395833333333,0.35131382942199707,0.7354318548866426
716,0.15666861832141876,0.8831845238095237,0.3568950593471527,0.750226054481374
717,0.1412040889263153,0.8831597222222222,0.3518032133579254,0.7335693409230648
718,0.15418598055839539,0.9137369791666666,0.3619496524333954,0.734311996612529
719,0.1473376303911209,0.8550347222222222,0.35385221242904663,0.7345333690147525
720,0.1419086754322052,0.93359375,0.3514593839645386,0.732281855260579
721,0.13575392961502075,0.9045138888888888,0.35286352038383484,0.7335342154890033
722,0.13741517066955566,0.88671875,0.34954512119293213,0.7338010930165187
723,0.14087790250778198,0.9127604166666666,0.3628275394439697,0.7314793667719202
724,0.12686626613140106,0.9201388888888888,0.3554937243461609,0.7247525666807585
725,0.14652982354164124,0.8940972222222222,0.3662610352039337,0.7280456472211794
726,0.14739006757736206,0.8658854166666666,0.3563280701637268,0.7403792513632943
727,0.13155438005924225,0.9300595238095237,0.36000409722328186,0.7448952264244824
728,0.15532897412776947,0.8597470238095237,0.36104777455329895,0.7294783319517366
729,0.1427464634180069,0.9153645833333333,0.36641672253608704,0.740036577882323
730,0.12374812364578247,0.9357638888888888,0.3676474988460541,0.7369428901476777
731,0.13956528902053833,0.9153645833333333,0.36959612369537354,0.73703499022648
732,0.11848928779363632,0.9309895833333333,0.36298665404319763,0.7270866042940517
733,0.17140284180641174,0.8893229166666666,0.35921674966812134,0.7327053457771546
734,0.11848895251750946,0.9283854166666666,0.36998268961906433,0.724670944697541
735,0.12828008830547333,0.9137369791666666,0.36258137226104736,0.7323010564100996
736,0.11520646512508392,0.9309895833333333,0.36281901597976685,0.7395461871658685
737,0.11996546387672424,0.9300595238095237,0.36716073751449585,0.7263596258942009
738,0.10671117901802063,0.9257812499999999,0.36160919070243835,0.7308726099550572
739,0.11256849020719528,0.9144345238095237,0.366931289434433,0.7301912749386157
740,0.10436054319143295,0.9461805555555555,0.36086422204971313,0.7377757762332234
741,0.10991930216550827,0.9345238095238095,0.3692343533039093,0.7261381452471881
742,0.11428520083427429,0.8993055555555555,0.3649073541164398,0.7280795868827789
743,0.10987035930156708,0.9345238095238095,0.3698073625564575,0.7293427932390701
744,0.11759565025568008,0.9283854166666666,0.3696850538253784,0.7285499646137947
745,0.13237890601158142,0.8883928571428571,0.3751072883605957,0.726237282221325
746,0.3071294128894806,0.8154761904761905,0.43451249599456787,0.7383335016047786
747,0.23764008283615112,0.8727678571428571,0.39321044087409973,0.7026842193464538
748,0.3104753792285919,0.8069661458333333,0.40109965205192566,0.7292982352556825
749,0.23710361123085022,0.8163194444444444,0.3966839015483856,0.6918390140198657
750,0.18468543887138367,0.7842261904761904,0.37056320905685425,0.7310377044153644
751,0.1677481234073639,0.8831845238095237,0.382956862449646,0.7044081770278579
752,0.1483253538608551,0.7790178571428571,0.3721318244934082,0.7266865197450305
753,0.13248780369758606,0.8720703124999999,0.36892321705818176,0.7277053413489586
754,0.1546335369348526,0.8642113095238095,0.3691215217113495,0.7239295933577851
755,0.13632580637931824,0.9388020833333333,0.36092981696128845,0.7368668506434468
756,0.11775454878807068,0.9172453703703703,0.36704879999160767,0.7263267736007101
757,0.20717455446720123,0.8955078125,0.3725270628929138,0.743371893571362
758,0.1994820535182953,0.802662037037037,0.38314327597618103,0.6631613259671771
759,0.17689356207847595,0.7747395833333334,0.36390072107315063,0.6955669970297632
760,0.2705628275871277,0.7903645833333333,0.3839108645915985,0.7136268351427928
761,0.23583319783210754,0.7174479166666667,0.3613133430480957,0.7060844558317968
762,0.23148801922798157,0.7986111111111112,0.3523925542831421,0.7452719502719506
763,0.16544559597969055,0.8519345238095237,0.3499581813812256,0.7284389054601826
764,0.16611908376216888,0.8519345238095237,0.34853988885879517,0.7172151784385828
765,0.15491412580013275,0.8173828125,0.3566170036792755,0.7411296588557229
766,0.1379811018705368,0.8981119791666666,0.34239062666893005,0.7381757082554957
767,0.12704145908355713,0.8997395833333333,0.34166163206100464,0.733626971432823
768,0.11802325397729874,0.9248511904761904,0.38526102900505066,0.7115369303667178
769,0.4915109872817993,0.7491536458333332,0.4987221956253052,0.7435873080819891
770,0.4737699031829834,0.7152777777777778,0.5075463056564331,0.6735617140936291
771,0.582528829574585,0.5720486111111112,0.61955726146698,0.5348274243487007
772,0.44015073776245117,0.6097005208333333,0.5078008770942688,0.5414206464339443
773,0.7592828869819641,0.5151289682539683,0.6333823800086975,0.5083323689706668
774,0.568740725517273,0.5342881944444445,0.4674997925758362,0.6619540349327582
775,0.4286513328552246,0.7225694444444444,0.4023471474647522,0.7504847846204232
776,0.37183523178100586,0.7856119791666666,0.38390061259269714,0.7527027203489974
777,0.35782721638679504,0.7856119791666666,0.3800397217273712,0.7525773605826803
778,0.34441688656806946,0.8142578125,0.3782310485839844,0.7508202081606342
779,0.33463776111602783,0.8090494791666666,0.3763987123966217,0.7462084118600081
780,0.3260493278503418,0.8090494791666666,0.3745831847190857,0.7478548913655301
781,0.3191772401332855,0.8246744791666666,0.3724374771118164,0.7442282185899213
782,0.3122464716434479,0.8246744791666666,0.3717708885669708,0.7442988483148062
783,0.47790586948394775,0.7314453125,0.5521849989891052,0.5153248257193297
784,0.585244357585907,0.4613222064393939,0.5067633986473083,0.46743610949727954
785,0.5334349870681763,0.5639105902777777,0.434765100479126,0.5860689851913257
786,0.4528602957725525,0.6095703125,0.4300175905227661,0.598853541060988
787,0.4415113031864166,0.6585286458333333,0.4099389612674713,0.630140505672421
788,0.4513646960258484,0.6611328125,0.4142315089702606,0.6492220929189015
789,0.4196266829967499,0.6741536458333333,0.4183313250541687,0.630996889733592
790,0.41896525025367737,0.6793619791666666,0.39344391226768494,0.6832332934992515
791,0.4046643078327179,0.7314453125,0.38709133863449097,0.6916644879942759
792,0.38454246520996094,0.7835286458333334,0.3870398998260498,0.6969146377657022
793,0.3783186674118042,0.7991536458333334,0.38783711194992065,0.6931469072692484
794,0.3721442222595215,0.7991536458333334,0.38740622997283936,0.6972957504473468
795,0.36881688237190247,0.8043619791666666,0.3859047293663025,0.6988086878645396
796,0.3627488911151886,0.8043619791666666,0.38158369064331055,0.6984638421074597
797,0.363742470741272,0.8043619791666666,0.3859863579273224,0.6977629300368668
798,0.35429686307907104,0.8043619791666666,0.3828684985637665,0.7019570569304617
799,0.35437846183776855,0.8043619791666666,0.37989792227745056,0.704694080545145
800,0.3498198091983795,0.8043619791666666,0.37784677743911743,0.7043679119344021
801,0.3461996912956238,0.8043619791666666,0.3789556324481964,0.7068362990437466
802,0.3418246805667877,0.8095703125,0.3740485906600952,0.7114453080410534
803,0.34331801533699036,0.8095703125,0.3726634681224823,0.7134129818172377
804,0.3477438688278198,0.8095703125,0.388405442237854,0.6976846351048488
805,0.3861534297466278,0.7777777777777778,0.3911392390727997,0.7170670843144253
806,0.3987666666507721,0.7574869791666666,0.376109778881073,0.7241441970165381
807,0.3869754672050476,0.8038194444444444,0.368592768907547,0.7341325833347114
808,0.34697824716567993,0.814236111111111,0.36392852663993835,0.7408709326528481
809,0.3516262173652649,0.826736111111111,0.36268603801727295,0.7477341487314898
810,0.3416406810283661,0.8199869791666666,0.36398348212242126,0.7446506212463665
811,0.34219756722450256,0.8356119791666666,0.36758172512054443,0.7428760389531671
812,0.4061289131641388,0.790829613095238,0.3787020444869995,0.7439944501912594
813,0.3641057312488556,0.8043619791666666,0.360284686088562,0.7485215739737023
814,0.327686607837677,0.8043619791666666,0.3639501631259918,0.7428000289702423
815,0.31610509753227234,0.8356119791666666,0.3643340468406677,0.7425207574143751
816,0.3188517689704895,0.8356119791666666,0.3657640516757965,0.7438027004516371
817,0.3650023639202118,0.8402777777777778,0.3712615370750427,0.7457730360655902
818,0.3220892548561096,0.8199869791666666,0.36515679955482483,0.738184958264746
819,0.3077215254306793,0.8199869791666666,0.36612603068351746,0.7454166302570563
820,0.29542624950408936,0.8356119791666666,0.3651200234889984,0.7479584885169998
821,0.2958400845527649,0.8199869791666666,0.36527103185653687,0.7508124435651038
822,0.30616652965545654,0.8199869791666666,0.36656880378723145,0.750483121094824
823,0.3749123215675354,0.7981770833333333,0.3729475736618042,0.7491061839067166
824,0.32904481887817383,0.8356119791666666,0.3606754541397095,0.7485474124968812
825,0.31051111221313477,0.8199869791666666,0.36790362000465393,0.7470014963366033
826,0.30453160405158997,0.8246527777777778,0.3631296157836914,0.750717365278536
827,0.296134889125824,0.8590494791666666,0.364679217338562,0.751156669374755
828,0.28853338956832886,0.8434244791666666,0.36605969071388245,0.751080159989735
829,0.281690388917923,0.8356119791666666,0.36611950397491455,0.752853209635125
830,0.28277942538261414,0.8408203125,0.3660864531993866,0.7506124957587729
831,0.2766771614551544,0.8434244791666666,0.36647552251815796,0.750956583802329
832,0.27546393871307373,0.8564453125,0.3666176199913025,0.7531373522065018
833,0.3035697340965271,0.8246527777777778,0.3652789294719696,0.7552514029508716
834,0.2983112335205078,0.8199869791666666,0.36803266406059265,0.7505428722184048
835,0.36901599168777466,0.8002604166666666,0.37950393557548523,0.7466035127205346
836,0.3029833734035492,0.8649553571428571,0.36175337433815,0.7416580425091069
837,0.29811835289001465,0.8408203125,0.36581581830978394,0.7498259497594608
838,0.31702250242233276,0.8246527777777778,0.36493319272994995,0.7473826291911404
839,0.2815972566604614,0.8199869791666666,0.3691270053386688,0.7229508794003481
840,0.29194313287734985,0.8102678571428571,0.36892226338386536,0.7449930147669515
841,0.28461992740631104,0.7647569444444444,0.36661532521247864,0.7506589381855345
842,0.27494871616363525,0.8389136904761905,0.3653293251991272,0.7475724462692553
843,0.39538371562957764,0.798611111111111,0.37176433205604553,0.7212635473273777
844,0.30782556533813477,0.8033854166666666,0.3612664043903351,0.7437742984950437
845,0.28976380825042725,0.8350694444444444,0.3579423129558563,0.7369543695075615
846,0.31344640254974365,0.8246527777777778,0.36798301339149475,0.745160281995389
847,0.2720596492290497,0.8559027777777778,0.3696574866771698,0.7255616207078979
848,0.3156607449054718,0.8116319444444444,0.3722327947616577,0.7408125291768914
849,0.26482096314430237,0.8597470238095237,0.36357367038726807,0.746791919172239
850,0.3609684109687805,0.8038194444444444,0.36855220794677734,0.7267844350291166
851,0.8722084760665894,0.49218750000000006,0.5140461921691895,0.4958820449644918
852,0.4749215543270111,0.7054036458333333,0.43691834807395935,0.6434823190009363
853,0.4542326331138611,0.7590277777777777,0.4256870150566101,0.6806257262241309
854,0.4227522611618042,0.7746527777777777,0.41530904173851013,0.6982502234762876
855,0.40369218587875366,0.7777777777777778,0.40988633036613464,0.7032996534592283
856,0.38799965381622314,0.7777777777777778,0.404096394777298,0.7046536442281127
857,0.3747703433036804,0.8090277777777778,0.3997219204902649,0.7053739104669959
858,0.3611297309398651,0.8090277777777778,0.3969669044017792,0.7025655535362986
859,0.35155147314071655,0.7934027777777778,0.3958127200603485,0.6993923791929115
860,0.3480954170227051,0.7934027777777778,0.3923836946487427,0.7010343714599039
861,0.3412846326828003,0.7934027777777778,0.38922756910324097,0.7029891050635737
862,0.3322814404964447,0.7934027777777778,0.38686370849609375,0.7069595627973293
863,0.3217567801475525,0.7934027777777778,0.38494667410850525,0.7071900971369062
864,0.3142731785774231,0.7934027777777778,0.3842829465866089,0.7066215635231595
865,0.30810707807540894,0.8090277777777778,0.3843172490596771,0.707135942760943
866,0.3002168834209442,0.8168402777777778,0.3850061297416687,0.7072647048577904
867,0.29332196712493896,0.8168402777777778,0.3858480453491211,0.7015249166711935
868,0.2946169674396515,0.7907986111111112,0.3835132122039795,0.7117619771875092
869,0.29331502318382263,0.8038194444444445,0.38266095519065857,0.7105320344549071
870,0.2783189117908478,0.806423611111111,0.38370999693870544,0.7104277027149369
871,0.2782887816429138,0.8298611111111112,0.3834548592567444,0.7104934614243127
872,0.2721977233886719,0.8012152777777778,0.38493505120277405,0.7139916623959178
873,0.27721303701400757,0.8038194444444445,0.3839058578014374,0.7113346587415739
874,0.2721176743507385,0.8038194444444445,0.38578492403030396,0.7086370903525163
875,0.2682691812515259,0.8142361111111112,0.38261502981185913,0.7072357316639235
876,0.264451801776886,0.8454861111111112,0.38075700402259827,0.7081877608207399
877,0.260712593793869,0.8454861111111112,0.3801053762435913,0.7106362579500881
878,0.258955717086792,0.8298611111111112,0.3809758424758911,0.698721127670596
879,0.2557169795036316,0.8454861111111112,0.378677099943161,0.713691532069192
880,0.2533906102180481,0.8454861111111112,0.3817557692527771,0.7022703266985186
881,0.2487192153930664,0.8454861111111112,0.38156795501708984,0.7025911642533985
882,0.2378130853176117,0.8611111111111112,0.3850269615650177,0.710597354772887
883,0.24539829790592194,0.8402777777777778,0.38356611132621765,0.7216349947333993
884,0.23919019103050232,0.8767361111111112,0.3761194050312042,0.7065541088147476
885,0.38748252391815186,0.7960069444444445,0.3912852108478546,0.7208091071654904
886,0.2713364362716675,0.8324652777777778,0.3831520676612854,0.72466379758933
887,0.26320895552635193,0.8324652777777778,0.3795130252838135,0.714661758651121
888,0.25770846009254456,0.8585069444444445,0.3800043761730194,0.714158581764965
889,0.2506403923034668,0.8585069444444445,0.3821888267993927,0.7166740174718901
890,0.24612882733345032,0.8585069444444445,0.38365015387535095,0.712194171569172
891,0.24397529661655426,0.8585069444444445,0.3853857219219208,0.7052995645016924
892,0.24467997252941132,0.8590494791666667,0.38688069581985474,0.7039450797429524
893,0.23747742176055908,0.8590494791666667,0.3871581256389618,0.7025627126026066
894,0.23968295753002167,0.8590494791666667,0.38647517561912537,0.7022380712274332
895,0.2371162474155426,0.8590494791666667,0.3870891332626343,0.7074502565991933
896,0.23410001397132874,0.8611328125,0.38699474930763245,0.7011900653522997
897,0.23097585141658783,0.8746744791666667,0.3899209201335907,0.7119817529790938
898,0.22743771970272064,0.8845703125,0.3893112540245056,0.7005710621136158
899,0.22437426447868347,0.8876953125000001,0.392206609249115,0.7094124546651147
900,0.22213466465473175,0.8897786458333333,0.39152494072914124,0.6986836680852643
901,0.2194804847240448,0.8876953125000001,0.3948518931865692,0.7038329922638438
902,0.21606220304965973,0.9027777777777778,0.39481866359710693,0.6937417468268535
903,0.22281686961650848,0.8883928571428572,0.395086407661438,0.7033677610805273
904,0.2131851315498352,0.9033203125,0.3961699306964874,0.7051348966242588
905,0.21475236117839813,0.8929036458333334,0.395009845495224,0.703331225512077
906,0.2144043892621994,0.8668619791666667,0.39740675687789917,0.6958027030101499
907,0.21284347772598267,0.8748511904761904,0.3924570679664612,0.7048892980541921
908,0.2391396164894104,0.8637369791666666,0.39654088020324707,0.7029248667014626
909,0.27086085081100464,0.7887369791666667,0.3879273235797882,0.7046780071780074
910,0.2810862958431244,0.7939453125,0.38036420941352844,0.7063476048183497
911,0.232464998960495,0.8590494791666666,0.3862747848033905,0.7116990977895237
912,0.20979326963424683,0.8929036458333334,0.38778671622276306,0.7061372040095446
913,0.20925986766815186,0.8904761904761904,0.3905406594276428,0.7099197246803632
914,0.2076285481452942,0.9085286458333334,0.3928551971912384,0.7048007646411907
915,0.2073226124048233,0.8876953125,0.394051194190979,0.7022799634368785
916,0.19922783970832825,0.9113095238095237,0.3917597234249115,0.7116390371842503
917,0.20129531621932983,0.9061011904761904,0.39404502511024475,0.715677857406581
918,0.19634924829006195,0.9113095238095237,0.39713966846466064,0.7064329120446143
919,0.1942041665315628,0.9040178571428571,0.39563146233558655,0.7128142592238339
920,0.19937913119792938,0.9137369791666666,0.3978596031665802,0.698778520041818
921,0.20499750971794128,0.8748511904761904,0.38530442118644714,0.7132852928198676
922,0.19893401861190796,0.8956845238095237,0.39394518733024597,0.7083609396907273
923,0.19438454508781433,0.885267857142857,0.3919575810432434,0.7133216104226745
924,0.19322174787521362,0.9269345238095237,0.39675721526145935,0.7038190818244012
925,0.21378006041049957,0.8779761904761905,0.39181897044181824,0.7162208644389501
926,0.2409791201353073,0.8845703125,0.3940417766571045,0.6961087553108835
927,0.22722280025482178,0.8533203125,0.3920266330242157,0.6971511914995961
928,0.2182985246181488,0.8675595238095238,0.39573460817337036,0.7021339623733244
929,0.1888757050037384,0.9189453125,0.393280565738678,0.7069179165987678
930,0.1925317347049713,0.9106119791666666,0.38955622911453247,0.7023078315498533
931,0.1866665780544281,0.8988095238095237,0.3955010771751404,0.715455310056374
932,0.17986218631267548,0.9269345238095237,0.3941013813018799,0.7175437633682318
933,0.1818988174200058,0.9269345238095237,0.3962130844593048,0.6985160761224594
934,0.20640257000923157,0.8644345238095237,0.395145058631897,0.6931238732701498
935,0.34086453914642334,0.7691639957264956,0.4015956521034241,0.696792661141066
936,0.318050742149353,0.8246527777777777,0.3913574516773224,0.712708084370319
937,0.30067628622055054,0.8050595238095237,0.3838072419166565,0.7128514245801483
938,0.2889624238014221,0.8076636904761904,0.3845077157020569,0.705472611017824
939,0.27413448691368103,0.8168402777777779,0.38925424218177795,0.7079644749458581
940,0.2643970847129822,0.8538411458333334,0.3824801445007324,0.7180526580393606
941,0.2806968092918396,0.8069661458333333,0.38609275221824646,0.7037195571371107
942,0.3129156529903412,0.783705357142857,0.42852386832237244,0.6456490898778132
943,0.34422534704208374,0.7486111111111111,0.381827712059021,0.7188886669870715
944,0.2911132574081421,0.8402777777777778,0.37662792205810547,0.7135093024587709
945,0.26857811212539673,0.8486328125,0.37834078073501587,0.7138321745236641
946,0.24868619441986084,0.8571428571428572,0.38087978959083557,0.704388412021391
947,0.2263898402452469,0.8528645833333334,0.3832901120185852,0.6981723074010311
948,0.21545292437076569,0.8736979166666666,0.38427498936653137,0.7043432616437939
949,0.2055836319923401,0.9205729166666666,0.38658571243286133,0.6952727237301707
950,0.20071977376937866,0.89453125,0.3925376534461975,0.6917703208926612
951,0.19013462960720062,0.9309895833333333,0.3906327784061432,0.6944429895360749
952,0.2267322540283203,0.8346354166666666,0.40037107467651367,0.6836942755825738
953,0.24840979278087616,0.8454861111111112,0.38386934995651245,0.6923120211152126
954,0.22035296261310577,0.8988095238095238,0.38428884744644165,0.6975808932989787
955,0.2185298651456833,0.8564453125000001,0.3835707902908325,0.6905650899533882
956,0.20435024797916412,0.8580729166666667,0.3924342691898346,0.6951939790902557
957,0.25775066018104553,0.76953125,0.3891940712928772,0.7262339827233445
958,0.20171916484832764,0.8831845238095237,0.3979945480823517,0.7044685667956944
959,0.25859713554382324,0.8324652777777778,0.3952915072441101,0.7077869884252869
960,0.2311539351940155,0.8720703125,0.37927278876304626,0.696197051569392
961,0.2195647954940796,0.8564453125,0.37857770919799805,0.7047537460569377
962,0.19487930834293365,0.8727678571428571,0.38240954279899597,0.7023747824279741
963,0.1852094829082489,0.8997395833333333,0.38383418321609497,0.693804542089117
964,0.18079036474227905,0.8997395833333333,0.3866163492202759,0.694517861472649
965,0.17782831192016602,0.8997395833333333,0.3887525200843811,0.6988026291084806
966,0.18672718107700348,0.8831845238095237,0.4006713032722473,0.6965775142902807
967,0.37766414880752563,0.7491536458333332,0.45268717408180237,0.6678403171887217
968,0.3090595304965973,0.7387152777777778,0.3942948877811432,0.6960172195810495
969,0.27997297048568726,0.7764136904761904,0.39274901151657104,0.6992989344186156
970,0.27203699946403503,0.838392857142857,0.38979989290237427,0.6952769497051416
971,0.2603398561477661,0.8180803571428571,0.38930177688598633,0.7035534171305454
972,0.23990048468112946,0.8493303571428571,0.39466357231140137,0.6905626327966758
973,0.22840680181980133,0.8232886904761905,0.3906829357147217,0.7094235049820161
974,0.20765304565429688,0.8493303571428571,0.39718061685562134,0.7012049785321065
975,0.198433056473732,0.8727678571428571,0.40583667159080505,0.698592130879365
976,0.19887398183345795,0.8550595238095238,0.4033961594104767,0.705101542960586
977,0.1732408106327057,0.8779761904761904,0.4048260450363159,0.7100485300751259
978,0.3012958765029907,0.7894345238095237,0.5653355717658997,0.5245777739793698
979,0.4216670095920563,0.6434027777777778,0.48072710633277893,0.5769261884687418
980,0.3722526431083679,0.6315104166666666,0.44438236951828003,0.7027427889617616
981,0.24746736884117126,0.8017578125,0.40517425537109375,0.7169784859545505
982,0.24654504656791687,0.8434027777777778,0.39483681321144104,0.7213755418143725
983,0.22478315234184265,0.8408203125,0.3947237730026245,0.7171757133725225
984,0.20507393777370453,0.9184027777777778,0.39452317357063293,0.7190657702226858
985,0.19923359155654907,0.9189453125,0.393608421087265,0.7134105960036817
986,0.1920534074306488,0.9033203125,0.3948523998260498,0.6994369140512764
987,0.18761982023715973,0.9040178571428571,0.39317673444747925,0.6956480020176834
988,0.18557961285114288,0.9040178571428571,0.39425361156463623,0.7002990345942478
989,0.17883501946926117,0.9049479166666666,0.3981137275695801,0.6908551259615093
990,0.170498326420784,0.9040178571428571,0.4035975933074951,0.684577406931131
991,0.17078059911727905,0.8841145833333333,0.4047462046146393,0.6921562662121176
992,0.16574862599372864,0.8997395833333333,0.4060109257698059,0.6905331247751462
993,0.16257376968860626,0.9153645833333333,0.40502455830574036,0.6812049677076275
994,0.15731462836265564,0.8997395833333333,0.41092005372047424,0.6856986423741745
995,0.2579633891582489,0.8883928571428571,0.4038523733615875,0.668378309043203
996,0.29005569219589233,0.7529761904761905,0.39736324548721313,0.6856650151463987
997,0.2647615373134613,0.8102678571428571,0.39934346079826355,0.6838653343307608
998,0.2125280648469925,0.8304036458333334,0.39504092931747437,0.6683254668892972
999,0.23757311701774597,0.7769345238095238,0.4110978841781616,0.6527204838109097
