,loss,recall,val_loss,val_recall
0,0.426728755235672,0.8259999752044678,0.9404213428497314,0.582444429397583
1,0.22269028425216675,0.9340000152587891,0.4462738037109375,0.8188889026641846
2,0.1712304651737213,0.9399999976158142,0.3999234437942505,0.8960000276565552
3,0.15519267320632935,0.9520000219345093,0.43016454577445984,0.8966666460037231
4,0.12175779044628143,0.9539999961853027,0.26948094367980957,0.9200000166893005
5,0.09855367243289948,0.9620000123977661,0.3657127916812897,0.8608888983726501
6,0.10459667444229126,0.9599999785423279,0.4050515592098236,0.8891111016273499
7,0.1149015948176384,0.9580000042915344,0.4782051742076874,0.8386666774749756
8,0.13574673235416412,0.9599999785423279,1.6704570055007935,0.5606666803359985
9,0.12485663592815399,0.9559999704360962,0.8488414287567139,0.6568889021873474
10,0.09433376044034958,0.9620000123977661,0.7197653651237488,0.5633333325386047
11,0.08283077925443649,0.9739999771118164,0.7813264727592468,0.5891110897064209
12,0.0780479907989502,0.9760000109672546,0.9393900036811829,0.4722222089767456
13,0.08416327089071274,0.9760000109672546,0.3846092224121094,0.8635555505752563
14,0.0810360461473465,0.9779999852180481,0.3917035460472107,0.851111114025116
15,0.06897122412919998,0.9800000190734863,0.6898736953735352,0.6004444360733032
16,0.05087940767407417,0.9819999933242798,0.8746196031570435,0.4519999921321869
17,0.052290286868810654,0.9819999933242798,1.0360254049301147,0.402444452047348
18,0.0731080174446106,0.972000002861023,0.7239202857017517,0.6288889050483704
19,0.07469251751899719,0.9779999852180481,0.7014653086662292,0.6853333115577698
20,0.05470103770494461,0.984000027179718,0.36928367614746094,0.8895555734634399
21,0.05211395025253296,0.9819999933242798,0.25925856828689575,0.9271110892295837
22,0.07071245461702347,0.9779999852180481,0.28373053669929504,0.913777768611908
23,0.06521725654602051,0.9800000190734863,0.37524357438087463,0.7935555577278137
24,0.04663996770977974,0.9879999756813049,0.5153406858444214,0.7288888692855835
25,0.03886253386735916,0.9860000014305115,0.6299253702163696,0.675777792930603
26,0.033561550080776215,0.9860000014305115,0.6631367206573486,0.6271111369132996
27,0.06039833649992943,0.9760000109672546,0.5249983668327332,0.7808889150619507
28,0.04767462611198425,0.9860000014305115,0.2736987769603729,0.9182222485542297
29,0.04285167530179024,0.9900000095367432,0.3911178410053253,0.8846666812896729
30,0.03465290740132332,0.9860000014305115,0.3872567415237427,0.8528888821601868
31,0.030114827677607536,0.9879999756813049,0.28430286049842834,0.9113333225250244
32,0.040364522486925125,0.9860000014305115,0.6034077405929565,0.7733333110809326
33,0.05105414614081383,0.9879999756813049,0.47590500116348267,0.816444456577301
34,0.036537908017635345,0.9879999756813049,0.38322025537490845,0.8588888645172119
35,0.031987763941287994,0.9900000095367432,0.3074810802936554,0.9068889021873474
36,0.025174323469400406,0.9879999756813049,0.33442363142967224,0.8851110935211182
37,0.06209930405020714,0.9860000014305115,0.38760748505592346,0.8957777619361877
38,0.11902201175689697,0.9520000219345093,0.7626954317092896,0.8568888902664185
39,0.10096963495016098,0.9660000205039978,1.4737181663513184,0.7135555744171143
40,0.08392232656478882,0.9700000286102295,1.200883388519287,0.7893333435058594
41,0.06438012421131134,0.972000002861023,0.9675356149673462,0.8844444155693054
42,0.05129187926650047,0.9819999933242798,0.4590795934200287,0.9157778024673462
43,0.034473493695259094,0.9919999837875366,0.3517724573612213,0.9111111164093018
44,0.034736212342977524,0.9919999837875366,0.3218085467815399,0.9279999732971191
45,0.023827020078897476,0.9919999837875366,0.3123363256454468,0.9344444274902344
46,0.01795090362429619,0.9940000176429749,0.286856472492218,0.9295555353164673
47,0.023773642256855965,0.9940000176429749,0.28213784098625183,0.9262222051620483
48,0.05397646129131317,0.984000027179718,0.3523484468460083,0.9404444694519043
49,0.025557735934853554,0.9959999918937683,0.4249747693538666,0.886222243309021
50,0.024919897317886353,0.9919999837875366,0.42747175693511963,0.8784444332122803
51,0.012441465631127357,0.9959999918937683,0.3520490527153015,0.9391111135482788
52,0.022945484146475792,0.9919999837875366,0.3583938479423523,0.898888885974884
53,0.02179112657904625,0.9919999837875366,0.3825574219226837,0.9415555596351624
54,0.00800482276827097,1.0,0.3676513731479645,0.9062222242355347
55,0.008342601358890533,0.9959999918937683,0.3663410246372223,0.9088888764381409
56,0.01587841287255287,0.9919999837875366,0.4328959286212921,0.9340000152587891
57,0.03292538970708847,0.9919999837875366,0.36167237162590027,0.9148889183998108
58,0.0385294035077095,0.9900000095367432,0.34797611832618713,0.9368888735771179
59,0.019606102257966995,0.9959999918937683,0.45940396189689636,0.8848888874053955
60,0.021771306172013283,0.9940000176429749,0.3801289200782776,0.8931111097335815
61,0.010820292867720127,1.0,0.33324018120765686,0.9255555272102356
62,0.010670140385627747,0.9980000257492065,0.3682512938976288,0.9217777848243713
63,0.010971665382385254,0.9980000257492065,0.42542368173599243,0.9362221956253052
64,0.011882871389389038,0.9980000257492065,0.4812717139720917,0.9344444274902344
65,0.014062432572245598,0.9919999837875366,0.499999076128006,0.9311110973358154
66,0.012369861826300621,0.9959999918937683,0.5741091370582581,0.9333333373069763
67,0.028144534677267075,0.9940000176429749,0.4341176748275757,0.909333348274231
68,0.03310291841626167,0.9900000095367432,0.5021552443504333,0.941777765750885
69,0.021982301026582718,0.9940000176429749,0.4133373200893402,0.9282222390174866
70,0.010249311104416847,0.9980000257492065,0.37916654348373413,0.9300000071525574
71,0.011376829817891121,0.9959999918937683,0.3660460114479065,0.9348888993263245
72,0.003622514894232154,0.9980000257492065,0.3663690984249115,0.9304444193840027
73,0.00400961609557271,1.0,0.37959328293800354,0.9315555691719055
74,0.0009814907098188996,1.0,0.38399040699005127,0.9326666593551636
75,0.0012786122970283031,1.0,0.3825473189353943,0.9295555353164673
76,0.0009046622435562313,1.0,0.3821038007736206,0.9279999732971191
77,0.0005420763045549393,1.0,0.3778666853904724,0.9300000071525574
78,0.0005257413722574711,1.0,0.37505751848220825,0.9333333373069763
79,0.0006306282011792064,1.0,0.37324267625808716,0.9337777495384216
80,0.00035063110408373177,1.0,0.37169212102890015,0.9355555772781372
81,0.00030477900872938335,1.0,0.3721655309200287,0.9359999895095825
82,0.0008019540691748261,1.0,0.3740403950214386,0.9362221956253052
83,0.00032508783624507487,1.0,0.3772629499435425,0.9366666674613953
84,0.0004852674319408834,1.0,0.3758139908313751,0.9355555772781372
85,0.00037325287121348083,1.0,0.3763766586780548,0.9340000152587891
86,0.0002358734782319516,1.0,0.3784436881542206,0.9348888993263245
87,0.0004216322267893702,1.0,0.38060855865478516,0.9357777833938599
88,0.0002947543980553746,1.0,0.3830123841762543,0.9362221956253052
89,0.0002292018325533718,1.0,0.38506701588630676,0.9362221956253052
90,0.00021428792388178408,1.0,0.3873068392276764,0.9368888735771179
91,0.00042816976201720536,1.0,0.38849788904190063,0.937333345413208
92,0.0002940807898994535,1.0,0.3895670473575592,0.9375555515289307
93,0.000178786605829373,1.0,0.38962599635124207,0.9375555515289307
94,0.00021849220502190292,1.0,0.3911742568016052,0.937333345413208
95,0.00012856736429966986,1.0,0.3924347758293152,0.937333345413208
96,0.0002468556340318173,1.0,0.39406901597976685,0.937333345413208
97,0.0003233157331123948,1.0,0.39756208658218384,0.9382222294807434
98,0.0002820419904310256,1.0,0.39964038133621216,0.9384444355964661
99,0.00016814035188872367,1.0,0.40058550238609314,0.9382222294807434
100,0.00018609805556479841,1.0,0.4015597701072693,0.9380000233650208
101,0.00015027393237687647,1.0,0.4026479721069336,0.9380000233650208
102,0.00017871659656520933,1.0,0.4039800763130188,0.9380000233650208
103,0.00015304744010791183,1.0,0.40645429491996765,0.9377777576446533
104,0.0002355145406909287,1.0,0.407711386680603,0.9380000233650208
105,0.00030848366441205144,1.0,0.40772199630737305,0.9380000233650208
106,0.00016369353397749364,1.0,0.4083259403705597,0.9384444355964661
107,0.00028534847660921514,1.0,0.41010016202926636,0.9386666417121887
108,0.00032425150857307017,1.0,0.4083802103996277,0.9380000233650208
109,0.0001469092385377735,1.0,0.4083973467350006,0.9380000233650208
110,0.00011660227755783126,1.0,0.41037070751190186,0.9384444355964661
111,0.00012139989848947152,1.0,0.4124948978424072,0.9384444355964661
112,0.0003983404312748462,1.0,0.4091576635837555,0.9353333115577698
113,0.0002897433587349951,1.0,0.4102524518966675,0.9313333630561829
114,0.0005244805361144245,1.0,0.40718990564346313,0.9377777576446533
115,0.00017554669466335326,1.0,0.4101066589355469,0.9384444355964661
116,0.00012733812036458403,1.0,0.41398730874061584,0.9388889074325562
117,0.00010772584937512875,1.0,0.41755789518356323,0.9391111135482788
118,0.00015283066022675484,1.0,0.41752171516418457,0.9380000233650208
119,8.313062426168472e-05,1.0,0.4190892279148102,0.937333345413208
120,8.101425919448957e-05,1.0,0.42079320549964905,0.9364444613456726
121,0.00014677394938189536,1.0,0.41886618733406067,0.9355555772781372
122,0.00015799375250935555,1.0,0.41870978474617004,0.9357777833938599
123,6.238227797439322e-05,1.0,0.4206215441226959,0.9359999895095825
124,8.822004747344181e-05,1.0,0.4228549599647522,0.9359999895095825
125,0.00015306221030186862,1.0,0.4250427186489105,0.9366666674613953
126,8.388429705519229e-05,1.0,0.427238404750824,0.937333345413208
127,5.959363261354156e-05,1.0,0.42891383171081543,0.9375555515289307
128,0.00010777910210890695,1.0,0.4309106171131134,0.9375555515289307
129,9.213542944053188e-05,1.0,0.4321536421775818,0.9375555515289307
130,9.838865662459284e-05,1.0,0.4329645037651062,0.9380000233650208
131,8.3632578025572e-05,1.0,0.43360358476638794,0.9375555515289307
132,9.71388362813741e-05,1.0,0.43510448932647705,0.9377777576446533
133,0.0001787834771675989,1.0,0.43639227747917175,0.9382222294807434
134,5.179036088520661e-05,1.0,0.43744733929634094,0.9384444355964661
135,6.525646313093603e-05,1.0,0.43783101439476013,0.9384444355964661
136,5.195473931962624e-05,1.0,0.4381728172302246,0.9386666417121887
137,0.00010638051753630862,1.0,0.4380896985530853,0.9382222294807434
138,8.651590178487822e-05,1.0,0.43807855248451233,0.9380000233650208
139,8.295242150779814e-05,1.0,0.4390365779399872,0.9382222294807434
140,6.186828250065446e-05,1.0,0.43960314989089966,0.9380000233650208
141,0.0001336822606390342,1.0,0.44008687138557434,0.9382222294807434
142,6.936861609574407e-05,1.0,0.44062340259552,0.9380000233650208
143,7.03806581441313e-05,1.0,0.4410383701324463,0.9380000233650208
144,5.636904461425729e-05,1.0,0.44126665592193604,0.9382222294807434
145,7.363613258348778e-05,1.0,0.442017525434494,0.9382222294807434
146,4.580042150337249e-05,1.0,0.442448228597641,0.9382222294807434
147,5.2678959036711603e-05,1.0,0.44299572706222534,0.9382222294807434
148,6.21409053565003e-05,1.0,0.443522185087204,0.9382222294807434
149,0.00014156410179566592,1.0,0.4447252154350281,0.9382222294807434
150,4.3000472942367196e-05,1.0,0.44541603326797485,0.9380000233650208
151,6.226440018508583e-05,1.0,0.4459427297115326,0.9382222294807434
152,8.152147347573191e-05,1.0,0.4467291533946991,0.9380000233650208
153,5.683778363163583e-05,1.0,0.44729986786842346,0.9380000233650208
154,5.0173126510344446e-05,1.0,0.4475278854370117,0.9380000233650208
155,5.633637556456961e-05,1.0,0.44745832681655884,0.9380000233650208
156,0.00010015221778303385,1.0,0.4468827545642853,0.9380000233650208
157,9.07390276552178e-05,1.0,0.4466986358165741,0.9382222294807434
158,6.637576007051393e-05,1.0,0.4467390775680542,0.9382222294807434
159,7.133592589525506e-05,1.0,0.44702404737472534,0.9382222294807434
160,6.534157728310674e-05,1.0,0.44647496938705444,0.9382222294807434
161,3.5896795452572405e-05,1.0,0.4464384615421295,0.9382222294807434
162,5.79900988668669e-05,1.0,0.44661349058151245,0.9382222294807434
163,6.0393787862267345e-05,1.0,0.44700977206230164,0.9382222294807434
164,4.32557899330277e-05,1.0,0.4471447467803955,0.9384444355964661
165,0.00010058888437924907,1.0,0.4468528628349304,0.9384444355964661
166,6.545255746459588e-05,1.0,0.4465428590774536,0.9382222294807434
167,0.0001086255579139106,1.0,0.4470096230506897,0.9384444355964661
168,6.37649281998165e-05,1.0,0.44736626744270325,0.9384444355964661
169,4.574128251988441e-05,1.0,0.44742074608802795,0.9384444355964661
170,7.032263238215819e-05,1.0,0.4480699896812439,0.9384444355964661
171,6.371797644533217e-05,1.0,0.44846639037132263,0.9382222294807434
172,5.385010808822699e-05,1.0,0.4489395320415497,0.9382222294807434
173,5.045575380790979e-05,1.0,0.44917282462120056,0.9380000233650208
174,5.680290996679105e-05,1.0,0.4496845304965973,0.9380000233650208
175,5.77344762859866e-05,1.0,0.4500144422054291,0.9382222294807434
176,7.363876648014411e-05,1.0,0.45021146535873413,0.9384444355964661
177,8.473883644910529e-05,1.0,0.4500976502895355,0.9382222294807434
178,7.537224155385047e-05,1.0,0.44979211688041687,0.9382222294807434
179,3.8062942621763796e-05,1.0,0.449920117855072,0.9380000233650208
180,0.00010596522770356387,1.0,0.44982242584228516,0.9380000233650208
181,4.759222792927176e-05,1.0,0.4490465819835663,0.9380000233650208
182,6.0294216382317245e-05,1.0,0.4490005075931549,0.9380000233650208
183,6.506314821308479e-05,1.0,0.44915127754211426,0.9380000233650208
184,5.0078771892003715e-05,1.0,0.4491370916366577,0.9380000233650208
185,2.7789950763690285e-05,1.0,0.44918015599250793,0.9377777576446533
186,2.790652069961652e-05,1.0,0.4495909512042999,0.9377777576446533
187,0.00011377166083548218,1.0,0.45041096210479736,0.9380000233650208
188,4.993554102838971e-05,1.0,0.4503970146179199,0.9384444355964661
189,4.871003329753876e-05,1.0,0.4508335590362549,0.9382222294807434
190,4.492667721933685e-05,1.0,0.4513542652130127,0.9384444355964661
191,5.61701635888312e-05,1.0,0.451764315366745,0.9382222294807434
192,5.6662163842702284e-05,1.0,0.4522237777709961,0.9380000233650208
193,3.743770139408298e-05,1.0,0.45233333110809326,0.9384444355964661
194,5.566222171182744e-05,1.0,0.4528014063835144,0.9384444355964661
195,5.397374843596481e-05,1.0,0.45317935943603516,0.9380000233650208
196,0.00010858412861125544,1.0,0.45390960574150085,0.9382222294807434
197,5.288227475830354e-05,1.0,0.45442333817481995,0.9382222294807434
198,3.823713996098377e-05,1.0,0.45490726828575134,0.9382222294807434
199,5.136409527040087e-05,1.0,0.45561614632606506,0.9382222294807434
200,5.347394471755251e-05,1.0,0.4559098780155182,0.9384444355964661
201,8.944274304667488e-05,1.0,0.45666417479515076,0.9386666417121887
202,6.155679147923365e-05,1.0,0.45670101046562195,0.9388889074325562
203,3.93804584746249e-05,1.0,0.4564434587955475,0.9384444355964661
204,7.861104677431285e-05,1.0,0.45673856139183044,0.9388889074325562
205,7.00327436788939e-05,1.0,0.45663660764694214,0.9386666417121887
206,9.729462180985138e-05,1.0,0.45602235198020935,0.9377777576446533
207,5.1437174988677725e-05,1.0,0.4556136131286621,0.9377777576446533
208,3.2287432986777276e-05,1.0,0.4556194543838501,0.9377777576446533
209,4.2011499317595735e-05,1.0,0.456074595451355,0.9377777576446533
210,3.75877607439179e-05,1.0,0.45648807287216187,0.9377777576446533
211,4.505316246650182e-05,1.0,0.4565585255622864,0.9377777576446533
212,2.583836430858355e-05,1.0,0.45608821511268616,0.9380000233650208
213,2.2801368686486967e-05,1.0,0.4561717212200165,0.9380000233650208
214,3.903187462128699e-05,1.0,0.45662999153137207,0.9380000233650208
215,5.698656241293065e-05,1.0,0.45720362663269043,0.9380000233650208
216,2.9362767236307263e-05,1.0,0.4575398862361908,0.9377777576446533
217,4.103034007130191e-05,1.0,0.457463800907135,0.9377777576446533
218,4.1751623939489946e-05,1.0,0.45734351873397827,0.9380000233650208
219,3.097931403317489e-05,1.0,0.4573875963687897,0.9380000233650208
220,3.308602754259482e-05,1.0,0.45758044719696045,0.9380000233650208
221,3.547096639522351e-05,1.0,0.45792698860168457,0.9380000233650208
222,4.954042378813028e-05,1.0,0.4586271047592163,0.9380000233650208
223,2.899225910368841e-05,1.0,0.4589688181877136,0.9377777576446533
224,3.848255437333137e-05,1.0,0.45944443345069885,0.9377777576446533
225,3.7998059269739315e-05,1.0,0.45974695682525635,0.9380000233650208
226,3.9623941120225936e-05,1.0,0.46012943983078003,0.9380000233650208
227,3.676621417980641e-05,1.0,0.46010422706604004,0.9380000233650208
228,3.1095274607650936e-05,1.0,0.45994776487350464,0.9377777576446533
229,5.237960067461245e-05,1.0,0.46024951338768005,0.9380000233650208
230,3.8006754039088264e-05,1.0,0.4602988362312317,0.9380000233650208
231,2.7482683435664512e-05,1.0,0.46041232347488403,0.9377777576446533
232,2.9410974093480036e-05,1.0,0.46078911423683167,0.9377777576446533
233,5.970676284050569e-05,1.0,0.46113184094429016,0.9377777576446533
234,4.058037666254677e-05,1.0,0.4616437256336212,0.9380000233650208
235,0.00011112225183751434,1.0,0.4622296690940857,0.9380000233650208
236,3.6336525226943195e-05,1.0,0.46236398816108704,0.9377777576446533
237,4.8792684538057074e-05,1.0,0.4623987078666687,0.9377777576446533
238,2.446469989081379e-05,1.0,0.4623557925224304,0.9377777576446533
239,4.301159060560167e-05,1.0,0.46260368824005127,0.9380000233650208
240,3.216995537513867e-05,1.0,0.4628039300441742,0.9375555515289307
241,2.845071503543295e-05,1.0,0.4630205035209656,0.9377777576446533
242,2.8933016437804326e-05,1.0,0.4632948637008667,0.9377777576446533
243,4.6660134103149176e-05,1.0,0.46360141038894653,0.9377777576446533
244,4.205774166621268e-05,1.0,0.4640391767024994,0.9380000233650208
245,4.889897536486387e-05,1.0,0.4645906090736389,0.9380000233650208
246,2.4411629055975936e-05,1.0,0.4649653434753418,0.9380000233650208
247,4.3485022615641356e-05,1.0,0.46506467461586,0.9380000233650208
248,1.8695529433898628e-05,1.0,0.4648999571800232,0.9380000233650208
249,4.7974332119338214e-05,1.0,0.46466004848480225,0.9377777576446533
250,3.5730812669498846e-05,1.0,0.4645511507987976,0.9377777576446533
251,2.2007894585840404e-05,1.0,0.4644027650356293,0.9377777576446533
252,6.59218494547531e-05,1.0,0.46453428268432617,0.9375555515289307
253,3.353480133228004e-05,1.0,0.46467500925064087,0.9375555515289307
254,2.406700332358014e-05,1.0,0.4648405909538269,0.9380000233650208
255,5.2106119255768135e-05,1.0,0.46505430340766907,0.9375555515289307
256,3.64623119821772e-05,1.0,0.46526697278022766,0.9375555515289307
257,2.5873025151668116e-05,1.0,0.46535027027130127,0.9375555515289307
258,2.9618953703902662e-05,1.0,0.4655291736125946,0.9375555515289307
259,3.341065894346684e-05,1.0,0.4657082259654999,0.9375555515289307
260,3.852139343507588e-05,1.0,0.465740442276001,0.9375555515289307
261,3.786132583627477e-05,1.0,0.46569693088531494,0.9375555515289307
262,3.699146691360511e-05,1.0,0.4658465087413788,0.9375555515289307
263,3.0013412469998002e-05,1.0,0.46586182713508606,0.9375555515289307
264,2.516760832804721e-05,1.0,0.4658263325691223,0.9375555515289307
265,5.068169048172422e-05,1.0,0.4658859670162201,0.9375555515289307
266,2.09583140531322e-05,1.0,0.4658370316028595,0.9375555515289307
267,3.229169305996038e-05,1.0,0.46582210063934326,0.9375555515289307
268,4.4700696889776736e-05,1.0,0.46594852209091187,0.9377777576446533
269,4.546505442704074e-05,1.0,0.4660347104072571,0.9380000233650208
270,5.530236740014516e-05,1.0,0.46651405096054077,0.9382222294807434
271,3.548189488356002e-05,1.0,0.46672406792640686,0.9382222294807434
272,4.03470330638811e-05,1.0,0.4668479859828949,0.9380000233650208
273,3.2481912057846785e-05,1.0,0.4669125974178314,0.9380000233650208
274,2.4344553821720183e-05,1.0,0.46678516268730164,0.9377777576446533
275,2.9257585993036628e-05,1.0,0.4667503833770752,0.9375555515289307
276,3.087329605477862e-05,1.0,0.4668239951133728,0.9375555515289307
277,4.0408096538158134e-05,1.0,0.4667719602584839,0.9375555515289307
278,3.0897695978637785e-05,1.0,0.466919869184494,0.9377777576446533
279,3.265992199885659e-05,1.0,0.46716010570526123,0.9377777576446533
280,3.153971556457691e-05,1.0,0.46731433272361755,0.9380000233650208
281,3.623735756264068e-05,1.0,0.4674045741558075,0.9382222294807434
282,3.6572520912159234e-05,1.0,0.46777409315109253,0.9382222294807434
283,6.090517126722261e-05,1.0,0.4685755670070648,0.9384444355964661
284,4.3506690417416394e-05,1.0,0.46895790100097656,0.9384444355964661
285,6.679601210635155e-05,1.0,0.4699169397354126,0.9384444355964661
286,4.838924724026583e-05,1.0,0.47039973735809326,0.9384444355964661
287,2.1184592696954496e-05,1.0,0.470401793718338,0.9384444355964661
288,3.649303471320309e-05,1.0,0.4704326093196869,0.9384444355964661
289,4.927183545078151e-05,1.0,0.4699963629245758,0.9384444355964661
290,4.261247522663325e-05,1.0,0.4697278141975403,0.9384444355964661
291,3.117935557384044e-05,1.0,0.469530314207077,0.9382222294807434
292,3.228176501579583e-05,1.0,0.4695470929145813,0.9384444355964661
293,3.4046162909362465e-05,1.0,0.4695848524570465,0.9384444355964661
294,3.4849665098590776e-05,1.0,0.46962815523147583,0.9382222294807434
295,2.1125935745658353e-05,1.0,0.469582200050354,0.9382222294807434
296,2.113630216626916e-05,1.0,0.4695529639720917,0.9382222294807434
297,2.986264917126391e-05,1.0,0.46956565976142883,0.9382222294807434
298,3.078564623137936e-05,1.0,0.46953803300857544,0.9384444355964661
299,2.2700574845657684e-05,1.0,0.46950069069862366,0.9382222294807434
300,3.055351771763526e-05,1.0,0.4696400761604309,0.9382222294807434
301,4.4459513446781784e-05,1.0,0.4697611331939697,0.9382222294807434
302,2.3164553567767143e-05,1.0,0.46984750032424927,0.9382222294807434
303,2.65728376689367e-05,1.0,0.4699513912200928,0.9382222294807434
304,3.5407028917688876e-05,1.0,0.4699784219264984,0.9382222294807434
305,3.7891793908784166e-05,1.0,0.4702069163322449,0.9380000233650208
306,2.279490581713617e-05,1.0,0.47028303146362305,0.9380000233650208
307,2.0466342903091572e-05,1.0,0.4703150987625122,0.9382222294807434
308,3.919999289792031e-05,1.0,0.47055262327194214,0.9382222294807434
309,3.706854477059096e-05,1.0,0.4707241654396057,0.9382222294807434
310,2.943384060927201e-05,1.0,0.4705907702445984,0.9382222294807434
311,1.721769876894541e-05,1.0,0.47055983543395996,0.9382222294807434
312,4.032249125884846e-05,1.0,0.4706895649433136,0.9382222294807434
313,2.0719593521789648e-05,1.0,0.470806360244751,0.9382222294807434
314,1.6719977793400176e-05,1.0,0.47079697251319885,0.9382222294807434
315,1.9792614693869837e-05,1.0,0.47089967131614685,0.9382222294807434
316,5.913826680625789e-05,1.0,0.4712202548980713,0.9382222294807434
317,3.9646747609367594e-05,1.0,0.47126737236976624,0.9382222294807434
318,1.8917766283266246e-05,1.0,0.47121235728263855,0.9382222294807434
319,4.8300902562914416e-05,1.0,0.4714042544364929,0.9382222294807434
320,2.9995251679793e-05,1.0,0.47144201397895813,0.9382222294807434
321,2.0550402041408233e-05,1.0,0.471460223197937,0.9382222294807434
322,4.299178544897586e-05,1.0,0.4713638722896576,0.9380000233650208
323,5.928293103352189e-05,1.0,0.4715091288089752,0.9380000233650208
324,2.1257232219795696e-05,1.0,0.47153905034065247,0.9380000233650208
325,1.9125276594422758e-05,1.0,0.4715285301208496,0.9380000233650208
326,2.972374568344094e-05,1.0,0.4715855121612549,0.9380000233650208
327,2.527675860619638e-05,1.0,0.4716624319553375,0.9380000233650208
328,2.3750188120175153e-05,1.0,0.4716314971446991,0.9380000233650208
329,3.933006519218907e-05,1.0,0.4715490937232971,0.9380000233650208
330,5.315744783729315e-05,1.0,0.4716874957084656,0.9380000233650208
331,2.7402436899137683e-05,1.0,0.4718592166900635,0.9380000233650208
332,3.3603882911847904e-05,1.0,0.47179296612739563,0.9380000233650208
333,4.960043588653207e-05,1.0,0.4719187319278717,0.9380000233650208
334,2.8310907509876415e-05,1.0,0.47176823019981384,0.9380000233650208
335,2.2695681764162146e-05,1.0,0.4717700779438019,0.9382222294807434
336,2.6687959689297713e-05,1.0,0.47184282541275024,0.9382222294807434
337,3.372153514646925e-05,1.0,0.47197502851486206,0.9380000233650208
338,4.8791356675792485e-05,1.0,0.47192397713661194,0.9380000233650208
339,2.5363086024299264e-05,1.0,0.47147053480148315,0.9382222294807434
340,6.297465006355196e-05,1.0,0.4716351330280304,0.9380000233650208
341,2.6351885026087984e-05,1.0,0.47167953848838806,0.9377777576446533
342,2.7863379727932625e-05,1.0,0.4718318581581116,0.9377777576446533
343,2.6781222913996316e-05,1.0,0.4720730185508728,0.9377777576446533
344,2.6774208890856244e-05,1.0,0.4723106622695923,0.9377777576446533
345,5.123230948811397e-05,1.0,0.472677618265152,0.9377777576446533
346,2.2098131012171507e-05,1.0,0.4728318750858307,0.9380000233650208
347,2.4863931685104035e-05,1.0,0.4730842113494873,0.9380000233650208
348,4.0205293771578e-05,1.0,0.4733799993991852,0.9380000233650208
349,2.6575691663310863e-05,1.0,0.4735245704650879,0.9380000233650208
350,2.202900759584736e-05,1.0,0.47344833612442017,0.9380000233650208
351,2.431236680422444e-05,1.0,0.473367840051651,0.9382222294807434
352,3.7590627471217886e-05,1.0,0.47356224060058594,0.9382222294807434
353,2.3993223294382915e-05,1.0,0.4735836982727051,0.9382222294807434
354,2.074389522022102e-05,1.0,0.4734722673892975,0.9382222294807434
355,2.541515823395457e-05,1.0,0.4735405147075653,0.9382222294807434
356,3.92716538044624e-05,1.0,0.47368907928466797,0.9382222294807434
357,2.2019325115252286e-05,1.0,0.47381314635276794,0.9380000233650208
358,3.6447218008106574e-05,1.0,0.473777711391449,0.9380000233650208
359,2.9974909921293147e-05,1.0,0.4735645651817322,0.9380000233650208
360,2.48489850491751e-05,1.0,0.4733046889305115,0.9380000233650208
361,2.876701910281554e-05,1.0,0.4732382297515869,0.9380000233650208
362,3.320671748952009e-05,1.0,0.47331419587135315,0.9380000233650208
363,6.830493657616898e-05,1.0,0.47352105379104614,0.9380000233650208
364,7.912389992270619e-05,1.0,0.473202645778656,0.9382222294807434
365,2.7468055122881196e-05,1.0,0.472881019115448,0.9380000233650208
366,3.312395710963756e-05,1.0,0.4726361334323883,0.9380000233650208
367,1.840006370912306e-05,1.0,0.47252652049064636,0.9380000233650208
368,2.2610813175560907e-05,1.0,0.4726712703704834,0.9380000233650208
369,2.6691597668104805e-05,1.0,0.4728751480579376,0.9380000233650208
370,3.3968106436077505e-05,1.0,0.47316285967826843,0.9380000233650208
371,3.18936217809096e-05,1.0,0.4732609987258911,0.9380000233650208
372,5.282246638671495e-05,1.0,0.47358274459838867,0.9382222294807434
373,5.0411024858476594e-05,1.0,0.47347959876060486,0.9380000233650208
374,4.496530891628936e-05,1.0,0.47331660985946655,0.9382222294807434
375,2.0599276467692107e-05,1.0,0.4733783006668091,0.9380000233650208
376,2.6079260351252742e-05,1.0,0.473651260137558,0.9380000233650208
377,1.5076743693498429e-05,1.0,0.47380518913269043,0.9380000233650208
378,2.058705285890028e-05,1.0,0.4740010201931,0.9380000233650208
379,2.7300970032229088e-05,1.0,0.4742891192436218,0.9380000233650208
380,2.1034855308244005e-05,1.0,0.4744361937046051,0.9380000233650208
381,2.4239669073722325e-05,1.0,0.47460025548934937,0.9382222294807434
382,3.148310861433856e-05,1.0,0.474808007478714,0.9382222294807434
383,2.199048685724847e-05,1.0,0.47496750950813293,0.9380000233650208
384,9.600481280358508e-05,1.0,0.47292935848236084,0.9377777576446533
385,2.1014489902881905e-05,1.0,0.4726576507091522,0.9377777576446533
386,2.3025821064948104e-05,1.0,0.4729580581188202,0.9380000233650208
387,2.9443470339174382e-05,1.0,0.47343310713768005,0.9377777576446533
388,2.0977522581233643e-05,1.0,0.47387734055519104,0.9377777576446533
389,3.6293520679464564e-05,1.0,0.4741724133491516,0.9380000233650208
390,3.7827023334102705e-05,1.0,0.4748021960258484,0.9377777576446533
391,4.799888120032847e-05,1.0,0.47516608238220215,0.9377777576446533
392,2.792177656374406e-05,1.0,0.47548431158065796,0.9380000233650208
393,3.5944180126534775e-05,1.0,0.4757486879825592,0.9380000233650208
394,2.122571095242165e-05,1.0,0.475988507270813,0.9380000233650208
395,1.9774381144088693e-05,1.0,0.47628021240234375,0.9380000233650208
396,3.434806421864778e-05,1.0,0.4767943322658539,0.9380000233650208
397,2.6218816856271587e-05,1.0,0.47714489698410034,0.9377777576446533
398,3.633890810306184e-05,1.0,0.47760915756225586,0.9380000233650208
399,1.5822697605472058e-05,1.0,0.4774625599384308,0.9382222294807434
400,2.3577511456096545e-05,1.0,0.47757741808891296,0.9380000233650208
401,1.723438617773354e-05,1.0,0.47771674394607544,0.9380000233650208
402,1.857428105722647e-05,1.0,0.4778176546096802,0.9380000233650208
403,1.7407313862349838e-05,1.0,0.4779314696788788,0.9380000233650208
404,1.7565733287483454e-05,1.0,0.4779598116874695,0.9380000233650208
405,4.4813692511525005e-05,1.0,0.47834348678588867,0.9377777576446533
406,4.572967372951098e-05,1.0,0.47860974073410034,0.9377777576446533
407,7.486423419322819e-05,1.0,0.4788840115070343,0.937333345413208
408,2.7723186576622538e-05,1.0,0.4790593385696411,0.9375555515289307
409,4.192058986518532e-05,1.0,0.4793134331703186,0.9375555515289307
410,1.8116725186700933e-05,1.0,0.4792793393135071,0.9375555515289307
411,3.2677788112778217e-05,1.0,0.4793354570865631,0.937333345413208
412,3.202819061698392e-05,1.0,0.4795207679271698,0.937333345413208
413,5.487895759870298e-05,1.0,0.47992393374443054,0.937333345413208
414,2.6482093744562007e-05,1.0,0.4799141585826874,0.9375555515289307
415,2.398914693912957e-05,1.0,0.4798828065395355,0.9375555515289307
416,3.144979564240202e-05,1.0,0.47972044348716736,0.9375555515289307
417,5.1190934755140916e-05,1.0,0.4793638288974762,0.9375555515289307
418,4.816832370124757e-05,1.0,0.47942090034484863,0.9380000233650208
419,4.786365389009006e-05,1.0,0.4792932868003845,0.9380000233650208
420,3.198136982973665e-05,1.0,0.4796765446662903,0.9380000233650208
421,2.6885800252784975e-05,1.0,0.48003917932510376,0.9380000233650208
422,3.129541437374428e-05,1.0,0.4803007245063782,0.9377777576446533
423,1.841922312451061e-05,1.0,0.4804845452308655,0.9377777576446533
424,1.1792070836236235e-05,1.0,0.48050346970558167,0.9377777576446533
425,2.07466546271462e-05,1.0,0.48071566224098206,0.9377777576446533
426,2.963668157462962e-05,1.0,0.48077479004859924,0.9377777576446533
427,2.539715205784887e-05,1.0,0.4809418320655823,0.9377777576446533
428,2.860656240954995e-05,1.0,0.4811255931854248,0.9377777576446533
429,2.8914932045154274e-05,1.0,0.4813898205757141,0.9380000233650208
430,3.8123525882838294e-05,1.0,0.48182377219200134,0.9377777576446533
431,1.4341948372020852e-05,1.0,0.48181211948394775,0.9375555515289307
432,1.4107953575148713e-05,1.0,0.4817832112312317,0.9377777576446533
433,3.2289535738527775e-05,1.0,0.48113876581192017,0.9377777576446533
434,2.795104228425771e-05,1.0,0.480996310710907,0.9377777576446533
435,1.8734099285211414e-05,1.0,0.4810510575771332,0.9375555515289307
436,3.494946577120572e-05,1.0,0.48117828369140625,0.9375555515289307
437,2.6958727175951935e-05,1.0,0.4812690019607544,0.9375555515289307
438,3.4748842153931037e-05,1.0,0.4813102185726166,0.9380000233650208
439,2.2669291865895502e-05,1.0,0.4814772605895996,0.9380000233650208
440,0.00017266218492295593,1.0,0.4739724397659302,0.9380000233650208
441,2.9700842787860893e-05,1.0,0.4713388681411743,0.9384444355964661
442,2.8226633730810136e-05,1.0,0.4708302915096283,0.9384444355964661
443,1.8354052372160368e-05,1.0,0.4709711968898773,0.9384444355964661
444,1.4832239685347304e-05,1.0,0.4712386727333069,0.9386666417121887
445,1.5017398254713044e-05,1.0,0.47168582677841187,0.9386666417121887
446,2.0238616343704052e-05,1.0,0.47227510809898376,0.9386666417121887
447,2.2216296201804653e-05,1.0,0.47293034195899963,0.9386666417121887
448,3.878301504300907e-05,1.0,0.47372183203697205,0.9386666417121887
449,2.1828880562679842e-05,1.0,0.4742703437805176,0.9388889074325562
450,3.164229929097928e-05,1.0,0.47489264607429504,0.9388889074325562
451,4.1300838347524405e-05,1.0,0.4752543866634369,0.9384444355964661
452,2.2195778001332656e-05,1.0,0.47554969787597656,0.9384444355964661
453,2.671466972969938e-05,1.0,0.47607335448265076,0.9384444355964661
454,2.8558677513501607e-05,1.0,0.47663068771362305,0.9384444355964661
455,1.92260504263686e-05,1.0,0.4769708216190338,0.9384444355964661
456,4.295313192415051e-05,1.0,0.47735509276390076,0.9384444355964661
457,2.5646384528954513e-05,1.0,0.47782352566719055,0.9384444355964661
458,2.3299860913539305e-05,1.0,0.47801458835601807,0.9384444355964661
459,2.4123144612531178e-05,1.0,0.4783097803592682,0.9384444355964661
460,1.1966319107159507e-05,1.0,0.47835633158683777,0.9384444355964661
461,1.814571805880405e-05,1.0,0.4784088432788849,0.9384444355964661
462,2.8632712201215327e-05,1.0,0.4787130057811737,0.9384444355964661
463,3.8761922041885555e-05,1.0,0.4793398380279541,0.9384444355964661
464,4.8461493861395866e-05,1.0,0.4800673723220825,0.9384444355964661
465,2.5877625375869684e-05,1.0,0.48063167929649353,0.9384444355964661
466,1.783110565156676e-05,1.0,0.4808299243450165,0.9384444355964661
467,1.4356641258927993e-05,1.0,0.48087021708488464,0.9382222294807434
468,2.4369295715587214e-05,1.0,0.4810977578163147,0.9382222294807434
469,2.9043078029644676e-05,1.0,0.4814381003379822,0.9380000233650208
470,2.7735028197639622e-05,1.0,0.4816395342350006,0.9380000233650208
471,1.2816033631679602e-05,1.0,0.4815950095653534,0.9380000233650208
472,1.4490979083348066e-05,1.0,0.48155853152275085,0.9380000233650208
473,1.7805152310756966e-05,1.0,0.48151203989982605,0.9380000233650208
474,6.303966074483469e-05,1.0,0.4817039966583252,0.9380000233650208
475,2.23913521040231e-05,1.0,0.48212164640426636,0.9382222294807434
476,3.238753561163321e-05,1.0,0.48216667771339417,0.9386666417121887
477,1.7404972822987475e-05,1.0,0.4820057451725006,0.9386666417121887
478,1.6672423953423277e-05,1.0,0.48181775212287903,0.9384444355964661
479,4.130815068492666e-05,1.0,0.48190680146217346,0.9386666417121887
480,2.459478309901897e-05,1.0,0.4822259545326233,0.9386666417121887
481,1.5249489479174372e-05,1.0,0.482338547706604,0.9386666417121887
482,1.6692101780790836e-05,1.0,0.4822816252708435,0.9386666417121887
483,4.681996870203875e-05,1.0,0.48189860582351685,0.9382222294807434
484,2.6098939997609705e-05,1.0,0.4812486469745636,0.9380000233650208
485,1.7671667592367157e-05,1.0,0.4813826382160187,0.9380000233650208
486,1.912651350721717e-05,1.0,0.4817325174808502,0.9380000233650208
487,1.687683106865734e-05,1.0,0.4820578992366791,0.9380000233650208
488,1.8570708562037908e-05,1.0,0.482439786195755,0.9375555515289307
489,2.3875985789345577e-05,1.0,0.4827392101287842,0.9375555515289307
490,2.3464597688871436e-05,1.0,0.48310187458992004,0.9375555515289307
491,1.4590556020266376e-05,1.0,0.4834640324115753,0.9375555515289307
492,3.0979030270827934e-05,1.0,0.4833759367465973,0.9375555515289307
493,1.7037509678630158e-05,1.0,0.48343852162361145,0.9377777576446533
494,1.741361484164372e-05,1.0,0.48355501890182495,0.9377777576446533
495,1.745086228766013e-05,1.0,0.48363998532295227,0.9377777576446533
496,1.7292673874180764e-05,1.0,0.48372364044189453,0.9377777576446533
497,2.487459460098762e-05,1.0,0.4839819371700287,0.9377777576446533
498,1.267143125005532e-05,1.0,0.4839496612548828,0.9377777576446533
499,2.2588808860746212e-05,1.0,0.48423290252685547,0.9377777576446533
500,1.5711864762124605e-05,1.0,0.48445436358451843,0.9377777576446533
501,1.4921673027856741e-05,1.0,0.4846537113189697,0.9377777576446533
502,5.916439477005042e-05,1.0,0.4845440685749054,0.9377777576446533
503,1.8563296180218458e-05,1.0,0.4842662811279297,0.9377777576446533
504,2.416620191070251e-05,1.0,0.48430371284484863,0.9380000233650208
505,1.7105750885093585e-05,1.0,0.48451367020606995,0.9380000233650208
506,1.5530147720710374e-05,1.0,0.48451051115989685,0.9380000233650208
507,1.0437867786095012e-05,1.0,0.4843730032444,0.9380000233650208
508,2.06113800231833e-05,1.0,0.48455196619033813,0.9380000233650208
509,1.4500866200251039e-05,1.0,0.48451149463653564,0.9380000233650208
510,4.164309939369559e-05,1.0,0.48525270819664,0.9382222294807434
511,1.8243092199554667e-05,1.0,0.48572731018066406,0.9380000233650208
512,3.2968211598927155e-05,1.0,0.48596176505088806,0.9382222294807434
513,2.6259829610353336e-05,1.0,0.4857924282550812,0.9382222294807434
514,8.151607289619278e-06,1.0,0.48548823595046997,0.9382222294807434
515,2.5297300453530625e-05,1.0,0.4855106472969055,0.9382222294807434
516,3.0018185498192906e-05,1.0,0.4855111837387085,0.9382222294807434
517,1.663894363446161e-05,1.0,0.4856224060058594,0.9380000233650208
518,1.4737493074790109e-05,1.0,0.4855769872665405,0.9380000233650208
519,1.4394315257959533e-05,1.0,0.48545020818710327,0.9382222294807434
520,2.7129450245411135e-05,1.0,0.4852466285228729,0.9382222294807434
521,1.5983971024979837e-05,1.0,0.4852430522441864,0.9380000233650208
522,2.2744416128261946e-05,1.0,0.4855528473854065,0.9380000233650208
523,3.3056538086384535e-05,1.0,0.4859463572502136,0.9382222294807434
524,1.4527574421663303e-05,1.0,0.48622021079063416,0.9382222294807434
525,2.091496207867749e-05,1.0,0.4864976108074188,0.9380000233650208
526,1.5188415090960916e-05,1.0,0.48645031452178955,0.9380000233650208
527,1.2728730325761717e-05,1.0,0.4864329397678375,0.9380000233650208
528,1.134388912760187e-05,1.0,0.48643186688423157,0.9380000233650208
529,2.6746442017611116e-05,1.0,0.48653775453567505,0.9377777576446533
530,2.55536288022995e-05,1.0,0.4866291284561157,0.9377777576446533
531,1.7438243958167732e-05,1.0,0.4867229759693146,0.9377777576446533
532,4.5003078412264585e-05,1.0,0.4872840642929077,0.9380000233650208
533,1.109825916500995e-05,1.0,0.4872738718986511,0.9380000233650208
534,2.4097464120131917e-05,1.0,0.48745566606521606,0.9382222294807434
535,2.0653144019888714e-05,1.0,0.48753294348716736,0.9380000233650208
536,9.934280569723342e-06,1.0,0.4874160587787628,0.9380000233650208
537,2.3932683689054102e-05,1.0,0.4878349006175995,0.9382222294807434
538,1.1114510016341228e-05,1.0,0.4881763756275177,0.9380000233650208
539,1.541216261102818e-05,1.0,0.488430380821228,0.9380000233650208
540,2.015827521972824e-05,1.0,0.4888142943382263,0.9380000233650208
541,9.264937943953555e-06,1.0,0.48891645669937134,0.9380000233650208
542,1.4174706848280039e-05,1.0,0.4889013171195984,0.9380000233650208
543,1.4040874702914152e-05,1.0,0.4887700080871582,0.9380000233650208
544,1.829265420383308e-05,1.0,0.48885563015937805,0.9380000233650208
545,1.7556196326040663e-05,1.0,0.4890259802341461,0.9380000233650208
546,1.6349264114978723e-05,1.0,0.4890517592430115,0.9380000233650208
547,1.7491996914031915e-05,1.0,0.4887980818748474,0.9380000233650208
548,1.2739903468172997e-05,1.0,0.48877012729644775,0.9380000233650208
549,1.3843670785718132e-05,1.0,0.4889039099216461,0.9380000233650208
550,9.466511073696893e-06,1.0,0.48891764879226685,0.9380000233650208
551,3.635372922872193e-05,1.0,0.4883497655391693,0.9377777576446533
552,1.646509554120712e-05,1.0,0.48801860213279724,0.9377777576446533
553,2.2288515538093634e-05,1.0,0.4882054030895233,0.9377777576446533
554,1.6959344065980986e-05,1.0,0.48819249868392944,0.9377777576446533
555,1.9875236830557697e-05,1.0,0.48845186829566956,0.9380000233650208
556,1.909151251311414e-05,1.0,0.4888592064380646,0.9382222294807434
557,1.3719088201469276e-05,1.0,0.48908746242523193,0.9382222294807434
558,1.284310837945668e-05,1.0,0.4892500638961792,0.9382222294807434
559,1.4419767467188649e-05,1.0,0.48948872089385986,0.9382222294807434
560,1.3753042367170565e-05,1.0,0.4896343946456909,0.9382222294807434
561,4.075410106452182e-05,1.0,0.48920539021492004,0.9382222294807434
562,2.8755581297446042e-05,1.0,0.48919764161109924,0.9380000233650208
563,1.6205272913794033e-05,1.0,0.48814377188682556,0.9377777576446533
564,1.4819332136539742e-05,1.0,0.48794302344322205,0.9377777576446533
565,1.0819489034474827e-05,1.0,0.48806262016296387,0.9377777576446533
566,2.4565904823248275e-05,1.0,0.4883652925491333,0.9377777576446533
567,7.925730642455164e-06,1.0,0.48846814036369324,0.9377777576446533
568,1.4351923709909897e-05,1.0,0.4884994626045227,0.9377777576446533
569,1.2079542102583218e-05,1.0,0.48852163553237915,0.9377777576446533
570,2.5409608497284353e-05,1.0,0.4889439046382904,0.9380000233650208
571,1.7390095308655873e-05,1.0,0.48931580781936646,0.9382222294807434
572,1.1302987331873737e-05,1.0,0.48953157663345337,0.9382222294807434
573,1.6804313418106176e-05,1.0,0.490038126707077,0.9382222294807434
574,2.6334300855523907e-05,1.0,0.4903319776058197,0.9382222294807434
575,1.1208396244910546e-05,1.0,0.49045297503471375,0.9382222294807434
576,1.3616207979794126e-05,1.0,0.4902864098548889,0.9380000233650208
577,1.726747359498404e-05,1.0,0.4903426170349121,0.9380000233650208
578,2.7235570087214e-05,1.0,0.4905494153499603,0.9382222294807434
579,2.6782265194924548e-05,1.0,0.4908481538295746,0.9377777576446533
580,1.8903252566815354e-05,1.0,0.49112430214881897,0.9380000233650208
581,2.1322848624549806e-05,1.0,0.4910372197628021,0.9380000233650208
582,2.784414573397953e-05,1.0,0.4908566474914551,0.9380000233650208
583,1.7261885659536347e-05,1.0,0.49091216921806335,0.9380000233650208
584,1.6135942132677883e-05,1.0,0.4910326600074768,0.9380000233650208
585,1.2063801477779634e-05,1.0,0.4911496341228485,0.9380000233650208
586,2.391324596828781e-05,1.0,0.49006205797195435,0.9380000233650208
587,1.4138404367258772e-05,1.0,0.48952430486679077,0.9382222294807434
588,1.601186340849381e-05,1.0,0.48979252576828003,0.9384444355964661
589,1.6618396330159158e-05,1.0,0.49000874161720276,0.9382222294807434
590,2.260950714116916e-05,1.0,0.49042701721191406,0.9384444355964661
591,1.289047304453561e-05,1.0,0.49076178669929504,0.9388889074325562
592,9.893492460832931e-06,1.0,0.49101248383522034,0.9388889074325562
593,2.150256659660954e-05,1.0,0.4914248585700989,0.9388889074325562
594,1.772535324562341e-05,1.0,0.49151724576950073,0.9388889074325562
595,1.1774750419135671e-05,1.0,0.4916072189807892,0.9384444355964661
596,1.7439037037547678e-05,1.0,0.4916496276855469,0.9380000233650208
597,8.428168257523794e-06,1.0,0.49164578318595886,0.9380000233650208
598,1.1602188351389486e-05,1.0,0.4918419122695923,0.9380000233650208
599,1.521823196526384e-05,1.0,0.49208593368530273,0.9380000233650208
600,7.262351573444903e-06,1.0,0.4923068583011627,0.9380000233650208
601,1.0003423085436225e-05,1.0,0.4924907088279724,0.9380000233650208
602,1.6033396605052985e-05,1.0,0.49285510182380676,0.9380000233650208
603,1.018782495521009e-05,1.0,0.49299198389053345,0.9380000233650208
604,1.3139964721631259e-05,1.0,0.49299854040145874,0.9380000233650208
605,8.301776688313112e-06,1.0,0.492984801530838,0.9380000233650208
606,1.0431116606923752e-05,1.0,0.4930877387523651,0.9380000233650208
607,1.284601694351295e-05,1.0,0.4933771789073944,0.9380000233650208
608,1.6988620700431056e-05,1.0,0.4934172034263611,0.9380000233650208
609,1.2837314898206387e-05,1.0,0.4935557246208191,0.9380000233650208
610,1.9985332983196713e-05,1.0,0.4938214421272278,0.9382222294807434
611,2.0989404220017605e-05,1.0,0.494115948677063,0.9380000233650208
612,8.564988092985004e-06,1.0,0.4941049814224243,0.9380000233650208
613,1.1044286111427937e-05,1.0,0.4942585825920105,0.9380000233650208
614,9.51590573095018e-06,1.0,0.49424201250076294,0.9382222294807434
615,1.3787249372398946e-05,1.0,0.49417757987976074,0.9382222294807434
616,1.0865806871152017e-05,1.0,0.4944785237312317,0.9382222294807434
617,1.906182114908006e-05,1.0,0.4948585629463196,0.9382222294807434
618,1.1389353858248796e-05,1.0,0.4951625466346741,0.9384444355964661
619,1.093831906473497e-05,1.0,0.49538931250572205,0.9384444355964661
620,0.00013308088819030672,1.0,0.5054311156272888,0.9397777915000916
621,2.7919597414438613e-05,1.0,0.509900689125061,0.9399999976158142
622,1.8295228073839098e-05,1.0,0.510156512260437,0.9399999976158142
623,1.3529156603908632e-05,1.0,0.5092652440071106,0.9399999976158142
624,1.7348493202007376e-05,1.0,0.5078990459442139,0.9402222037315369
625,2.3872291421866976e-05,1.0,0.5063542127609253,0.9399999976158142
626,8.68541519594146e-06,1.0,0.5047104358673096,0.9397777915000916
627,8.269872523669619e-06,1.0,0.5034545063972473,0.9393333196640015
628,1.0334494618291501e-05,1.0,0.5024834871292114,0.9391111135482788
629,1.3797791325487196e-05,1.0,0.5017183423042297,0.9386666417121887
630,2.039100399997551e-05,1.0,0.5001074075698853,0.9388889074325562
631,1.5320068996516056e-05,1.0,0.49937689304351807,0.9386666417121887
632,1.083939423551783e-05,1.0,0.49901074171066284,0.9384444355964661
633,1.1166018339281436e-05,1.0,0.49879470467567444,0.9386666417121887
634,1.201154100272106e-05,1.0,0.4985415041446686,0.9388889074325562
635,1.3966840015200432e-05,1.0,0.4982684552669525,0.9388889074325562
636,1.7125092199421488e-05,1.0,0.4976476728916168,0.9386666417121887
637,1.7761576600605622e-05,1.0,0.4973812401294708,0.9386666417121887
638,9.455165127292275e-06,1.0,0.4975234866142273,0.9386666417121887
639,2.4799915991025046e-05,1.0,0.49813318252563477,0.9386666417121887
640,1.1118956535938196e-05,1.0,0.4982537031173706,0.9388889074325562
641,1.1869771697092801e-05,1.0,0.4986439347267151,0.9388889074325562
642,1.1676454050757457e-05,1.0,0.49925336241722107,0.9386666417121887
643,1.428126051905565e-05,1.0,0.4997941553592682,0.9386666417121887
644,6.5280223680019844e-06,1.0,0.5000988841056824,0.9386666417121887
645,1.0917298823187593e-05,1.0,0.5003798604011536,0.9386666417121887
646,8.949730727181304e-06,1.0,0.5007763504981995,0.9386666417121887
647,7.1197637225850485e-06,1.0,0.5010796189308167,0.9386666417121887
648,1.872718166850973e-05,1.0,0.5008803009986877,0.9386666417121887
649,7.865676707297098e-06,1.0,0.5001169443130493,0.9384444355964661
650,8.818755304673687e-06,1.0,0.5000801682472229,0.9382222294807434
651,1.1333570000715554e-05,1.0,0.5000455975532532,0.9382222294807434
652,1.206766683026217e-05,1.0,0.5000137686729431,0.9382222294807434
653,1.0793520232255105e-05,1.0,0.5001946687698364,0.9382222294807434
654,1.3574767763202544e-05,1.0,0.5003377795219421,0.9382222294807434
655,1.5078323485795408e-05,1.0,0.5001463890075684,0.9382222294807434
656,7.824353815522045e-06,1.0,0.4999960958957672,0.9384444355964661
657,7.965149052324705e-06,1.0,0.4999321401119232,0.9384444355964661
658,1.9103417798760347e-05,1.0,0.500029444694519,0.9384444355964661
659,1.4010989616508596e-05,1.0,0.49927398562431335,0.9384444355964661
660,6.637218120886246e-06,1.0,0.4990823566913605,0.9384444355964661
661,9.849843081610743e-06,1.0,0.4995045065879822,0.9384444355964661
662,1.3806709830532782e-05,1.0,0.5001910924911499,0.9384444355964661
663,1.3174671948945615e-05,1.0,0.5004479885101318,0.9384444355964661
664,8.548256118956488e-06,1.0,0.5004935264587402,0.9384444355964661
665,3.113509592367336e-05,1.0,0.5001473426818848,0.9384444355964661
666,6.995075182203436e-06,1.0,0.4991004765033722,0.9382222294807434
667,2.0209028662065975e-05,1.0,0.4992285668849945,0.9382222294807434
668,9.62114518188173e-06,1.0,0.4996035099029541,0.9382222294807434
669,1.703738780634012e-05,1.0,0.500137448310852,0.9384444355964661
670,1.697531115496531e-05,1.0,0.5003464818000793,0.9384444355964661
671,5.538861387321958e-06,1.0,0.5003171563148499,0.9384444355964661
672,1.507384604337858e-05,1.0,0.500603199005127,0.9386666417121887
673,1.5883560990914702e-05,1.0,0.5011052489280701,0.9386666417121887
674,7.2907109824882355e-06,1.0,0.5012193322181702,0.9386666417121887
675,5.7527008721081074e-06,1.0,0.5014846324920654,0.9386666417121887
676,9.458653948968276e-06,1.0,0.5017022490501404,0.9386666417121887
677,2.5134319002972916e-05,1.0,0.501639187335968,0.9384444355964661
678,6.153972663014429e-06,1.0,0.5014419555664062,0.9384444355964661
679,1.0194393325946294e-05,1.0,0.501778781414032,0.9382222294807434
680,7.771546734147705e-06,1.0,0.5021984577178955,0.9382222294807434
681,1.0714249583543278e-05,1.0,0.5028128623962402,0.9382222294807434
682,2.516774293326307e-05,1.0,0.5037711262702942,0.9382222294807434
683,1.3184522686060518e-05,1.0,0.5045164227485657,0.9382222294807434
684,1.3994561413710471e-05,1.0,0.5049984455108643,0.9380000233650208
685,1.5717005226179026e-05,1.0,0.5050088763237,0.9382222294807434
686,1.5153023014136124e-05,1.0,0.5052329897880554,0.9382222294807434
687,1.5374367649201304e-05,1.0,0.5053744912147522,0.9382222294807434
688,1.0331105841032695e-05,1.0,0.5056043863296509,0.9382222294807434
689,1.4131997886579484e-05,1.0,0.5055614709854126,0.9382222294807434
690,1.615922519704327e-05,1.0,0.5056176781654358,0.9382222294807434
691,1.7313728676526807e-05,1.0,0.5054693818092346,0.9384444355964661
692,6.976371423661476e-06,1.0,0.5048965811729431,0.9384444355964661
693,8.753295333008282e-06,1.0,0.5051300525665283,0.9386666417121887
694,9.855231837718748e-06,1.0,0.5055391788482666,0.9386666417121887
695,1.6752654119045474e-05,1.0,0.5060473084449768,0.9384444355964661
696,4.980512130714487e-06,1.0,0.5061152577400208,0.9388889074325562
697,1.5751860701129772e-05,1.0,0.5053606033325195,0.9393333196640015
698,9.6625799415051e-06,1.0,0.5050091743469238,0.9397777915000916
699,8.430523848801386e-06,1.0,0.5049535632133484,0.9397777915000916
700,5.414397037384333e-06,1.0,0.5049322843551636,0.9397777915000916
701,2.322907130292151e-05,1.0,0.5042340159416199,0.9399999976158142
702,1.9183469703420997e-05,1.0,0.5044205188751221,0.9399999976158142
703,1.554679147375282e-05,1.0,0.5047545433044434,0.9397777915000916
704,8.296084160974715e-06,1.0,0.5051411390304565,0.9395555257797241
705,7.449826625816058e-06,1.0,0.5053796768188477,0.9397777915000916
706,9.069092811841983e-06,1.0,0.5052419900894165,0.9395555257797241
707,1.35446834974573e-05,1.0,0.5051566958427429,0.9393333196640015
708,1.7889313312480226e-05,1.0,0.5056089162826538,0.9393333196640015
709,2.0484965716605075e-05,1.0,0.5058574676513672,0.9397777915000916
710,1.0730936082836706e-05,1.0,0.5059633851051331,0.9399999976158142
711,6.509400009235833e-06,1.0,0.506216824054718,0.9399999976158142
712,1.5058536519063637e-05,1.0,0.5052435398101807,0.9384444355964661
713,7.085651304805651e-06,1.0,0.5054431557655334,0.9382222294807434
714,1.2598055946000386e-05,1.0,0.5055635571479797,0.9382222294807434
715,5.883286576136015e-06,1.0,0.5058333873748779,0.9384444355964661
716,1.418868123437278e-05,1.0,0.5063806176185608,0.9382222294807434
717,7.693586667301133e-06,1.0,0.5069858431816101,0.9382222294807434
718,1.0046267561847344e-05,1.0,0.5074715614318848,0.9382222294807434
719,2.002486326091457e-05,1.0,0.5081025958061218,0.9384444355964661
720,8.826100383885205e-06,1.0,0.5082356929779053,0.9382222294807434
721,7.234964414237766e-06,1.0,0.5084640383720398,0.9386666417121887
722,5.6443327594024595e-06,1.0,0.5086778402328491,0.9386666417121887
723,4.84459178551333e-06,1.0,0.5090498328208923,0.9386666417121887
724,2.0697236323030666e-05,1.0,0.5095626711845398,0.9384444355964661
725,7.2263055699295364e-06,1.0,0.5101547837257385,0.9380000233650208
726,8.044014975894243e-06,1.0,0.5104423761367798,0.9377777576446533
727,7.410519629047485e-06,1.0,0.5108240842819214,0.9377777576446533
728,1.0296298569301143e-05,1.0,0.5112535953521729,0.9384444355964661
729,1.4380669199454132e-05,1.0,0.511951744556427,0.9384444355964661
730,8.663617336424068e-06,1.0,0.5124537348747253,0.9384444355964661
731,1.2914210856251884e-05,1.0,0.5127493739128113,0.9377777576446533
732,9.145432159129996e-06,1.0,0.5131319165229797,0.9377777576446533
733,1.1167686352564488e-05,1.0,0.5132174491882324,0.9380000233650208
734,6.959227448533056e-06,1.0,0.5131334662437439,0.9380000233650208
735,1.5376348528661765e-05,1.0,0.51300448179245,0.9382222294807434
736,1.3551779375120532e-05,1.0,0.5127382278442383,0.9382222294807434
737,5.25646646565292e-06,1.0,0.5125468969345093,0.9382222294807434
738,9.11086408450501e-06,1.0,0.5127143263816833,0.9380000233650208
739,4.2395195123390295e-06,1.0,0.5124664902687073,0.9377777576446533
740,2.269929609610699e-05,1.0,0.5112113952636719,0.9382222294807434
741,6.6810612224799115e-06,1.0,0.5109196305274963,0.9380000233650208
742,8.404566870012786e-06,1.0,0.5111679434776306,0.9380000233650208
743,4.5911660890851635e-06,1.0,0.511591374874115,0.9382222294807434
744,4.939934115100186e-06,1.0,0.512115478515625,0.9382222294807434
745,7.752977580821607e-06,1.0,0.5128657221794128,0.9382222294807434
746,5.804414740850916e-06,1.0,0.5132481455802917,0.9384444355964661
747,1.6682497516740113e-05,1.0,0.513640284538269,0.9384444355964661
748,8.001316018635407e-06,1.0,0.5136362314224243,0.9386666417121887
749,6.220189789019059e-06,1.0,0.5143545269966125,0.9386666417121887
750,4.2840183596126735e-06,1.0,0.5146893858909607,0.9386666417121887
751,1.4740751794306561e-05,1.0,0.5152888894081116,0.9386666417121887
752,6.000166649755556e-06,1.0,0.5154694318771362,0.9386666417121887
753,4.76950026495615e-06,1.0,0.5154457688331604,0.9386666417121887
754,3.864492100547068e-06,1.0,0.5154543519020081,0.9386666417121887
755,8.177237759809941e-06,1.0,0.5157424807548523,0.9386666417121887
756,1.1124752745672595e-05,1.0,0.5162608623504639,0.9386666417121887
757,1.9781215087277815e-05,1.0,0.5177534818649292,0.9386666417121887
758,1.6544401660212316e-05,1.0,0.5185142159461975,0.9388889074325562
759,1.1151160833833274e-05,1.0,0.5187942981719971,0.9388889074325562
760,4.1005068851518445e-06,1.0,0.5187119841575623,0.9388889074325562
761,1.379980949423043e-05,1.0,0.518159806728363,0.9388889074325562
762,7.423832812492037e-06,1.0,0.5175226330757141,0.9388889074325562
763,8.348962182935793e-06,1.0,0.5172558426856995,0.9388889074325562
764,9.19670765142655e-06,1.0,0.5173053741455078,0.9388889074325562
765,4.350598374003312e-06,1.0,0.5172385573387146,0.9388889074325562
766,1.0635402759362478e-05,1.0,0.5174943208694458,0.9384444355964661
767,5.670645805366803e-06,1.0,0.517206609249115,0.9384444355964661
768,1.3003626918361988e-05,1.0,0.5173107385635376,0.9380000233650208
769,1.8561944671091624e-05,1.0,0.5173555016517639,0.9380000233650208
770,8.673876436660066e-06,1.0,0.5172951221466064,0.9384444355964661
771,7.3332794272573665e-06,1.0,0.5169411301612854,0.9386666417121887
772,4.561858531815233e-06,1.0,0.516961395740509,0.9386666417121887
773,5.8818959587370045e-06,1.0,0.5170978307723999,0.9386666417121887
774,2.2447295123129152e-05,1.0,0.517991840839386,0.9391111135482788
775,5.210925792198395e-06,1.0,0.5178014636039734,0.9391111135482788
776,7.283292234205874e-06,1.0,0.5180004239082336,0.9391111135482788
777,1.0212061170022935e-05,1.0,0.5184658169746399,0.9391111135482788
778,5.074645287095336e-06,1.0,0.5186352729797363,0.9391111135482788
779,4.9826339818537235e-06,1.0,0.5185472965240479,0.9388889074325562
780,8.401327249885071e-06,1.0,0.5184758305549622,0.9388889074325562
781,2.47329480771441e-05,1.0,0.5190477967262268,0.9388889074325562
782,5.212865744397277e-06,1.0,0.5191105604171753,0.9393333196640015
783,9.051729648490436e-06,1.0,0.5182768702507019,0.9388889074325562
784,4.445246759132715e-06,1.0,0.5176823735237122,0.9388889074325562
785,5.97485268372111e-06,1.0,0.5175159573554993,0.9388889074325562
786,7.4539116212690715e-06,1.0,0.5176282525062561,0.9388889074325562
787,7.333077519433573e-06,1.0,0.5176301598548889,0.9388889074325562
788,1.171457097370876e-05,1.0,0.5166937112808228,0.9391111135482788
789,7.0450164457724895e-06,1.0,0.5164721012115479,0.9391111135482788
790,3.7233410239423392e-06,1.0,0.5164838433265686,0.9391111135482788
791,8.518225513398647e-06,1.0,0.5169898271560669,0.9388889074325562
792,3.536433041517739e-06,1.0,0.5172408819198608,0.9388889074325562
793,6.995765488682082e-06,1.0,0.5175789594650269,0.9388889074325562
794,4.810732662008377e-06,1.0,0.5180562138557434,0.9388889074325562
795,5.064716788183432e-06,1.0,0.5184677243232727,0.9388889074325562
796,5.108767709316453e-06,1.0,0.5188588500022888,0.9388889074325562
797,4.149612777837319e-06,1.0,0.5191845893859863,0.9388889074325562
798,5.154546670382842e-06,1.0,0.519524097442627,0.9386666417121887
799,2.393747490714304e-05,1.0,0.5196744203567505,0.9386666417121887
