,loss,recall,val_loss,val_recall
0,1.1580458879470825,0.5756610576923077,0.44016775488853455,0.6831311960301326
1,0.5341171622276306,0.7369791666666666,0.34496062994003296,0.6857271353547949
2,0.4178287982940674,0.8139022435897435,0.3053150475025177,0.6993069305923915
3,0.3748632073402405,0.8463541666666666,0.28351980447769165,0.710526611390973
4,0.3737374246120453,0.8569568452380952,0.27097538113594055,0.7248294996965208
5,0.3413640856742859,0.8413318452380952,0.26236146688461304,0.7384954786151593
6,0.3115997910499573,0.8645833333333333,0.2561720013618469,0.7424890618640616
7,0.29371514916419983,0.8882068452380952,0.2511564791202545,0.7490668812078386
8,0.2803933620452881,0.9092548076923077,0.2453528493642807,0.7468783610007014
9,0.2653181552886963,0.8948174221611721,0.24446438252925873,0.7576006789703598
10,0.253885954618454,0.880859375,0.23774485290050507,0.7585628447596531
11,0.2559499144554138,0.8723958333333333,0.2368689924478531,0.780476372032223
12,0.2514595687389374,0.9149305555555555,0.23009398579597473,0.7675771189999911
13,0.2132638692855835,0.9326923076923077,0.23054823279380798,0.7905175936159982
14,0.20438040792942047,0.9137276785714286,0.22763046622276306,0.7741852547570635
15,0.18858471512794495,0.927734375,0.22742566466331482,0.7873594790749048
16,0.19061076641082764,0.9362980769230769,0.22327286005020142,0.7694412684439279
17,0.18417872488498688,0.9105902777777777,0.2232687771320343,0.7875937483517272
18,0.1836542934179306,0.9158854166666667,0.2208615243434906,0.7700749978941468
19,0.19375461339950562,0.8996000744047619,0.22560720145702362,0.816456875472833
20,0.1710764616727829,0.9262152777777777,0.2212717980146408,0.7654864545423054
21,0.16420044004917145,0.912405303030303,0.2197706699371338,0.7852050215348089
22,0.18331894278526306,0.88671875,0.21850813925266266,0.7825762299166553
23,0.17188672721385956,0.9069010416666667,0.22799882292747498,0.8108213890128783
24,0.15693023800849915,0.927662037037037,0.2223651260137558,0.7858309489958425
25,0.13846267759799957,0.953125,0.22029098868370056,0.7998380953168187
26,0.15280427038669586,0.90234375,0.22010132670402527,0.8212357105397888
27,0.1531699299812317,0.9370265151515151,0.2233363837003708,0.8013075950841908
28,0.1393529623746872,0.96484375,0.22008293867111206,0.7834017715932611
29,0.14299574494361877,0.9380787037037037,0.22426468133926392,0.8019262607959419
30,0.12631653249263763,0.9328703703703703,0.2190517634153366,0.8093405579841751
31,0.1219741553068161,0.9380787037037037,0.22401268780231476,0.7922343298939044
32,0.12886738777160645,0.9484953703703703,0.22872129082679749,0.8132933972384329
33,0.1352006494998932,0.9544270833333334,0.2203463613986969,0.8063777258990027
34,0.12781599164009094,0.9537037037037037,0.22700096666812897,0.8089426357068201
35,0.11613120138645172,0.96484375,0.22706711292266846,0.8065769322285281
36,0.13561619818210602,0.96875,0.22367307543754578,0.7941998053168268
37,0.11019913852214813,0.96484375,0.2294837385416031,0.7778096366793176
38,0.111593097448349,0.9352678571428571,0.22611409425735474,0.7885614661146582
39,0.11706333607435226,0.9630681818181818,0.23144127428531647,0.7831148174454914
40,0.10713709890842438,0.9253472222222222,0.22171775996685028,0.8025316857098774
41,0.09515073895454407,0.9380787037037037,0.2322015017271042,0.7938349131168281
42,0.09753169864416122,0.9345238095238095,0.2281186431646347,0.7849688387853283
43,0.10928095132112503,0.9397321428571429,0.2248392552137375,0.7842837747359027
44,0.1026928722858429,0.9300595238095237,0.22392933070659637,0.7820428143566444
45,0.12255369126796722,0.9388020833333334,0.26073625683784485,0.7949981762393113
46,0.10801908373832703,0.9328703703703703,0.23771682381629944,0.788309541620712
47,0.15103588998317719,0.9120370370370371,0.24170537292957306,0.7888851819968845
48,0.11614854633808136,0.9553571428571429,0.23577556014060974,0.7942011052383394
49,0.10314327478408813,0.9544270833333334,0.23605801165103912,0.7852695723307427
50,0.08783318102359772,0.94921875,0.23736122250556946,0.7931711073599373
51,0.0892622247338295,0.9227430555555556,0.23613660037517548,0.7950562853222427
52,0.09593357145786285,0.9397321428571429,0.24005907773971558,0.7921387118594566
53,0.08817820996046066,0.9397321428571429,0.24178944528102875,0.790172400983571
54,0.09861291944980621,0.9409722222222222,0.244522824883461,0.7864084836558242
55,0.0916876569390297,0.96484375,0.256065309047699,0.7843344111562198
56,0.09810168296098709,0.96875,0.2450622320175171,0.7919886845817697
57,0.08766021579504013,0.9479166666666666,0.25089699029922485,0.7870275606977737
58,0.08594657480716705,0.9305555555555556,0.247641459107399,0.796098431710134
59,0.08886000514030457,0.9293154761904763,0.25198572874069214,0.7975688281051757
60,0.08622974157333374,0.9618055555555556,0.24023623764514923,0.7833253724211172
61,0.08403269201517105,0.9605654761904763,0.25607308745384216,0.7891844247163398
62,0.0786978155374527,0.9553571428571429,0.2335405796766281,0.7866154531048148
63,0.09040281921625137,0.9224537037037037,0.2420330047607422,0.7877243368333796
64,0.092352494597435,0.9513888888888888,0.2557887136936188,0.7861267008208497
65,0.08345478773117065,0.9404761904761905,0.2538996934890747,0.790229352011267
66,0.0699339210987091,0.9678030303030303,0.2468261867761612,0.7798417574348429
67,0.08305332064628601,0.9188988095238095,0.25223082304000854,0.7964878848167856
68,0.07693985104560852,0.96875,0.2525499761104584,0.794793731190008
69,0.07666809856891632,0.9397321428571429,0.2616925537586212,0.7881648581914541
70,0.08603102713823318,0.9440972222222223,0.25651291012763977,0.7793776795505521
71,0.06875831633806229,0.9709821428571429,0.26546794176101685,0.7900815473599162
72,0.07031155377626419,0.9657738095238095,0.2518860399723053,0.7795395153506857
73,0.09694822132587433,0.9281580687830688,0.2694285809993744,0.7821789420193677
74,0.0726277232170105,0.9501869658119657,0.2639481723308563,0.7827687134247421
75,0.06900620460510254,0.9201388888888888,0.25419744849205017,0.7891464667129562
76,0.08033689111471176,0.9449404761904763,0.2603038549423218,0.7939172334429425
77,0.09849658608436584,0.9335937500000001,0.2592697739601135,0.7860030852717024
78,0.06658631563186646,0.9618055555555556,0.2686002552509308,0.7960775739233186
79,0.056622013449668884,0.94921875,0.26879867911338806,0.7804128146282403
80,0.06380510330200195,0.9375,0.2626144587993622,0.7777598312837678
81,0.07679963856935501,0.9605654761904763,0.25933998823165894,0.780170730569667
82,0.06600676476955414,0.9739583333333334,0.2731877863407135,0.7871945509179554
83,0.07633570581674576,0.9461805555555556,0.2608630657196045,0.7797901689524032
84,0.057393595576286316,0.9605654761904763,0.2709255814552307,0.7851335430723729
85,0.05489357188344002,0.9544270833333334,0.2656305432319641,0.7832556042263491
86,0.06903000921010971,0.9461805555555556,0.27086418867111206,0.7895729457697546
87,0.058309897780418396,0.9409722222222222,0.2592200040817261,0.7882144436532735
88,0.06321973353624344,0.9553571428571429,0.2750987112522125,0.7896423183790207
89,0.05463804304599762,0.9513888888888888,0.2728008031845093,0.7818396054300312
90,0.06788234412670135,0.9449404761904763,0.2669936418533325,0.7793122996979381
91,0.06582094728946686,0.9427083333333333,0.27404388785362244,0.7837541172381599
92,0.07267509400844574,0.9605654761904763,0.282429963350296,0.7840927561406282
93,0.06254260987043381,0.9565972222222222,0.26769545674324036,0.7876544579337131
94,0.058330047875642776,0.9618055555555556,0.2773524224758148,0.7839080664213642
95,0.057003479450941086,0.9618055555555556,0.27983522415161133,0.7846435454813115
96,0.07617868483066559,0.945138888888889,0.27248480916023254,0.775738280631898
97,0.05303783714771271,0.962594696969697,0.2734149396419525,0.7855349698567786
98,0.05423220619559288,0.9565972222222222,0.26655808091163635,0.7913951601983517
99,0.039500538259744644,0.9739583333333334,0.27398720383644104,0.7874307548243716
100,0.04775058850646019,0.9826388888888888,0.2808449864387512,0.7843251035804226
101,0.045133076608181,0.9657738095238095,0.2724822461605072,0.7910660242043223
102,0.04048311710357666,0.984375,0.2647790014743805,0.785560853153938
103,0.03920840471982956,0.9605654761904763,0.26979774236679077,0.7923693027815369
104,0.06201793625950813,0.9136904761904763,0.26568856835365295,0.787501084415978
105,0.043817415833473206,0.9544270833333334,0.2870636582374573,0.7870381683590905
106,0.05284828320145607,0.9583333333333334,0.2936548888683319,0.7839457887463209
107,0.06051887571811676,0.9618055555555556,0.2859736382961273,0.7880286951031632
108,0.05045640468597412,0.9253472222222222,0.27224037051200867,0.7858779046013089
109,0.03183925151824951,0.9826388888888888,0.2823233902454376,0.7891633071420306
110,0.046046290546655655,0.9461805555555556,0.28753259778022766,0.7764810406299768
111,0.03289654478430748,0.9583333333333334,0.2862217426300049,0.7892825756788523
112,0.027745509520173073,0.9722222222222222,0.3058721721172333,0.7894843449497705
113,0.040589362382888794,0.9409722222222222,0.2850326597690582,0.7796891780402418
114,0.03426864743232727,0.9670138888888888,0.29435455799102783,0.7831285425567339
115,0.027768775820732117,0.96875,0.28104403614997864,0.7883916639900683
116,0.039237383753061295,0.953125,0.297853946685791,0.7853420456611945
117,0.0381767600774765,0.9427083333333334,0.28370019793510437,0.7751715492938898
118,0.04372192546725273,0.9596354166666667,0.2973950207233429,0.7803161338267719
119,0.04247468709945679,0.9605654761904763,0.30392634868621826,0.7849171174570111
120,0.0500018484890461,0.946969696969697,0.28650781512260437,0.791647147671084
121,0.04583999142050743,0.9826388888888888,0.28056299686431885,0.7873956210259403
122,0.03877522796392441,0.9722222222222222,0.2802591919898987,0.7868763437114503
123,0.029606016352772713,0.9791666666666666,0.29024437069892883,0.7737890197863602
124,0.023045876994729042,0.9739583333333334,0.28841373324394226,0.7791889793618515
125,0.021796267479658127,0.9826388888888888,0.28356826305389404,0.7812082583492156
126,0.02686535194516182,0.9635416666666666,0.2949588894844055,0.7808955662147149
127,0.03719937428832054,0.9791666666666666,0.3154872953891754,0.7737918469434428
128,0.04244590178132057,0.9722222222222222,0.2848952114582062,0.7772885684055897
129,0.03232986479997635,0.9635416666666666,0.2983855903148651,0.7746981249640824
130,0.02207936719059944,0.9670138888888888,0.289775013923645,0.7745911520512585
131,0.03343348577618599,0.935763888888889,0.30292290449142456,0.7898949405598343
132,0.03995264321565628,0.9565972222222222,0.29549047350883484,0.8086270129266583
133,0.033492617309093475,0.9565972222222222,0.29258501529693604,0.7856806968642075
134,0.0243919026106596,0.96875,0.30737829208374023,0.7839445296626147
135,0.044121891260147095,0.96875,0.3038654923439026,0.7845842238927344
136,0.023200415074825287,0.9826388888888888,0.3053266108036041,0.7834001612060123
137,0.02253485471010208,0.953125,0.29873141646385193,0.7833108051326135
138,0.025014230981469154,0.96875,0.31936413049697876,0.7810494066611087
139,0.03640877455472946,0.9409722222222222,0.296261191368103,0.7849106606553415
140,0.035569701343774796,0.9618055555555556,0.3044685125350952,0.7818878383240085
141,0.03415551036596298,0.953125,0.3120487928390503,0.7929851615090973
142,0.027240263298153877,0.9565972222222222,0.29711195826530457,0.7866251011596757
143,0.023240983486175537,0.9722222222222222,0.2931012809276581,0.7867798124845998
144,0.03136898949742317,0.953125,0.3040599822998047,0.7882442562362777
145,0.022707432508468628,0.96875,0.3007388710975647,0.777043101697357
146,0.028886688873171806,0.96875,0.2915017306804657,0.7938503812971899
147,0.01175170298665762,0.984375,0.3047681748867035,0.779378353128353
148,0.013864638283848763,1.0,0.301809161901474,0.786469869767742
149,0.021073399111628532,0.9427083333333334,0.31234586238861084,0.7821831030474649
150,0.03608749061822891,0.9739583333333334,0.3067983090877533,0.780940723480617
151,0.0318133570253849,0.9565972222222222,0.31215551495552063,0.7757200959993513
152,0.018772311508655548,0.9895833333333334,0.3042648434638977,0.79052415128213
153,0.014210082590579987,1.0,0.298869788646698,0.791816361337638
154,0.012381359934806824,0.9982638888888888,0.3069150447845459,0.7851174160748627
155,0.011646503582596779,1.0,0.3131425380706787,0.7830024427896769
156,0.01841144450008869,0.9886363636363636,0.3264305591583252,0.7800136959179512
157,0.019679011777043343,0.9813988095238095,0.3197922706604004,0.7925363299033513
158,0.019881220534443855,0.9722222222222222,0.3047701418399811,0.7903978350254948
159,0.019154051318764687,0.9739583333333334,0.32020002603530884,0.7792760057121758
160,0.038248103111982346,0.9583333333333334,0.3043946623802185,0.7809900368543987
161,0.02680339477956295,0.984375,0.31552934646606445,0.7868911693113821
162,0.03247511386871338,0.9739583333333334,0.30912578105926514,0.7837273094320967
163,0.010351731441915035,1.0,0.3090004026889801,0.795140577015577
164,0.01332888938486576,0.9982638888888888,0.31139248609542847,0.784516976817509
165,0.01267359871417284,1.0,0.3153493106365204,0.7847992846397103
166,0.013174755498766899,0.9826388888888888,0.31995701789855957,0.7945841387729684
167,0.011334065347909927,1.0,0.31500953435897827,0.7858414871180829
168,0.02180146798491478,0.9709821428571429,0.30781522393226624,0.7892299819959394
169,0.06128521263599396,0.9427083333333334,0.30368566513061523,0.7855681094909818
170,0.03198966383934021,0.9618055555555556,0.31710880994796753,0.802919458070167
171,0.02797781676054001,0.9565972222222222,0.326054185628891,0.7966123199101924
172,0.009893234819173813,1.0,0.3305594027042389,0.7857088060678487
173,0.00868975929915905,1.0,0.32471558451652527,0.783859313952399
174,0.007448995020240545,1.0,0.32220080494880676,0.7816903589908911
175,0.0072356415912508965,0.984375,0.32278814911842346,0.7888153124456317
176,0.007348129525780678,1.0,0.3237781822681427,0.7871941302393431
177,0.007723230868577957,0.984375,0.32344838976860046,0.7951882406403684
178,0.010144082829356194,0.9878472222222222,0.3190372586250305,0.7898389780038717
179,0.005805189721286297,1.0,0.329454243183136,0.7864403568259952
180,0.009183064103126526,0.984375,0.3358671963214874,0.7823627972697123
181,0.0077106463722884655,1.0,0.33235007524490356,0.7792126480690311
182,0.005076147615909576,1.0,0.32570672035217285,0.7815748130907707
183,0.010496249422430992,0.9826388888888888,0.331822007894516,0.7839985600490921
184,0.013485198840498924,0.9826388888888888,0.32290247082710266,0.7832981459045291
185,0.007572072558104992,0.984375,0.32869574427604675,0.7858849041029892
186,0.006351899355649948,1.0,0.34084460139274597,0.7757680085871576
187,0.015310235321521759,1.0,0.34247875213623047,0.7754664341765404
188,0.019300969317555428,0.9826388888888888,0.3758411407470703,0.7602938575411976
189,0.03304055333137512,0.935763888888889,0.33026123046875,0.7848339598738534
190,0.017253777012228966,0.984375,0.3060382306575775,0.7831120086572214
191,0.03457500785589218,0.9553571428571429,0.31908243894577026,0.7792383089723515
192,0.024449359625577927,0.953125,0.34307751059532166,0.7664421123596655
193,0.017664318904280663,0.9739583333333334,0.3284757733345032,0.7978938176677538
194,0.018128642812371254,0.96875,0.3386102020740509,0.7813696705186065
195,0.008506323210895061,0.9886363636363636,0.34124556183815,0.7824415832394557
196,0.0072668748907744884,1.0,0.3278466761112213,0.7809794072161093
197,0.013741797767579556,0.96875,0.33611997961997986,0.7846515629760309
198,0.0055862488225102425,1.0,0.3395598530769348,0.7826835866064588
199,0.004461695905774832,1.0,0.34184372425079346,0.786073696791782
