,loss,recall,val_loss,val_recall
0,0.5021014213562012,0.75,0.8274380564689636,0.6399999856948853
1,0.381205290555954,0.8100000023841858,0.5225370526313782,0.6899999976158142
2,0.18846069276332855,0.9300000071525574,0.4362407326698303,0.7599999904632568
3,0.24794232845306396,0.8999999761581421,0.549896240234375,0.8600000143051147
4,0.16396979987621307,0.9399999976158142,0.5638555884361267,0.7400000095367432
5,0.21380649507045746,0.9399999976158142,0.4817693829536438,0.8399999737739563
6,0.13047243654727936,0.949999988079071,0.5347268581390381,0.7300000190734863
7,0.08698050677776337,0.9700000286102295,1.5436280965805054,0.36000001430511475
8,0.0960148498415947,0.949999988079071,2.097820281982422,0.36000001430511475
9,0.06369004398584366,0.9900000095367432,1.6315820217132568,0.36000001430511475
10,0.06878196448087692,0.9700000286102295,0.807595431804657,0.5799999833106995
11,0.04593074321746826,1.0,1.1627105474472046,0.36000001430511475
12,0.05007932335138321,0.9800000190734863,2.16557240486145,0.36000001430511475
13,0.022313451394438744,1.0,3.4986956119537354,0.36000001430511475
14,0.030628502368927002,0.9900000095367432,1.875256061553955,0.36000001430511475
15,0.04245710372924805,0.9700000286102295,1.7734184265136719,0.36000001430511475
16,0.06945919245481491,0.9700000286102295,1.6311548948287964,0.36000001430511475
17,0.19387556612491608,0.9200000166893005,0.7248439192771912,0.7400000095367432
18,0.15434470772743225,0.9399999976158142,2.0150628089904785,0.6399999856948853
19,0.1437634378671646,0.9399999976158142,0.4294407367706299,0.8399999737739563
20,0.1116093099117279,0.9399999976158142,0.4493180811405182,0.8199999928474426
21,0.0570559948682785,0.9800000190734863,0.47136086225509644,0.8100000023841858
22,0.05414532497525215,0.9900000095367432,0.4675755202770233,0.8299999833106995
23,0.03406858816742897,1.0,0.533007800579071,0.8100000023841858
24,0.03765515983104706,0.9900000095367432,0.7612563967704773,0.7099999785423279
25,0.03343326225876808,0.9900000095367432,0.512036144733429,0.8199999928474426
26,0.019255461171269417,1.0,0.26531317830085754,0.8799999952316284
27,0.014291400089859962,1.0,0.37081822752952576,0.8799999952316284
28,0.01001144852489233,1.0,0.7936462163925171,0.7699999809265137
29,0.04842374846339226,0.9800000190734863,0.3971218466758728,0.8100000023841858
30,0.07891251891851425,0.9800000190734863,1.0724433660507202,0.7400000095367432
31,0.09037824720144272,0.9700000286102295,0.39683228731155396,0.8500000238418579
32,0.03209507092833519,1.0,0.38431861996650696,0.8399999737739563
33,0.020398354157805443,0.9900000095367432,0.34376347064971924,0.8700000047683716
34,0.009127168916165829,1.0,0.41415926814079285,0.8600000143051147
35,0.012656204402446747,1.0,0.3932550847530365,0.8600000143051147
36,0.020882580429315567,0.9900000095367432,0.31088054180145264,0.8899999856948853
37,0.04854375496506691,0.9800000190734863,0.49180713295936584,0.8299999833106995
38,0.020871272310614586,1.0,0.44224345684051514,0.8600000143051147
39,0.013759280554950237,1.0,0.6439101696014404,0.8100000023841858
40,0.04482705518603325,0.9800000190734863,0.5241241455078125,0.8399999737739563
41,0.09781799465417862,0.9599999785423279,0.6601513624191284,0.8799999952316284
42,0.03513491526246071,0.9900000095367432,1.561745285987854,0.7099999785423279
43,0.022299189120531082,1.0,3.518505811691284,0.6700000166893005
44,0.01903110183775425,1.0,2.2891416549682617,0.7099999785423279
45,0.01592898741364479,1.0,1.3224759101867676,0.7400000095367432
46,0.007334655616432428,1.0,0.6783485412597656,0.8299999833106995
47,0.004603630397468805,1.0,0.5602211952209473,0.8700000047683716
48,0.01065580453723669,1.0,0.5641610622406006,0.8799999952316284
49,0.0027653875295072794,1.0,0.5715291500091553,0.8799999952316284
50,0.005498636979609728,1.0,0.46855202317237854,0.8799999952316284
51,0.0009847418405115604,1.0,0.3804231286048889,0.9100000262260437
52,0.0027214151341468096,1.0,0.36429986357688904,0.9300000071525574
53,0.0016270816558972,1.0,0.3707970678806305,0.9200000166893005
54,0.0009535191347822547,1.0,0.389236718416214,0.9100000262260437
55,0.0107755521312356,1.0,0.3788791000843048,0.9200000166893005
56,0.006055586505681276,1.0,0.434690922498703,0.9200000166893005
57,0.03402281180024147,0.9800000190734863,0.5137230157852173,0.8700000047683716
58,0.06372657418251038,0.9700000286102295,0.37788620591163635,0.9100000262260437
59,0.03789347782731056,0.9900000095367432,0.743043839931488,0.8299999833106995
60,0.09067440778017044,0.9700000286102295,1.2675440311431885,0.7599999904632568
61,0.10923244804143906,0.9599999785423279,1.4517549276351929,0.699999988079071
62,0.14525514841079712,0.9300000071525574,0.8003876209259033,0.8299999833106995
63,0.024286730214953423,1.0,0.4443608224391937,0.8700000047683716
64,0.021003849804401398,0.9900000095367432,0.37004685401916504,0.8999999761581421
65,0.013364042155444622,1.0,0.35037827491760254,0.9100000262260437
66,0.006186008453369141,1.0,0.33111754059791565,0.9200000166893005
67,0.005034274887293577,1.0,0.36399567127227783,0.9100000262260437
68,0.0012506676139310002,1.0,0.3721419870853424,0.9100000262260437
69,0.0043555740267038345,1.0,0.3631354868412018,0.9100000262260437
70,0.0010913709411397576,1.0,0.3505699634552002,0.9200000166893005
71,0.0007310619112104177,1.0,0.3530743420124054,0.9300000071525574
72,0.0005506791057996452,1.0,0.3565799593925476,0.9200000166893005
73,0.0007922797813080251,1.0,0.3570527732372284,0.9300000071525574
74,0.0008906450239010155,1.0,0.3621585965156555,0.9200000166893005
75,0.0005392883904278278,1.0,0.36680546402931213,0.9200000166893005
76,0.0009272982715629041,1.0,0.36592233180999756,0.9200000166893005
77,0.0002964779851026833,1.0,0.3572053015232086,0.9300000071525574
78,0.00228794920258224,1.0,0.3622376322746277,0.9300000071525574
79,0.0006645203102380037,1.0,0.37106919288635254,0.9200000166893005
80,0.0008476267103105783,1.0,0.36733460426330566,0.9300000071525574
81,0.0006816216045990586,1.0,0.36152884364128113,0.9300000071525574
82,0.00188901973888278,1.0,0.37981247901916504,0.9200000166893005
83,0.0040875207632780075,1.0,0.3730633556842804,0.9200000166893005
84,0.0018203472718596458,1.0,0.3731042742729187,0.9200000166893005
85,0.0003304995479993522,1.0,0.37596261501312256,0.9200000166893005
86,0.0027757277712225914,1.0,0.390117883682251,0.9100000262260437
87,0.00037738936953246593,1.0,0.4047580659389496,0.9100000262260437
88,0.00047789234668016434,1.0,0.4043479561805725,0.9100000262260437
89,0.0012290064478293061,1.0,0.39199191331863403,0.9100000262260437
90,0.0008002195972949266,1.0,0.38685402274131775,0.9100000262260437
91,0.0005536921671591699,1.0,0.3895278871059418,0.9100000262260437
92,0.001563059282489121,1.0,0.39395588636398315,0.9100000262260437
93,0.0004049879207741469,1.0,0.3906451165676117,0.9100000262260437
94,0.00029563208227045834,1.0,0.38857510685920715,0.9100000262260437
95,0.0007513787713833153,1.0,0.39465996623039246,0.9100000262260437
96,0.002322754357010126,1.0,0.41256922483444214,0.9100000262260437
97,0.0006876907427795231,1.0,0.44452202320098877,0.8700000047683716
98,0.000807751202955842,1.0,0.4441915452480316,0.8700000047683716
99,0.0004913491429761052,1.0,0.4288828372955322,0.8899999856948853
100,0.0005470998585224152,1.0,0.42071422934532166,0.8899999856948853
101,0.0004430623084772378,1.0,0.4126821756362915,0.9100000262260437
102,0.0008887135190889239,1.0,0.39393264055252075,0.8999999761581421
103,0.00017209822544828057,1.0,0.3888755738735199,0.8999999761581421
104,0.0003006065671797842,1.0,0.38980308175086975,0.8999999761581421
105,0.0035316827706992626,1.0,0.41714370250701904,0.8999999761581421
106,0.0002719598705880344,1.0,0.41396644711494446,0.8999999761581421
107,0.00014121252752374858,1.0,0.41581496596336365,0.8999999761581421
108,0.0009607614483684301,1.0,0.4131110906600952,0.8999999761581421
109,0.00018977522267960012,1.0,0.40444836020469666,0.8999999761581421
110,0.0009689355501905084,1.0,0.4094398617744446,0.8999999761581421
111,0.001263467245735228,1.0,0.4127275049686432,0.8999999761581421
112,0.00014407586422748864,1.0,0.4152991473674774,0.9100000262260437
113,0.0003652628802228719,1.0,0.4172183871269226,0.9100000262260437
114,0.0019732953514903784,1.0,0.40163829922676086,0.9200000166893005
115,0.00039730078424327075,1.0,0.39220646023750305,0.9200000166893005
116,0.002315675839781761,1.0,0.36250069737434387,0.9100000262260437
117,0.0007225610315799713,1.0,0.39576417207717896,0.8799999952316284
118,0.0028172461315989494,1.0,0.539756715297699,0.8899999856948853
119,0.0009380555711686611,1.0,0.6742410063743591,0.8399999737739563
120,0.0005574732786044478,1.0,0.6340356469154358,0.8500000238418579
121,0.0006497603608295321,1.0,0.5445070266723633,0.8700000047683716
122,0.00030967325437813997,1.0,0.4959692358970642,0.8899999856948853
123,0.0003376825770828873,1.0,0.45926398038864136,0.8899999856948853
124,0.0006547138909809291,1.0,0.435840368270874,0.8899999856948853
125,8.73402677825652e-05,1.0,0.41506075859069824,0.9100000262260437
126,0.0008189997170120478,1.0,0.4051471948623657,0.9100000262260437
127,0.0003351852938067168,1.0,0.4009271264076233,0.9200000166893005
128,0.00024634564761072397,1.0,0.4018571376800537,0.9200000166893005
129,0.0004117542994208634,1.0,0.4054640233516693,0.9200000166893005
130,7.759833533782512e-05,1.0,0.4085958003997803,0.9200000166893005
131,0.00020903738914057612,1.0,0.40998905897140503,0.9200000166893005
132,0.00022381929738912731,1.0,0.41052666306495667,0.9200000166893005
133,6.84228798490949e-05,1.0,0.41242364048957825,0.9200000166893005
134,0.00019963076920248568,1.0,0.4147661626338959,0.9200000166893005
135,0.0004447934334166348,1.0,0.4125439524650574,0.9200000166893005
136,0.0006229401333257556,1.0,0.41751331090927124,0.9200000166893005
137,9.285156556870788e-05,1.0,0.42458590865135193,0.9100000262260437
138,0.0002133000671165064,1.0,0.42934325337409973,0.9100000262260437
139,0.001614526379853487,1.0,0.42045876383781433,0.9200000166893005
140,0.0006717604119330645,1.0,0.44551414251327515,0.9300000071525574
141,0.0005052310298196971,1.0,0.43545615673065186,0.9200000166893005
142,0.00014358108455780894,1.0,0.41948962211608887,0.9200000166893005
143,0.001040833885781467,1.0,0.4075198471546173,0.9100000262260437
144,0.00039195024874061346,1.0,0.40608635544776917,0.9100000262260437
145,0.000661746715195477,1.0,0.4139660596847534,0.8999999761581421
146,0.0001516410702606663,1.0,0.4071352481842041,0.8999999761581421
147,6.30870636086911e-05,1.0,0.4068751037120819,0.9100000262260437
148,8.245277422247455e-05,1.0,0.4118344187736511,0.9100000262260437
149,0.001613816013559699,1.0,0.4093936085700989,0.9100000262260437
150,0.001619844464585185,1.0,0.40301990509033203,0.9100000262260437
151,4.7248722694348544e-05,1.0,0.4231511056423187,0.9100000262260437
152,0.0005221890169195831,1.0,0.43547287583351135,0.9200000166893005
153,0.0009456104598939419,1.0,0.43421027064323425,0.9200000166893005
154,0.00011427371646277606,1.0,0.43363943696022034,0.8999999761581421
155,0.0001385090872645378,1.0,0.4392901360988617,0.9100000262260437
156,0.001108401920646429,1.0,0.48197034001350403,0.9100000262260437
157,0.0008062054985202849,1.0,0.49742045998573303,0.8999999761581421
158,0.00013516707986127585,1.0,0.49350279569625854,0.8999999761581421
159,0.00014545097656082362,1.0,0.483442485332489,0.9200000166893005
160,5.325646998244338e-05,1.0,0.47052374482154846,0.9200000166893005
161,0.00010502867371542379,1.0,0.46198880672454834,0.9200000166893005
162,0.000388569722417742,1.0,0.44572028517723083,0.9399999976158142
163,9.559118188917637e-05,1.0,0.43024948239326477,0.9300000071525574
164,9.130454418482259e-05,1.0,0.4260272979736328,0.9200000166893005
165,0.0004065920365974307,1.0,0.4288696348667145,0.9200000166893005
166,0.00013967457925900817,1.0,0.4368653893470764,0.9300000071525574
167,0.00020234972180332989,1.0,0.4340764582157135,0.9200000166893005
168,5.7156994444085285e-05,1.0,0.43453314900398254,0.9200000166893005
169,0.00039820457459427416,1.0,0.4263290762901306,0.9200000166893005
170,0.0001355744752800092,1.0,0.4183986186981201,0.9200000166893005
171,8.596210682298988e-05,1.0,0.4194602072238922,0.9200000166893005
172,5.279848846839741e-05,1.0,0.42181822657585144,0.9200000166893005
173,4.3902200559386984e-05,1.0,0.4244503080844879,0.9200000166893005
174,0.0005894089699722826,1.0,0.4299324154853821,0.9200000166893005
175,0.00023661575687583536,1.0,0.43698471784591675,0.9200000166893005
176,0.00042205702629871666,1.0,0.45008400082588196,0.9200000166893005
177,0.00018562836339697242,1.0,0.4550972878932953,0.9200000166893005
178,3.055206616409123e-05,1.0,0.4505317807197571,0.9200000166893005
179,8.367639384232461e-05,1.0,0.44827765226364136,0.9200000166893005
180,4.158801311859861e-05,1.0,0.4479852318763733,0.9200000166893005
181,0.00032222919980995357,1.0,0.44562819600105286,0.9200000166893005
182,6.715540075674653e-05,1.0,0.4438903331756592,0.9200000166893005
183,0.0002447703736834228,1.0,0.4482191205024719,0.9200000166893005
184,0.0003964844217989594,1.0,0.4548405408859253,0.9200000166893005
185,9.280868107452989e-05,1.0,0.4587157368659973,0.9200000166893005
186,3.56493765139021e-05,1.0,0.46007561683654785,0.9200000166893005
187,3.154142905259505e-05,1.0,0.4608072340488434,0.9200000166893005
188,0.00012154497380834073,1.0,0.46048301458358765,0.9200000166893005
189,0.00011965249723289162,1.0,0.462076872587204,0.9300000071525574
190,0.0004661776765715331,1.0,0.4663732945919037,0.9200000166893005
191,0.00011195824481546879,1.0,0.4707157015800476,0.9200000166893005
192,0.00029175900272093713,1.0,0.47024545073509216,0.9200000166893005
193,0.00010844423377420753,1.0,0.46685439348220825,0.9200000166893005
194,0.00014729048416484147,1.0,0.46463438868522644,0.9300000071525574
195,0.00010978334466926754,1.0,0.4636324346065521,0.9300000071525574
196,2.1785026547149755e-05,1.0,0.4634130001068115,0.9200000166893005
197,7.732443191343918e-05,1.0,0.46300292015075684,0.9300000071525574
198,2.627405774546787e-05,1.0,0.46253058314323425,0.9300000071525574
199,0.0003395992098376155,1.0,0.4626985192298889,0.9200000166893005
200,9.585068619344383e-05,1.0,0.46207332611083984,0.9200000166893005
201,0.0003739199019037187,1.0,0.46395114064216614,0.9200000166893005
202,0.00011343967344146222,1.0,0.465592622756958,0.9200000166893005
203,0.00022144988179206848,1.0,0.46796202659606934,0.9200000166893005
204,0.00013464911899063736,1.0,0.46837639808654785,0.9200000166893005
205,0.00047375261783599854,1.0,0.47309648990631104,0.9200000166893005
206,0.00010915570601355284,1.0,0.47865182161331177,0.9200000166893005
207,0.0003197001351509243,1.0,0.47995924949645996,0.9200000166893005
208,0.00045977250556461513,1.0,0.48835036158561707,0.9200000166893005
209,2.7159778255736455e-05,1.0,0.4918043911457062,0.9200000166893005
210,5.3296676924219355e-05,1.0,0.49056652188301086,0.9200000166893005
211,0.0003245824482291937,1.0,0.4881642162799835,0.9200000166893005
212,0.00016638827219139785,1.0,0.48554396629333496,0.9200000166893005
213,8.786053513176739e-05,1.0,0.483110249042511,0.9200000166893005
214,0.0004167598090134561,1.0,0.4785706400871277,0.9100000262260437
215,0.00018079350411426276,1.0,0.4634116291999817,0.9100000262260437
216,9.621736535336822e-05,1.0,0.4570247530937195,0.9200000166893005
217,4.9646947445580736e-05,1.0,0.45628678798675537,0.9200000166893005
218,4.708328197011724e-05,1.0,0.45700064301490784,0.9200000166893005
219,3.3117619750555605e-05,1.0,0.45836764574050903,0.9200000166893005
220,4.5525343011831865e-05,1.0,0.46008700132369995,0.9200000166893005
221,4.7796427679713815e-05,1.0,0.461342990398407,0.9200000166893005
222,0.00013218050298746675,1.0,0.4622524380683899,0.9200000166893005
223,8.530565537512302e-05,1.0,0.46442198753356934,0.9200000166893005
224,3.4018255973933265e-05,1.0,0.46565330028533936,0.9200000166893005
225,0.00028188928263261914,1.0,0.468077152967453,0.9200000166893005
226,1.6312093066517264e-05,1.0,0.4694948196411133,0.9200000166893005
227,6.015354301780462e-05,1.0,0.4700082838535309,0.9200000166893005
228,0.00011266302317380905,1.0,0.471689909696579,0.9200000166893005
229,4.154392081545666e-05,1.0,0.47319918870925903,0.9200000166893005
230,0.0003549541288521141,1.0,0.4666132628917694,0.9200000166893005
231,2.3194554159999825e-05,1.0,0.4647842347621918,0.9200000166893005
232,9.858664998319e-05,1.0,0.46637165546417236,0.9200000166893005
233,3.095503052463755e-05,1.0,0.46759864687919617,0.9200000166893005
234,0.00011644599726423621,1.0,0.46859413385391235,0.9200000166893005
235,0.00018510040536057204,1.0,0.47086551785469055,0.9200000166893005
236,6.655596371274441e-05,1.0,0.47176456451416016,0.9200000166893005
237,0.0010582928080111742,1.0,0.4728603661060333,0.9200000166893005
238,8.443903061561286e-05,1.0,0.47348934412002563,0.9300000071525574
239,2.9348449970711954e-05,1.0,0.4747393727302551,0.9200000166893005
240,0.00019424111815169454,1.0,0.4758780002593994,0.9200000166893005
241,1.244760824192781e-05,1.0,0.47640061378479004,0.9200000166893005
242,0.00010270597704220563,1.0,0.4767507314682007,0.9200000166893005
243,0.00014520538388751447,1.0,0.4762520492076874,0.9200000166893005
244,4.670413181884214e-05,1.0,0.47571510076522827,0.9200000166893005
245,5.545772728510201e-05,1.0,0.4755449593067169,0.9200000166893005
246,2.2432701371144503e-05,1.0,0.47548961639404297,0.9200000166893005
247,8.239257294917479e-05,1.0,0.4755939543247223,0.9200000166893005
248,3.509352245600894e-05,1.0,0.4753861725330353,0.9200000166893005
249,3.388918048585765e-05,1.0,0.4754582643508911,0.9200000166893005
250,4.215637090965174e-05,1.0,0.47539177536964417,0.9200000166893005
251,4.861968045588583e-05,1.0,0.4755614399909973,0.9200000166893005
252,1.6377576685044914e-05,1.0,0.4757569134235382,0.9200000166893005
253,8.434924529865384e-05,1.0,0.4759535491466522,0.9200000166893005
254,7.204406574601308e-05,1.0,0.47631698846817017,0.9200000166893005
255,5.521345519809984e-05,1.0,0.47647035121917725,0.9200000166893005
256,3.931407263735309e-05,1.0,0.4762676954269409,0.9200000166893005
257,0.00015031766088213772,1.0,0.47753897309303284,0.9200000166893005
258,0.0004461651260498911,1.0,0.47881844639778137,0.9300000071525574
259,1.775321834429633e-05,1.0,0.4776507318019867,0.9300000071525574
260,1.5903169696684927e-05,1.0,0.47667139768600464,0.9300000071525574
261,6.896512786624953e-05,1.0,0.4763339161872864,0.9300000071525574
262,6.096368815633468e-05,1.0,0.4758981764316559,0.9300000071525574
263,3.088594166911207e-05,1.0,0.47507697343826294,0.9300000071525574
264,1.720943873806391e-05,1.0,0.4745404124259949,0.9300000071525574
265,5.061692718300037e-05,1.0,0.4741138815879822,0.9300000071525574
266,0.0006022654706612229,1.0,0.478097528219223,0.9200000166893005
267,0.00021117625874467194,1.0,0.4819536507129669,0.9200000166893005
268,3.9647686207899824e-05,1.0,0.48690348863601685,0.9200000166893005
269,8.808863640297204e-05,1.0,0.48838353157043457,0.9200000166893005
270,7.13085028110072e-05,1.0,0.48810645937919617,0.9200000166893005
271,2.336660872970242e-05,1.0,0.48730048537254333,0.9200000166893005
272,1.4315442967927083e-05,1.0,0.4867936968803406,0.9200000166893005
273,4.970734516973607e-05,1.0,0.48686057329177856,0.9200000166893005
274,4.342069223639555e-05,1.0,0.48651841282844543,0.9200000166893005
275,4.4846441596746445e-05,1.0,0.48610183596611023,0.9200000166893005
276,2.7633273930405267e-05,1.0,0.4857434928417206,0.9200000166893005
277,6.711453897878528e-05,1.0,0.48541194200515747,0.9200000166893005
278,0.00016253167996183038,1.0,0.4855773150920868,0.9200000166893005
279,3.1533203582512215e-05,1.0,0.4849706292152405,0.9200000166893005
280,0.00029190321220085025,1.0,0.4842049777507782,0.9200000166893005
281,5.1991235523018986e-05,1.0,0.4833514392375946,0.9200000166893005
282,6.299588130787015e-05,1.0,0.48316243290901184,0.9200000166893005
283,3.7066038203192875e-05,1.0,0.4827973544597626,0.9200000166893005
284,0.0003224342071916908,1.0,0.4836195409297943,0.9200000166893005
285,4.114385592401959e-05,1.0,0.484121173620224,0.9300000071525574
286,0.00037016402347944677,1.0,0.48525235056877136,0.9300000071525574
287,1.596858237462584e-05,1.0,0.48501652479171753,0.9300000071525574
288,0.00029097122023813426,1.0,0.4848736524581909,0.9300000071525574
289,0.00012658869673032314,1.0,0.4848359227180481,0.9300000071525574
290,0.00019986268307548016,1.0,0.4851148724555969,0.9300000071525574
291,4.304672256694175e-05,1.0,0.4861055612564087,0.9300000071525574
292,0.0002904193534050137,1.0,0.48717454075813293,0.9300000071525574
293,0.0004790123493876308,1.0,0.48634469509124756,0.9300000071525574
294,8.762790821492672e-05,1.0,0.4844435155391693,0.9300000071525574
295,3.421704604988918e-05,1.0,0.4838733673095703,0.9200000166893005
296,4.7062800149433315e-05,1.0,0.48354825377464294,0.9200000166893005
297,4.6459190343739465e-05,1.0,0.4839200973510742,0.9200000166893005
298,8.228763908846304e-05,1.0,0.4849413335323334,0.9200000166893005
299,5.6026241509243846e-05,1.0,0.4854387640953064,0.9200000166893005
300,4.7691188228782266e-05,1.0,0.4853508770465851,0.9200000166893005
301,2.8848509828094393e-05,1.0,0.4852603077888489,0.9200000166893005
302,0.00019947819237131625,1.0,0.4862484037876129,0.9300000071525574
303,0.0002972714719362557,1.0,0.48884686827659607,0.9300000071525574
304,6.373345240717754e-05,1.0,0.49017560482025146,0.9300000071525574
305,8.088862523436546e-05,1.0,0.49037542939186096,0.9300000071525574
306,0.00012478929420467466,1.0,0.49023064970970154,0.9300000071525574
307,6.537188892252743e-05,1.0,0.4896879494190216,0.9300000071525574
308,0.0001921032671816647,1.0,0.49002090096473694,0.9300000071525574
309,0.00032757152803242207,1.0,0.4909549653530121,0.9300000071525574
310,1.5859206541790627e-05,1.0,0.49100053310394287,0.9300000071525574
311,6.249413854675367e-05,1.0,0.49105027318000793,0.9300000071525574
312,1.3562789717980195e-05,1.0,0.49045953154563904,0.9300000071525574
313,0.00026986398734152317,1.0,0.4897115230560303,0.9300000071525574
314,2.973726441268809e-05,1.0,0.48740172386169434,0.9300000071525574
315,3.893158645951189e-05,1.0,0.48648661375045776,0.9300000071525574
316,0.00040339562110602856,1.0,0.4872662425041199,0.9300000071525574
317,5.3689509513787925e-05,1.0,0.48774993419647217,0.9200000166893005
318,1.3168573786970228e-05,1.0,0.48774293065071106,0.9200000166893005
319,2.4371936888201162e-05,1.0,0.4876282513141632,0.9200000166893005
320,7.171845209086314e-05,1.0,0.4875052273273468,0.9200000166893005
321,6.845359894214198e-05,1.0,0.4876953959465027,0.9200000166893005
322,5.4157360864337534e-05,1.0,0.48762229084968567,0.9200000166893005
323,0.00019992007582914084,1.0,0.4881705939769745,0.9200000166893005
324,7.59112008381635e-05,1.0,0.4881466329097748,0.9200000166893005
325,2.0622623196686618e-05,1.0,0.4877677857875824,0.9200000166893005
326,9.421123104402795e-05,1.0,0.4881029427051544,0.9200000166893005
327,2.7991623937850818e-05,1.0,0.48823440074920654,0.9200000166893005
328,4.6158773329807445e-05,1.0,0.4886114001274109,0.9200000166893005
329,2.9545253710239194e-05,1.0,0.48880836367607117,0.9200000166893005
330,6.631974247284234e-05,1.0,0.4890303909778595,0.9200000166893005
331,0.0002802268718369305,1.0,0.488844633102417,0.9200000166893005
332,5.445436909212731e-05,1.0,0.4886288344860077,0.9200000166893005
333,7.35661742510274e-05,1.0,0.48846352100372314,0.9300000071525574
334,5.01708964293357e-05,1.0,0.48810988664627075,0.9200000166893005
335,7.410842954413965e-05,1.0,0.488066166639328,0.9300000071525574
336,2.8161392037873156e-05,1.0,0.4877713918685913,0.9200000166893005
337,2.336166835448239e-05,1.0,0.4875926971435547,0.9200000166893005
338,0.00019864233036059886,1.0,0.48811760544776917,0.9200000166893005
339,3.6595625715563074e-05,1.0,0.48841342329978943,0.9200000166893005
340,0.00024689838755875826,1.0,0.4896799325942993,0.9300000071525574
341,5.261320620775223e-05,1.0,0.4902900755405426,0.9300000071525574
342,2.4988248696899973e-05,1.0,0.4901505410671234,0.9300000071525574
343,2.2084053853177465e-05,1.0,0.48972588777542114,0.9300000071525574
344,2.8906109946547076e-05,1.0,0.4894873797893524,0.9300000071525574
345,0.0003900640003848821,1.0,0.48764732480049133,0.9200000166893005
346,2.6508969312999398e-05,1.0,0.4867583215236664,0.9200000166893005
347,0.00021471205400303006,1.0,0.48749133944511414,0.9300000071525574
348,1.6105739632621408e-05,1.0,0.4874623119831085,0.9300000071525574
349,2.6763216737890616e-05,1.0,0.4875856041908264,0.9300000071525574
350,2.319565464858897e-05,1.0,0.48746436834335327,0.9300000071525574
351,7.231919880723581e-05,1.0,0.48787933588027954,0.9300000071525574
352,0.00022051236010156572,1.0,0.48919326066970825,0.9300000071525574
353,4.711021756520495e-05,1.0,0.4897615909576416,0.9300000071525574
354,6.258896610233933e-05,1.0,0.4898497760295868,0.9300000071525574
355,0.00044679283746518195,1.0,0.4908527433872223,0.9300000071525574
356,3.0017257813597098e-05,1.0,0.49110299348831177,0.9300000071525574
357,0.0001410146796843037,1.0,0.4912334084510803,0.9300000071525574
358,0.002177484566345811,1.0,0.49120280146598816,0.9200000166893005
359,0.00029476426425389946,1.0,0.48941439390182495,0.9200000166893005
360,7.107035344233736e-05,1.0,0.48879721760749817,0.9200000166893005
361,2.764328382909298e-05,1.0,0.4871631860733032,0.9200000166893005
362,3.755720172193833e-05,1.0,0.48554474115371704,0.9200000166893005
363,0.00016518084157723933,1.0,0.484232634305954,0.9200000166893005
364,0.00025435417774133384,1.0,0.4809945821762085,0.9200000166893005
365,2.455233880027663e-05,1.0,0.4791502356529236,0.9200000166893005
366,3.4360979043412954e-05,1.0,0.47813665866851807,0.9300000071525574
367,3.457401180639863e-05,1.0,0.47817176580429077,0.9300000071525574
368,5.147624324308708e-05,1.0,0.47816649079322815,0.9300000071525574
369,0.00028777398983947933,1.0,0.476919561624527,0.9200000166893005
370,0.000254063808824867,1.0,0.47746649384498596,0.9200000166893005
371,8.756275929044932e-05,1.0,0.4791531264781952,0.9200000166893005
372,1.8260447177453898e-05,1.0,0.4795494079589844,0.9200000166893005
373,1.375745159748476e-05,1.0,0.4795209467411041,0.9200000166893005
374,4.281521250959486e-05,1.0,0.48004093766212463,0.9200000166893005
375,5.010668974136934e-05,1.0,0.48033738136291504,0.9200000166893005
376,5.4728170653106645e-05,1.0,0.48048651218414307,0.9200000166893005
377,2.8189570002723485e-05,1.0,0.480631947517395,0.9200000166893005
378,7.081949297571555e-05,1.0,0.4810136556625366,0.9200000166893005
379,2.1265679606585763e-05,1.0,0.48100876808166504,0.9200000166893005
380,5.9643109125318006e-05,1.0,0.481118381023407,0.9200000166893005
381,0.00020638518617488444,1.0,0.48163333535194397,0.9200000166893005
382,3.798499528784305e-05,1.0,0.4821479916572571,0.9200000166893005
383,6.280584057094529e-05,1.0,0.48270347714424133,0.9200000166893005
384,5.7934328651754186e-05,1.0,0.48321372270584106,0.9200000166893005
385,6.454926187871024e-05,1.0,0.4832714796066284,0.9200000166893005
386,3.0409497412620112e-05,1.0,0.48370465636253357,0.9200000166893005
387,1.916799374157563e-05,1.0,0.4839235246181488,0.9200000166893005
388,0.00024897989351302385,1.0,0.48596829175949097,0.9200000166893005
389,3.2553536584600806e-05,1.0,0.4869886636734009,0.9200000166893005
390,3.941589602618478e-05,1.0,0.4874521493911743,0.9200000166893005
391,0.00018691757577471435,1.0,0.48872679471969604,0.9200000166893005
392,3.2800053304526955e-05,1.0,0.4899581968784332,0.9200000166893005
393,1.5705267287557945e-05,1.0,0.49004530906677246,0.9200000166893005
394,4.954204996465705e-05,1.0,0.4901876449584961,0.9200000166893005
395,1.3740700524067506e-05,1.0,0.4898730516433716,0.9200000166893005
396,1.60448944370728e-05,1.0,0.48968809843063354,0.9200000166893005
397,2.459404458932113e-05,1.0,0.48940086364746094,0.9200000166893005
398,0.00020543574646580964,1.0,0.4903334379196167,0.9200000166893005
399,2.7554104235605337e-05,1.0,0.49058037996292114,0.9200000166893005
400,0.00010869509424082935,1.0,0.4910729229450226,0.9200000166893005
401,0.0004180053365416825,1.0,0.4883071482181549,0.9200000166893005
402,0.00016989173309411854,1.0,0.48807331919670105,0.9200000166893005
403,2.925119588326197e-05,1.0,0.4884578585624695,0.9200000166893005
404,5.517787212738767e-05,1.0,0.4888629615306854,0.9200000166893005
405,2.3440052245859988e-05,1.0,0.4886411428451538,0.9200000166893005
406,2.5475508664385416e-05,1.0,0.48881828784942627,0.9200000166893005
407,4.865864320890978e-05,1.0,0.48896628618240356,0.9200000166893005
408,7.22723052604124e-05,1.0,0.4894823431968689,0.9200000166893005
409,0.00014469085726886988,1.0,0.4902905225753784,0.9200000166893005
410,8.053113560890779e-05,1.0,0.4909266233444214,0.9200000166893005
411,0.0015793241327628493,1.0,0.49836090207099915,0.9200000166893005
412,1.9824758055619895e-05,1.0,0.516028881072998,0.9200000166893005
413,0.0001340419112239033,1.0,0.5211648941040039,0.9200000166893005
414,8.062815322773531e-05,1.0,0.5184835195541382,0.9200000166893005
415,0.00681818975135684,1.0,0.4582645297050476,0.9200000166893005
416,0.0013088569976389408,1.0,0.4159672260284424,0.8999999761581421
417,0.004211601801216602,1.0,0.42577576637268066,0.8899999856948853
418,0.0010975977638736367,1.0,0.45538920164108276,0.9200000166893005
419,0.0005930992774665356,1.0,0.4507962167263031,0.9200000166893005
420,0.00031627240241505206,1.0,0.4608922302722931,0.9200000166893005
421,0.0010249065235257149,1.0,0.4963398873806,0.9100000262260437
422,7.21265678294003e-05,1.0,0.509529173374176,0.9100000262260437
423,0.0003790991613641381,1.0,0.504848837852478,0.9200000166893005
424,0.000993199530057609,1.0,0.49928224086761475,0.9200000166893005
425,0.00023148383479565382,1.0,0.4997997581958771,0.9200000166893005
426,0.00021529383957386017,1.0,0.5009828805923462,0.9200000166893005
427,5.2520030294544995e-05,1.0,0.5013488531112671,0.9200000166893005
428,5.9140209486940876e-05,1.0,0.5022862553596497,0.9200000166893005
429,0.00021589170501101762,1.0,0.5038164258003235,0.9200000166893005
430,7.366458157775924e-05,1.0,0.5071476101875305,0.9200000166893005
431,3.1371713703265414e-05,1.0,0.508226752281189,0.9200000166893005
432,0.00013081569341011345,1.0,0.5087974667549133,0.9200000166893005
433,4.81071365356911e-05,1.0,0.5081307888031006,0.9200000166893005
434,0.0001285451144212857,1.0,0.5075128078460693,0.9200000166893005
435,0.0007659345865249634,1.0,0.49871620535850525,0.9200000166893005
436,0.00021088693756610155,1.0,0.4935036599636078,0.9200000166893005
437,0.00043497205479070544,1.0,0.4923427700996399,0.9200000166893005
438,0.0003916490823030472,1.0,0.4934782385826111,0.9200000166893005
439,4.00423159589991e-05,1.0,0.4979148805141449,0.9200000166893005
440,2.766332181636244e-05,1.0,0.49951258301734924,0.9200000166893005
441,0.0005125291063450277,1.0,0.501681923866272,0.9200000166893005
442,0.00024318424402736127,1.0,0.5009130835533142,0.9200000166893005
443,3.277305222582072e-05,1.0,0.5008155107498169,0.9200000166893005
444,0.000115736220323015,1.0,0.5016654133796692,0.9200000166893005
445,0.0005282651982270181,1.0,0.5082364082336426,0.9200000166893005
446,7.789456867612898e-05,1.0,0.5123550891876221,0.9200000166893005
447,0.00010626875882735476,1.0,0.512702226638794,0.9200000166893005
448,0.00011636132694547996,1.0,0.5125108957290649,0.9200000166893005
449,7.13111148797907e-05,1.0,0.5127662420272827,0.9200000166893005
450,8.867052383720875e-05,1.0,0.5120710134506226,0.9200000166893005
451,0.00011642359459074214,1.0,0.5124819874763489,0.9200000166893005
452,1.1977674148511142e-05,1.0,0.5118895173072815,0.9200000166893005
453,9.301705176767427e-06,1.0,0.5114941000938416,0.9200000166893005
454,0.000580803316552192,1.0,0.509639322757721,0.9300000071525574
455,0.00010960994404740632,1.0,0.5104297399520874,0.9200000166893005
456,0.0001802153856260702,1.0,0.5097978115081787,0.9200000166893005
457,8.04462906671688e-05,1.0,0.5094519257545471,0.9200000166893005
458,0.0001473005540901795,1.0,0.5080555081367493,0.9200000166893005
459,5.02332768519409e-05,1.0,0.5074392557144165,0.9200000166893005
460,3.341811680002138e-05,1.0,0.5074155926704407,0.9200000166893005
461,7.276496035046875e-05,1.0,0.5081414580345154,0.9200000166893005
462,0.0001233429356943816,1.0,0.507244884967804,0.9200000166893005
463,9.728471013659146e-06,1.0,0.5064553618431091,0.9200000166893005
464,3.724209818756208e-05,1.0,0.506731390953064,0.9200000166893005
465,3.462727545411326e-05,1.0,0.506950855255127,0.9200000166893005
466,7.327647472266108e-05,1.0,0.5085342526435852,0.9200000166893005
467,5.89515439060051e-05,1.0,0.5101075768470764,0.9200000166893005
468,8.869277371559292e-05,1.0,0.5114838480949402,0.9200000166893005
469,0.00011818307393696159,1.0,0.510942280292511,0.9200000166893005
470,0.00017537128587719053,1.0,0.5100659132003784,0.9200000166893005
471,2.8153388484497555e-05,1.0,0.5093078017234802,0.9200000166893005
472,6.882367597427219e-05,1.0,0.5095576643943787,0.9200000166893005
473,1.0972888958349358e-05,1.0,0.5093890428543091,0.9200000166893005
474,6.453346577472985e-05,1.0,0.5097800493240356,0.9200000166893005
475,5.505200897459872e-05,1.0,0.5101454854011536,0.9200000166893005
476,8.929823707148898e-06,1.0,0.5101421475410461,0.9200000166893005
477,7.91148268035613e-05,1.0,0.5103080868721008,0.9200000166893005
478,6.974293501116335e-05,1.0,0.5101962089538574,0.9200000166893005
479,1.690275894361548e-05,1.0,0.5101072192192078,0.9300000071525574
480,6.47546912659891e-05,1.0,0.5104849338531494,0.9300000071525574
481,7.43489945307374e-05,1.0,0.511203944683075,0.9300000071525574
482,7.762539462419227e-05,1.0,0.5114912986755371,0.9300000071525574
483,2.9937133149360307e-05,1.0,0.5114668011665344,0.9300000071525574
484,1.5130465726542752e-05,1.0,0.5113549828529358,0.9300000071525574
485,2.86156155198114e-05,1.0,0.5114042162895203,0.9300000071525574
486,0.0002332309086341411,1.0,0.5107153058052063,0.9300000071525574
487,2.9363722205744125e-05,1.0,0.5100804567337036,0.9300000071525574
488,6.516304711112753e-05,1.0,0.5104252696037292,0.9300000071525574
489,0.0002434463385725394,1.0,0.5134860277175903,0.9300000071525574
490,2.8592528906301595e-05,1.0,0.5175062417984009,0.9300000071525574
491,7.783767068758607e-05,1.0,0.5188738107681274,0.9300000071525574
492,6.756863876944408e-05,1.0,0.5187647342681885,0.9300000071525574
493,3.514308264129795e-05,1.0,0.5177679061889648,0.9300000071525574
494,0.00018328838632442057,1.0,0.5114964246749878,0.9300000071525574
495,2.712991954467725e-05,1.0,0.5088839530944824,0.9300000071525574
496,3.617413676693104e-05,1.0,0.5083885788917542,0.9300000071525574
497,3.194325472577475e-05,1.0,0.5084061622619629,0.9300000071525574
498,3.9652411942370236e-05,1.0,0.5085319876670837,0.9300000071525574
499,0.0002327871334273368,1.0,0.511349081993103,0.9300000071525574
500,1.4622812159359455e-05,1.0,0.5125460624694824,0.9300000071525574
501,1.869398693088442e-05,1.0,0.5128500461578369,0.9300000071525574
502,0.00011953061766689643,1.0,0.513531506061554,0.9300000071525574
503,1.6566715203225613e-05,1.0,0.5140504240989685,0.9300000071525574
504,1.0149286936211865e-05,1.0,0.513944149017334,0.9300000071525574
505,0.0002802846138365567,1.0,0.5146700143814087,0.9300000071525574
506,3.048431062779855e-05,1.0,0.5165079236030579,0.9300000071525574
507,1.9843466361635365e-05,1.0,0.5166170001029968,0.9300000071525574
508,2.2184183762874454e-05,1.0,0.5165413022041321,0.9300000071525574
509,4.1460039938101545e-05,1.0,0.5167532563209534,0.9300000071525574
510,5.177298226044513e-05,1.0,0.5172379612922668,0.9300000071525574
511,7.058219489408657e-05,1.0,0.5172399878501892,0.9300000071525574
512,2.5061674023163505e-05,1.0,0.5166906714439392,0.9300000071525574
513,0.0003642365336418152,1.0,0.5164344310760498,0.9300000071525574
514,6.0043148550903425e-05,1.0,0.5163539052009583,0.9300000071525574
515,1.9678864191519096e-05,1.0,0.515836238861084,0.9300000071525574
516,2.2333437300403602e-05,1.0,0.5157499313354492,0.9300000071525574
517,1.0070331882161554e-05,1.0,0.515357255935669,0.9300000071525574
518,7.419451321766246e-06,1.0,0.5151893496513367,0.9300000071525574
519,2.395769661234226e-05,1.0,0.514809787273407,0.9300000071525574
520,3.40411024808418e-05,1.0,0.5144765377044678,0.9300000071525574
521,4.976327909389511e-05,1.0,0.5144086480140686,0.9300000071525574
522,0.00016482821956742555,1.0,0.5145664215087891,0.9300000071525574
523,0.00016768957721069455,1.0,0.512993574142456,0.9300000071525574
524,7.674653897993267e-05,1.0,0.5117924213409424,0.9300000071525574
525,8.98700272955466e-06,1.0,0.5115912556648254,0.9300000071525574
526,0.0016522848745808005,1.0,0.49842026829719543,0.9200000166893005
527,7.57769012125209e-05,1.0,0.5006150007247925,0.9200000166893005
528,3.226058106520213e-05,1.0,0.5012474060058594,0.9200000166893005
529,1.9942510334658436e-05,1.0,0.500732958316803,0.9200000166893005
530,8.372734009753913e-05,1.0,0.4996606707572937,0.9200000166893005
531,1.789251109585166e-05,1.0,0.4989907741546631,0.9200000166893005
532,7.872298010624945e-05,1.0,0.5012553930282593,0.9200000166893005
533,1.9585811969591305e-05,1.0,0.5034920573234558,0.9200000166893005
534,8.741582132643089e-05,1.0,0.5017183423042297,0.9200000166893005
535,5.02012662764173e-05,1.0,0.5011228322982788,0.9200000166893005
536,3.2581985578872263e-05,1.0,0.5020694136619568,0.9200000166893005
537,3.0645987862953916e-05,1.0,0.5029168128967285,0.9200000166893005
538,5.790425348095596e-05,1.0,0.5040757656097412,0.9200000166893005
539,8.481142140226439e-05,1.0,0.5065900683403015,0.9200000166893005
540,4.630933472071774e-05,1.0,0.5092573761940002,0.9200000166893005
541,0.00019912001152988523,1.0,0.5145047903060913,0.9200000166893005
542,6.362733256537467e-05,1.0,0.5208843946456909,0.9100000262260437
543,8.634580444777384e-05,1.0,0.5257784128189087,0.9100000262260437
544,0.00011408596037654206,1.0,0.5290680527687073,0.9200000166893005
545,3.6455887311603874e-05,1.0,0.5304921865463257,0.9200000166893005
546,0.00014259318413678557,1.0,0.5326882004737854,0.9200000166893005
547,5.094942025607452e-06,1.0,0.5340090990066528,0.9200000166893005
548,1.227107804879779e-05,1.0,0.5335984230041504,0.9200000166893005
549,1.7732952983351424e-05,1.0,0.5328922867774963,0.9200000166893005
550,1.121599598263856e-05,1.0,0.5313649773597717,0.9200000166893005
551,2.744673111010343e-05,1.0,0.5314019322395325,0.9200000166893005
552,3.8076854252722114e-05,1.0,0.5316124558448792,0.9200000166893005
553,0.0003076649736613035,1.0,0.5382131338119507,0.9100000262260437
554,2.5444345737923868e-05,1.0,0.5439267158508301,0.8999999761581421
555,0.00024124015180859715,1.0,0.5601484775543213,0.8999999761581421
556,1.3300965292728506e-05,1.0,0.5640983581542969,0.8999999761581421
557,0.00015343543782364577,1.0,0.5639609694480896,0.8999999761581421
558,0.00014625700714532286,1.0,0.564414918422699,0.8999999761581421
559,6.523040156025672e-06,1.0,0.5631324052810669,0.8999999761581421
560,0.00017755146836861968,1.0,0.551929235458374,0.9100000262260437
561,2.6441966838319786e-05,1.0,0.5465354323387146,0.9100000262260437
562,4.5691849663853645e-05,1.0,0.5429502725601196,0.9100000262260437
563,2.430751374049578e-05,1.0,0.5405071377754211,0.9100000262260437
564,4.374588024802506e-05,1.0,0.5383262634277344,0.9100000262260437
565,2.0539589968393557e-05,1.0,0.5362787842750549,0.9100000262260437
566,0.00014539127005264163,1.0,0.5387015342712402,0.9100000262260437
567,3.2220086723100394e-05,1.0,0.539855420589447,0.9100000262260437
568,4.628427268471569e-05,1.0,0.5389518141746521,0.9200000166893005
569,2.98756731353933e-05,1.0,0.537441611289978,0.9200000166893005
570,3.6299297789810225e-05,1.0,0.5361083149909973,0.9200000166893005
571,3.558477692422457e-05,1.0,0.5348238945007324,0.9200000166893005
572,1.6528674677829258e-05,1.0,0.5338881611824036,0.9200000166893005
573,2.511066668375861e-05,1.0,0.5330191254615784,0.9200000166893005
574,4.139811790082604e-05,1.0,0.5313713550567627,0.9200000166893005
575,8.882515976438299e-05,1.0,0.5325472354888916,0.9200000166893005
576,3.4742777643259615e-05,1.0,0.5328155755996704,0.9200000166893005
577,1.7806294636102393e-05,1.0,0.532220184803009,0.9200000166893005
578,2.2524753148900345e-05,1.0,0.5320116281509399,0.9200000166893005
579,8.943361899582669e-05,1.0,0.5311614871025085,0.9200000166893005
580,0.0002826306445058435,1.0,0.5258454084396362,0.9200000166893005
581,2.3379470803774893e-05,1.0,0.5224612355232239,0.9200000166893005
582,3.5501598176779225e-05,1.0,0.5212721824645996,0.9200000166893005
583,0.0002166500489693135,1.0,0.5260792970657349,0.9200000166893005
584,3.180893691023812e-05,1.0,0.5271989703178406,0.9200000166893005
585,2.3148917534854263e-05,1.0,0.5275067090988159,0.9200000166893005
586,4.388330125948414e-05,1.0,0.5274084210395813,0.9200000166893005
587,3.0889641493558884e-05,1.0,0.5267400145530701,0.9200000166893005
588,0.00012703222455456853,1.0,0.5280023813247681,0.9200000166893005
589,1.6479796613566577e-05,1.0,0.5280705094337463,0.9200000166893005
590,0.00020905412384308875,1.0,0.5252939462661743,0.9200000166893005
591,1.3290252354636323e-05,1.0,0.5237259864807129,0.9300000071525574
592,9.530507668387145e-06,1.0,0.5227946639060974,0.9300000071525574
593,1.013134533422999e-05,1.0,0.5221532583236694,0.9300000071525574
594,3.4617925848579034e-05,1.0,0.5221359729766846,0.9300000071525574
595,3.419655331526883e-05,1.0,0.5219622254371643,0.9300000071525574
596,3.9691691199550405e-05,1.0,0.5217878222465515,0.9300000071525574
597,1.0267209290759638e-05,1.0,0.521315336227417,0.9300000071525574
598,0.0002009088493650779,1.0,0.5225903987884521,0.9300000071525574
599,1.84877535502892e-05,1.0,0.5226038098335266,0.9300000071525574
600,0.001543835154734552,1.0,0.5136969685554504,0.9300000071525574
601,0.00011128154437756166,1.0,0.5001850724220276,0.9300000071525574
602,2.0338839021860622e-05,1.0,0.4947841763496399,0.9399999976158142
603,3.8014859455870464e-05,1.0,0.49110329151153564,0.9300000071525574
604,2.780917566269636e-05,1.0,0.48867687582969666,0.9300000071525574
605,0.0001456329773645848,1.0,0.4865661859512329,0.9300000071525574
606,3.7346679164329544e-05,1.0,0.48525023460388184,0.9300000071525574
607,4.2176794522674754e-05,1.0,0.4856451749801636,0.9300000071525574
608,1.2637389772862662e-05,1.0,0.4857579171657562,0.9300000071525574
609,0.00028011517133563757,1.0,0.4878730773925781,0.9300000071525574
610,6.158176984172314e-05,1.0,0.4898402690887451,0.9300000071525574
611,2.3428743588738143e-05,1.0,0.4904288351535797,0.9300000071525574
612,2.119764940289315e-05,1.0,0.4906620383262634,0.9300000071525574
613,3.958259549108334e-05,1.0,0.4915967583656311,0.9300000071525574
614,2.9016449843766168e-05,1.0,0.49201682209968567,0.9300000071525574
615,2.622358988446649e-05,1.0,0.49264007806777954,0.9300000071525574
616,8.631870150566101e-05,1.0,0.49484753608703613,0.9300000071525574
617,3.08864691760391e-05,1.0,0.4957611858844757,0.9300000071525574
618,5.254811549093574e-05,1.0,0.4973545968532562,0.9300000071525574
619,3.0415001674555242e-05,1.0,0.4983477294445038,0.9300000071525574
620,2.1921014194958843e-05,1.0,0.49843859672546387,0.9300000071525574
621,1.788450390449725e-05,1.0,0.49824902415275574,0.9300000071525574
622,1.3691613276023418e-05,1.0,0.4983363747596741,0.9300000071525574
623,2.4832324925228022e-05,1.0,0.498922735452652,0.9300000071525574
624,1.0595033018034883e-05,1.0,0.49925461411476135,0.9300000071525574
625,9.046591912920121e-06,1.0,0.4993836283683777,0.9300000071525574
626,6.967035005800426e-05,1.0,0.5002436637878418,0.9300000071525574
627,3.651011866168119e-05,1.0,0.5006694197654724,0.9300000071525574
628,0.00012011665239697322,1.0,0.5020491480827332,0.9300000071525574
629,2.2697975509800017e-05,1.0,0.5032808780670166,0.9300000071525574
630,0.00014406668196897954,1.0,0.5066369771957397,0.9300000071525574
631,4.9015594413504004e-05,1.0,0.5089121460914612,0.9300000071525574
632,3.901122181559913e-05,1.0,0.5095373392105103,0.9300000071525574
633,5.94841321799322e-06,1.0,0.5096278190612793,0.9300000071525574
634,5.004310150980018e-05,1.0,0.5101486444473267,0.9300000071525574
635,0.00013448689423967153,1.0,0.5116367936134338,0.9300000071525574
636,1.3789597687718924e-05,1.0,0.5132667422294617,0.9300000071525574
637,1.6243744539679028e-05,1.0,0.5138474106788635,0.9300000071525574
638,5.0828162784455344e-05,1.0,0.5136957168579102,0.9300000071525574
639,1.982077992579434e-05,1.0,0.5123547315597534,0.9300000071525574
640,1.250000514119165e-05,1.0,0.5119860172271729,0.9300000071525574
641,3.065950295422226e-05,1.0,0.5123541355133057,0.9300000071525574
642,3.6983692552894354e-05,1.0,0.513047456741333,0.9300000071525574
643,0.00012818152026738971,1.0,0.5149672031402588,0.9300000071525574
644,4.300255386624485e-05,1.0,0.5166186690330505,0.9300000071525574
645,3.237022247049026e-05,1.0,0.5175478458404541,0.9300000071525574
646,1.3850127288606018e-05,1.0,0.5179880261421204,0.9300000071525574
647,7.957039997563697e-06,1.0,0.5178229808807373,0.9300000071525574
648,4.427344538271427e-05,1.0,0.5177575945854187,0.9300000071525574
649,3.6378554796101525e-05,1.0,0.5181310176849365,0.9300000071525574
650,7.233484666357981e-06,1.0,0.5178233981132507,0.9300000071525574
651,0.0004477317270357162,1.0,0.5301158428192139,0.9200000166893005
652,0.00012494914699345827,1.0,0.5366485118865967,0.9200000166893005
653,0.00015873025404289365,1.0,0.53562331199646,0.9200000166893005
654,2.1556026695179753e-05,1.0,0.5270822048187256,0.9300000071525574
655,4.756392627314199e-06,1.0,0.5233111381530762,0.9300000071525574
656,4.136472489335574e-05,1.0,0.5218526721000671,0.9300000071525574
657,2.8923459467478096e-05,1.0,0.5208391547203064,0.9300000071525574
658,4.656518285628408e-05,1.0,0.519466757774353,0.9300000071525574
659,3.432385710766539e-05,1.0,0.5190508365631104,0.9300000071525574
660,1.0926521099463571e-05,1.0,0.518511950969696,0.9300000071525574
661,2.5946115783881396e-05,1.0,0.5183618068695068,0.9300000071525574
662,5.255888027022593e-06,1.0,0.5176392793655396,0.9300000071525574
663,1.399446864525089e-05,1.0,0.5173047780990601,0.9300000071525574
664,1.20764543680707e-05,1.0,0.516886293888092,0.9300000071525574
665,2.6004487153841183e-05,1.0,0.5171167254447937,0.9300000071525574
666,1.7946777006727643e-05,1.0,0.5179276466369629,0.9300000071525574
667,5.806604804092785e-06,1.0,0.5179247856140137,0.9300000071525574
668,5.003012847737409e-05,1.0,0.5179089903831482,0.9300000071525574
669,2.2623040422331542e-05,1.0,0.5174580216407776,0.9300000071525574
670,1.8324713892070577e-05,1.0,0.5170382261276245,0.9300000071525574
671,7.939181159599684e-06,1.0,0.5166054368019104,0.9300000071525574
672,0.00016256309754680842,1.0,0.5182215571403503,0.9300000071525574
673,1.6575144400121644e-05,1.0,0.5196771621704102,0.9300000071525574
674,1.3271146599436179e-05,1.0,0.5204455256462097,0.9300000071525574
675,6.920001396792941e-06,1.0,0.5208419561386108,0.9300000071525574
676,1.1604604878812097e-05,1.0,0.5212391018867493,0.9300000071525574
677,4.449946936802007e-05,1.0,0.5203372836112976,0.9300000071525574
678,4.519175035966327e-06,1.0,0.5199187397956848,0.9300000071525574
679,9.682938070909586e-06,1.0,0.5195250511169434,0.9300000071525574
680,0.00016349069483112544,1.0,0.5262694358825684,0.9300000071525574
681,2.239441528217867e-05,1.0,0.5290071368217468,0.9300000071525574
682,2.311339630978182e-05,1.0,0.5293972492218018,0.9300000071525574
683,7.580961391795427e-05,1.0,0.5310221314430237,0.9300000071525574
684,0.00015606620581820607,1.0,0.5318577885627747,0.9300000071525574
685,2.2784499378758483e-05,1.0,0.5309445858001709,0.9300000071525574
686,1.5671907021896914e-05,1.0,0.5308572053909302,0.9300000071525574
687,1.7294658391620032e-05,1.0,0.5307464599609375,0.9300000071525574
688,0.00010397189907962456,1.0,0.5316832065582275,0.9300000071525574
689,8.596058250986971e-06,1.0,0.5331661105155945,0.9300000071525574
690,6.167800620460184e-06,1.0,0.533163845539093,0.9300000071525574
691,2.8948523322469555e-05,1.0,0.5334954261779785,0.9300000071525574
692,1.445241468900349e-05,1.0,0.5338599681854248,0.9300000071525574
693,1.2893025086668786e-05,1.0,0.5334296226501465,0.9300000071525574
694,7.66190278227441e-05,1.0,0.5344658493995667,0.9300000071525574
695,3.26440240314696e-05,1.0,0.5350388288497925,0.9300000071525574
696,7.065433237585239e-06,1.0,0.5346688628196716,0.9300000071525574
697,2.1357685909606516e-05,1.0,0.5342293381690979,0.9300000071525574
698,9.81540415523341e-06,1.0,0.5337304472923279,0.9300000071525574
699,0.00020333034626673907,1.0,0.5233768224716187,0.9300000071525574
700,0.00011067694867961109,1.0,0.515510618686676,0.9300000071525574
701,1.665507625148166e-05,1.0,0.5154081583023071,0.9200000166893005
702,2.1284986360115e-05,1.0,0.5159216523170471,0.9200000166893005
703,2.6886611522058956e-05,1.0,0.5174328088760376,0.9200000166893005
704,2.7672751457430422e-05,1.0,0.5177903175354004,0.9200000166893005
705,2.6233081371174194e-05,1.0,0.5182788372039795,0.9300000071525574
706,9.283181861974299e-05,1.0,0.5162643194198608,0.9300000071525574
707,3.891174856107682e-05,1.0,0.5163822770118713,0.9300000071525574
708,1.8956912754219957e-05,1.0,0.5171329975128174,0.9300000071525574
709,0.00011643423931673169,1.0,0.5219197273254395,0.9300000071525574
710,7.8647441114299e-05,1.0,0.5328910946846008,0.9300000071525574
711,4.483414613787318e-06,1.0,0.5366052985191345,0.9200000166893005
712,3.376906897756271e-05,1.0,0.538059413433075,0.9200000166893005
713,7.18001538189128e-05,1.0,0.5395578145980835,0.9200000166893005
714,1.2623640031961259e-05,1.0,0.5418355464935303,0.9200000166893005
715,2.3427970518241636e-05,1.0,0.5418498516082764,0.9200000166893005
716,0.00020879528892692178,1.0,0.5488084554672241,0.9300000071525574
717,0.00010883755749091506,1.0,0.5531103014945984,0.9300000071525574
718,1.5225416063913144e-05,1.0,0.5498865246772766,0.9300000071525574
719,2.2908398022991605e-05,1.0,0.5478683710098267,0.9300000071525574
720,2.4497008780599572e-05,1.0,0.5465112328529358,0.9300000071525574
721,3.26988379129034e-06,1.0,0.5454930663108826,0.9300000071525574
722,3.64177867595572e-05,1.0,0.5442350506782532,0.9300000071525574
723,3.371155253262259e-05,1.0,0.5427974462509155,0.9300000071525574
724,1.3702765500056557e-05,1.0,0.5416425466537476,0.9300000071525574
725,2.1439367628772743e-05,1.0,0.5403255224227905,0.9300000071525574
726,8.656755198899191e-06,1.0,0.539313793182373,0.9300000071525574
727,2.6673653337638825e-05,1.0,0.5391179919242859,0.9300000071525574
728,4.938784968544496e-06,1.0,0.5386722087860107,0.9300000071525574
729,1.5688214261899702e-05,1.0,0.5385769605636597,0.9300000071525574
730,7.284931052708998e-05,1.0,0.5407761335372925,0.9300000071525574
731,9.386624151375145e-05,1.0,0.5433292388916016,0.9300000071525574
732,8.604812319390476e-05,1.0,0.5452204346656799,0.9300000071525574
733,2.6237830752506852e-06,1.0,0.5452763438224792,0.9300000071525574
734,3.847116749966517e-05,1.0,0.5461071729660034,0.9300000071525574
735,7.858027856855188e-06,1.0,0.5465062856674194,0.9300000071525574
736,3.7145793612580746e-05,1.0,0.5464131832122803,0.9300000071525574
737,2.960660458484199e-05,1.0,0.5454853177070618,0.9300000071525574
738,4.031606749776984e-06,1.0,0.5447362661361694,0.9300000071525574
739,2.1761654352303594e-05,1.0,0.5444481372833252,0.9300000071525574
740,1.464379056415055e-05,1.0,0.5436900854110718,0.9300000071525574
741,9.424405106983613e-06,1.0,0.5428018569946289,0.9300000071525574
742,1.578031515236944e-05,1.0,0.5433059930801392,0.9300000071525574
743,8.064982830546796e-05,1.0,0.5436076521873474,0.9300000071525574
744,2.8904591090395115e-05,1.0,0.5451357364654541,0.9300000071525574
745,1.4305850527307484e-05,1.0,0.5461798310279846,0.9300000071525574
746,1.6907910321606323e-05,1.0,0.5469474792480469,0.9300000071525574
747,0.0009697037748992443,1.0,0.5150269269943237,0.9300000071525574
748,0.0001552618050482124,1.0,0.5028826594352722,0.9300000071525574
749,0.0001342375617241487,1.0,0.5080122947692871,0.9300000071525574
750,1.435444937669672e-05,1.0,0.5128355622291565,0.9300000071525574
751,2.5145587642327882e-05,1.0,0.5144794583320618,0.9300000071525574
752,3.7240731671772664e-06,1.0,0.515785276889801,0.9300000071525574
753,1.3008841960981954e-05,1.0,0.5163292288780212,0.9300000071525574
754,1.723376044537872e-05,1.0,0.5166119933128357,0.9300000071525574
755,1.766723107721191e-05,1.0,0.5171314477920532,0.9300000071525574
756,5.720760782423895e-06,1.0,0.5176302194595337,0.9300000071525574
757,0.00021650447160936892,1.0,0.5320557951927185,0.9300000071525574
758,4.396745134727098e-05,1.0,0.5398021936416626,0.9300000071525574
759,1.0486638529982883e-05,1.0,0.5413066148757935,0.9300000071525574
760,9.636431059334427e-05,1.0,0.5405688285827637,0.9300000071525574
761,3.4808897453331156e-06,1.0,0.5388292670249939,0.9300000071525574
762,2.3722534479020396e-06,1.0,0.5374844074249268,0.9300000071525574
763,2.543958180467598e-05,1.0,0.5365290641784668,0.9300000071525574
764,6.923421096871607e-06,1.0,0.534885585308075,0.9300000071525574
765,0.00010179539094679058,1.0,0.5384328961372375,0.9300000071525574
766,8.721621998120099e-05,1.0,0.5415968894958496,0.9300000071525574
767,9.117166337091476e-05,1.0,0.534553050994873,0.9300000071525574
768,1.6568446881137788e-05,1.0,0.5293610692024231,0.9300000071525574
769,4.804787749890238e-05,1.0,0.5304796695709229,0.9300000071525574
770,8.993936717160977e-06,1.0,0.5319684743881226,0.9300000071525574
771,1.4834869944024831e-05,1.0,0.5328170657157898,0.9300000071525574
772,9.699777365312912e-06,1.0,0.5332252979278564,0.9300000071525574
773,1.5696919945185073e-05,1.0,0.5342308282852173,0.9300000071525574
774,9.122845767706167e-06,1.0,0.534519374370575,0.9300000071525574
775,2.3803833755664527e-05,1.0,0.5348804593086243,0.9300000071525574
776,2.1406945961643942e-05,1.0,0.5356395840644836,0.9300000071525574
777,1.6944586604950018e-05,1.0,0.5357276797294617,0.9300000071525574
778,5.549030902329832e-05,1.0,0.5440670251846313,0.9300000071525574
779,7.837122393539175e-05,1.0,0.548143208026886,0.9300000071525574
780,1.2227486877236515e-05,1.0,0.5489731431007385,0.9300000071525574
781,6.924713670741767e-05,1.0,0.5527243614196777,0.9300000071525574
782,2.8347806164674694e-06,1.0,0.5542803406715393,0.9300000071525574
783,1.4917081898602191e-05,1.0,0.5538128018379211,0.9300000071525574
784,6.4991518229362555e-06,1.0,0.5522104501724243,0.9300000071525574
785,2.5372281015734188e-05,1.0,0.5504601001739502,0.9300000071525574
786,8.728168722882401e-06,1.0,0.549065113067627,0.9300000071525574
787,4.022297071060166e-05,1.0,0.5480600595474243,0.9300000071525574
788,0.00014649421791546047,1.0,0.5405895709991455,0.9300000071525574
789,1.184416214528028e-05,1.0,0.5377346873283386,0.9300000071525574
790,1.2853894986619707e-05,1.0,0.5373900532722473,0.9300000071525574
791,1.618962050997652e-05,1.0,0.537910521030426,0.9300000071525574
792,5.147403498995118e-06,1.0,0.539035975933075,0.9300000071525574
793,2.202977611887036e-06,1.0,0.5393801331520081,0.9300000071525574
794,8.768772204348352e-06,1.0,0.5399315357208252,0.9300000071525574
795,6.925969501025975e-05,1.0,0.5415149927139282,0.9300000071525574
796,7.730547622486483e-06,1.0,0.5442643165588379,0.9300000071525574
797,6.255995685933158e-06,1.0,0.5453426837921143,0.9300000071525574
798,9.372023669129703e-06,1.0,0.5461090207099915,0.9300000071525574
799,1.6431231415481307e-05,1.0,0.5466610789299011,0.9300000071525574
800,8.86777797859395e-06,1.0,0.546785831451416,0.9300000071525574
801,1.201476243295474e-05,1.0,0.5475491285324097,0.9300000071525574
802,8.214144327212125e-05,1.0,0.5507698059082031,0.9300000071525574
803,3.850421308015939e-06,1.0,0.5519662499427795,0.9300000071525574
804,3.6036713026987854e-06,1.0,0.5523725748062134,0.9300000071525574
805,6.253088940866292e-05,1.0,0.554269015789032,0.9300000071525574
806,2.5934274162864313e-05,1.0,0.554267406463623,0.9300000071525574
807,0.00010196898801950738,1.0,0.5595784187316895,0.9300000071525574
808,1.828244967327919e-05,1.0,0.5615532398223877,0.9200000166893005
809,2.1266773728711996e-06,1.0,0.561393141746521,0.9200000166893005
810,6.179690899443813e-06,1.0,0.5615187287330627,0.9200000166893005
811,2.9061338864266872e-05,1.0,0.5602173805236816,0.9200000166893005
812,5.917119779041968e-05,1.0,0.5598214864730835,0.9200000166893005
813,3.207891040801769e-06,1.0,0.5606229305267334,0.9200000166893005
814,1.4095006008574273e-05,1.0,0.561322808265686,0.9200000166893005
815,5.097255052533001e-05,1.0,0.5622841119766235,0.9300000071525574
816,5.704244176740758e-05,1.0,0.5647583603858948,0.9300000071525574
817,9.667693120718468e-06,1.0,0.5652538537979126,0.9300000071525574
818,9.450764082430396e-06,1.0,0.5654981136322021,0.9300000071525574
819,5.698571840184741e-05,1.0,0.5655014514923096,0.9300000071525574
820,6.880766159156337e-05,1.0,0.5647438764572144,0.9300000071525574
821,3.0839103146718116e-06,1.0,0.5609779357910156,0.9300000071525574
822,7.507686405006098e-06,1.0,0.559550404548645,0.9300000071525574
823,1.4526124687108677e-05,1.0,0.5595887303352356,0.9300000071525574
824,2.179137027269462e-06,1.0,0.5593849420547485,0.9300000071525574
825,1.3679689800483175e-05,1.0,0.5602053999900818,0.9300000071525574
826,1.9848200736305444e-06,1.0,0.5605241656303406,0.9300000071525574
827,1.5325900676543824e-05,1.0,0.5610688328742981,0.9300000071525574
828,4.516766239248682e-06,1.0,0.561150074005127,0.9300000071525574
829,2.1594285499304533e-05,1.0,0.5617409944534302,0.9300000071525574
830,4.129359695070889e-06,1.0,0.5619338750839233,0.9300000071525574
831,8.629368494439404e-06,1.0,0.5618557929992676,0.9300000071525574
832,7.53269569031545e-06,1.0,0.5618269443511963,0.9300000071525574
833,1.913368032546714e-05,1.0,0.5619011521339417,0.9300000071525574
834,5.299358599586412e-05,1.0,0.5657101273536682,0.9300000071525574
835,1.27944358609966e-05,1.0,0.56769198179245,0.9300000071525574
836,6.447523628594354e-05,1.0,0.568118691444397,0.9300000071525574
837,7.27912993170321e-05,1.0,0.5666603446006775,0.9300000071525574
838,5.9007370509789325e-06,1.0,0.5654433965682983,0.9300000071525574
839,2.5030160031747073e-05,1.0,0.5649752616882324,0.9300000071525574
840,5.381657319958322e-05,1.0,0.5637474656105042,0.9300000071525574
841,2.5648540031397715e-05,1.0,0.5628961324691772,0.9300000071525574
842,8.61850094224792e-06,1.0,0.5628149509429932,0.9300000071525574
843,2.8508038667496294e-05,1.0,0.5634096264839172,0.9300000071525574
844,1.3285723071021494e-05,1.0,0.5620142221450806,0.9300000071525574
845,5.800402141176164e-05,1.0,0.5620477199554443,0.9300000071525574
846,3.7410474760690704e-05,1.0,0.5631095170974731,0.9300000071525574
847,6.903188932483317e-06,1.0,0.5636591911315918,0.9300000071525574
848,3.849223048746353e-06,1.0,0.5635896921157837,0.9300000071525574
849,9.036189294420183e-05,1.0,0.572323739528656,0.9300000071525574
850,1.0354068763263058e-05,1.0,0.5823243260383606,0.9300000071525574
851,6.846513861091807e-05,1.0,0.5905364751815796,0.9200000166893005
852,4.7943070967448875e-05,1.0,0.595105767250061,0.9200000166893005
853,1.6846330254338682e-05,1.0,0.5935342907905579,0.9300000071525574
854,2.013386256294325e-05,1.0,0.5896708965301514,0.9300000071525574
855,7.343158358708024e-06,1.0,0.5867251753807068,0.9300000071525574
856,4.322451331972843e-06,1.0,0.5843560695648193,0.9300000071525574
857,3.768175156437792e-05,1.0,0.5827430486679077,0.9300000071525574
858,0.00015773819177411497,1.0,0.577175498008728,0.9300000071525574
859,2.1195221506786766e-06,1.0,0.5763196349143982,0.9300000071525574
860,4.9269190640188754e-05,1.0,0.5798617601394653,0.9300000071525574
861,2.1567891963059083e-05,1.0,0.5829337239265442,0.9300000071525574
862,4.144988997722976e-05,1.0,0.5822491645812988,0.9300000071525574
863,6.801728159189224e-05,1.0,0.585246741771698,0.9300000071525574
864,2.081383172480855e-06,1.0,0.5857789516448975,0.9300000071525574
865,1.059262558555929e-05,1.0,0.585168182849884,0.9300000071525574
866,1.1162266673636623e-05,1.0,0.583320677280426,0.9300000071525574
867,7.169069704104913e-06,1.0,0.5824386477470398,0.9300000071525574
868,1.2694117685896344e-05,1.0,0.5803552865982056,0.9300000071525574
869,1.9860160591633758e-06,1.0,0.5787414312362671,0.9300000071525574
870,5.258213604975026e-06,1.0,0.5781919956207275,0.9300000071525574
871,2.9483036996680312e-05,1.0,0.5791260004043579,0.9300000071525574
872,2.0036732166772708e-05,1.0,0.5790690183639526,0.9300000071525574
873,4.279565018805442e-06,1.0,0.5771572589874268,0.9300000071525574
874,1.3546428817790002e-05,1.0,0.5758110284805298,0.9300000071525574
875,5.159287411515834e-06,1.0,0.5750535726547241,0.9300000071525574
876,4.734043977805413e-05,1.0,0.5766788721084595,0.9300000071525574
877,6.433620001189411e-06,1.0,0.5782371759414673,0.9300000071525574
878,8.150997018674389e-06,1.0,0.5779261589050293,0.9300000071525574
879,4.420817276695743e-05,1.0,0.5791455507278442,0.9300000071525574
880,1.181574771180749e-05,1.0,0.5866948366165161,0.9300000071525574
881,3.2210043627856066e-06,1.0,0.5884581208229065,0.9300000071525574
882,1.9366631022421643e-05,1.0,0.5892459750175476,0.9300000071525574
883,2.869342097255867e-06,1.0,0.5887210369110107,0.9300000071525574
884,6.177347586344695e-06,1.0,0.5881885290145874,0.9300000071525574
885,3.756776641239412e-05,1.0,0.5897169709205627,0.9300000071525574
886,9.573387615091633e-06,1.0,0.5888590812683105,0.9300000071525574
887,1.9365765183465555e-05,1.0,0.5886509418487549,0.9300000071525574
888,6.5170315792784095e-06,1.0,0.5885976552963257,0.9300000071525574
889,5.385772055888083e-06,1.0,0.5879165530204773,0.9300000071525574
890,1.4353335245687049e-05,1.0,0.5876470804214478,0.9300000071525574
891,1.927434823301155e-05,1.0,0.5881567597389221,0.9300000071525574
892,5.415591203927761e-06,1.0,0.5881780982017517,0.9300000071525574
893,2.001516122618341e-06,1.0,0.5879508256912231,0.9300000071525574
894,4.995038398192264e-05,1.0,0.590700626373291,0.9300000071525574
895,3.1614076760888565e-06,1.0,0.5904394388198853,0.9300000071525574
896,2.5602052119211294e-05,1.0,0.5906862020492554,0.9300000071525574
897,3.775310460696346e-06,1.0,0.590403139591217,0.9300000071525574
898,6.43364546704106e-06,1.0,0.5903562307357788,0.9300000071525574
899,7.649313374713529e-06,1.0,0.5902584791183472,0.9300000071525574
900,3.855182058032369e-06,1.0,0.5901636481285095,0.9300000071525574
901,0.0006879699067212641,1.0,0.5867423415184021,0.9100000262260437
902,0.0007760690641589463,1.0,0.48025625944137573,0.8999999761581421
903,0.0033523798920214176,1.0,0.5582569241523743,0.9200000166893005
904,0.1024404838681221,0.9800000190734863,1.3032292127609253,0.8399999737739563
905,0.04976585879921913,0.9800000190734863,4.723376274108887,0.6899999976158142
906,0.003241871949285269,1.0,5.3963751792907715,0.6700000166893005
907,0.0007254977244883776,1.0,4.735639572143555,0.6899999976158142
908,0.0009431088110432029,1.0,3.9279654026031494,0.7200000286102295
909,0.0003088351513724774,1.0,3.2193896770477295,0.7300000190734863
910,0.0010320632718503475,1.0,2.6426947116851807,0.7200000286102295
911,0.001061940100044012,1.0,2.176032066345215,0.7699999809265137
912,0.0003632454317994416,1.0,1.8025363683700562,0.7699999809265137
913,0.0006706102285534143,1.0,1.549692988395691,0.800000011920929
914,0.00014186397311277688,1.0,1.3691672086715698,0.8100000023841858
915,0.0003016222908627242,1.0,1.2205089330673218,0.8399999737739563
916,0.0008643670589663088,1.0,1.0806294679641724,0.8500000238418579
917,0.00026780139887705445,1.0,0.9661916494369507,0.8600000143051147
918,0.00045160751324146986,1.0,0.8863445520401001,0.8600000143051147
919,0.00018430995987728238,1.0,0.8281434774398804,0.8600000143051147
920,0.00017994025256484747,1.0,0.7835148572921753,0.8600000143051147
921,0.00038770027458667755,1.0,0.7455206513404846,0.8600000143051147
922,9.66306688496843e-05,1.0,0.717780590057373,0.8600000143051147
923,0.00023188434715848416,1.0,0.6915950179100037,0.8600000143051147
924,8.088189497357234e-05,1.0,0.6666757464408875,0.8600000143051147
925,0.00020682738977484405,1.0,0.6476048827171326,0.8700000047683716
926,0.0009234240860678256,1.0,0.6051112413406372,0.8899999856948853
927,0.0007511417497880757,1.0,0.5624554753303528,0.8899999856948853
928,5.269535904517397e-05,1.0,0.5426539182662964,0.8999999761581421
929,9.334077185485512e-05,1.0,0.536783754825592,0.8999999761581421
930,2.32011589105241e-05,1.0,0.5354214310646057,0.8999999761581421
931,0.0002824572438839823,1.0,0.5352802872657776,0.8999999761581421
932,8.272496779682115e-05,1.0,0.5342450141906738,0.8999999761581421
933,0.00037695671198889613,1.0,0.5330649018287659,0.8999999761581421
934,0.0003062795440200716,1.0,0.5342323184013367,0.8999999761581421
935,2.248566670459695e-05,1.0,0.5354627966880798,0.8999999761581421
936,6.648862472502515e-05,1.0,0.53758305311203,0.8999999761581421
937,6.953276897547767e-05,1.0,0.5385633111000061,0.8999999761581421
938,3.0614854040322825e-05,1.0,0.540692150592804,0.8999999761581421
939,6.713641778333113e-05,1.0,0.5430300235748291,0.8899999856948853
940,0.00011785774404415861,1.0,0.5440758466720581,0.8999999761581421
941,3.401119829504751e-05,1.0,0.5459096431732178,0.8899999856948853
942,0.00010712283983593807,1.0,0.5483328104019165,0.8899999856948853
943,6.327309529297054e-05,1.0,0.5500667095184326,0.8899999856948853
944,5.0739872676786035e-05,1.0,0.5509049892425537,0.8899999856948853
945,4.8860470997169614e-05,1.0,0.552700936794281,0.8899999856948853
946,4.882995563093573e-05,1.0,0.5542413592338562,0.8899999856948853
947,0.00666792131960392,1.0,0.5115652680397034,0.8999999761581421
948,9.078300354303792e-05,1.0,0.4838024973869324,0.9100000262260437
949,7.201028347481042e-05,1.0,0.4790593683719635,0.9100000262260437
950,6.571630365215242e-05,1.0,0.4784926474094391,0.9100000262260437
951,9.43571503739804e-05,1.0,0.4792133569717407,0.9100000262260437
952,4.218974936520681e-05,1.0,0.47980353236198425,0.9100000262260437
953,6.264765397645533e-05,1.0,0.48116981983184814,0.9100000262260437
954,0.00015934070688672364,1.0,0.48493584990501404,0.9100000262260437
955,2.3943453925312497e-05,1.0,0.48767608404159546,0.9100000262260437
956,0.00020428199786692858,1.0,0.48900309205055237,0.9100000262260437
957,9.401034913025796e-05,1.0,0.48923176527023315,0.9100000262260437
958,0.0003533417475409806,1.0,0.4905444085597992,0.9100000262260437
959,0.001455544726923108,1.0,0.4794056713581085,0.9100000262260437
960,5.523221625480801e-05,1.0,0.47758251428604126,0.9100000262260437
961,0.0003227696579415351,1.0,0.4801866114139557,0.9200000166893005
962,4.0036266000242904e-05,1.0,0.48407822847366333,0.9200000166893005
963,0.00017792757716961205,1.0,0.486316442489624,0.9200000166893005
964,5.5136839364422485e-05,1.0,0.4873405694961548,0.9200000166893005
965,0.0003936108259949833,1.0,0.4897270202636719,0.9200000166893005
966,5.321648859535344e-05,1.0,0.4922219216823578,0.9200000166893005
967,3.631813888205215e-05,1.0,0.4954977333545685,0.9200000166893005
968,0.00013796794519294053,1.0,0.49983078241348267,0.9200000166893005
969,0.00017494516214355826,1.0,0.5034951567649841,0.9200000166893005
970,3.166911847074516e-05,1.0,0.5062815546989441,0.9200000166893005
971,5.02777547808364e-05,1.0,0.5097267627716064,0.9200000166893005
972,0.0002918439276982099,1.0,0.5092628598213196,0.9200000166893005
973,8.297857857542112e-05,1.0,0.5110769271850586,0.9200000166893005
974,1.0012756320065819e-05,1.0,0.513418436050415,0.9200000166893005
975,0.00045376713387668133,1.0,0.5134384632110596,0.9200000166893005
976,2.089797089865897e-05,1.0,0.5127044916152954,0.9200000166893005
977,5.6572211178718135e-05,1.0,0.5149096846580505,0.9200000166893005
978,6.900886546645779e-06,1.0,0.5170254111289978,0.9200000166893005
979,5.922220225329511e-06,1.0,0.5195377469062805,0.9200000166893005
980,2.23416955122957e-05,1.0,0.5216996669769287,0.9200000166893005
981,0.00018574789282865822,1.0,0.5230247378349304,0.9200000166893005
982,0.00016975942708086222,1.0,0.525495171546936,0.9200000166893005
983,0.00032912279129959643,1.0,0.5279777646064758,0.9200000166893005
984,2.022438457061071e-05,1.0,0.5296649932861328,0.9200000166893005
985,4.614287172444165e-05,1.0,0.5323324799537659,0.9200000166893005
986,0.0003481590247247368,1.0,0.5323536396026611,0.9200000166893005
987,1.5562927728751674e-05,1.0,0.5332844853401184,0.9200000166893005
988,7.709569035796449e-05,1.0,0.5345057845115662,0.9200000166893005
989,1.4032175386091694e-05,1.0,0.5360183119773865,0.9200000166893005
990,4.3870051740668714e-05,1.0,0.5377703309059143,0.9200000166893005
991,2.099302400893066e-05,1.0,0.5389278531074524,0.9200000166893005
992,1.890901148726698e-05,1.0,0.5399778485298157,0.9200000166893005
993,1.852839341154322e-05,1.0,0.5414302349090576,0.9200000166893005
994,2.591998600109946e-05,1.0,0.542551577091217,0.9200000166893005
995,9.800797670322936e-06,1.0,0.5434949398040771,0.9200000166893005
996,0.00034756064997054636,1.0,0.5444682836532593,0.9200000166893005
997,1.401533700118307e-05,1.0,0.5418074131011963,0.9200000166893005
998,0.00010002010822063312,1.0,0.5422433614730835,0.9200000166893005
999,2.6339865144109353e-05,1.0,0.5436861515045166,0.9200000166893005
1000,1.5799931134097278e-05,1.0,0.5448062419891357,0.9200000166893005
1001,3.422503505134955e-05,1.0,0.5461333394050598,0.9200000166893005
1002,5.134331513545476e-05,1.0,0.5481806397438049,0.9100000262260437
1003,0.00034957879688590765,1.0,0.5505576133728027,0.9100000262260437
1004,0.0001556424394948408,1.0,0.5530063509941101,0.9100000262260437
1005,1.4954050129745156e-05,1.0,0.5549982190132141,0.9100000262260437
1006,1.7507079974166118e-05,1.0,0.5563516020774841,0.9100000262260437
1007,4.9840000428957865e-06,1.0,0.5570371150970459,0.9100000262260437
1008,3.666811608127318e-05,1.0,0.5577218532562256,0.9100000262260437
1009,2.440680327708833e-05,1.0,0.5583047270774841,0.9100000262260437
1010,1.280594733543694e-05,1.0,0.5582269430160522,0.9100000262260437
1011,4.702623846242204e-05,1.0,0.5591888427734375,0.9100000262260437
1012,6.88144973537419e-06,1.0,0.5597590208053589,0.9100000262260437
1013,3.004823884111829e-05,1.0,0.560368001461029,0.9100000262260437
1014,4.721045115729794e-05,1.0,0.5601726770401001,0.9100000262260437
1015,7.933515007607639e-05,1.0,0.5592117309570312,0.9100000262260437
1016,1.7509202734800056e-05,1.0,0.559185266494751,0.9100000262260437
1017,2.5920951884472743e-05,1.0,0.5594755411148071,0.9100000262260437
1018,3.659744834294543e-05,1.0,0.5597782135009766,0.9100000262260437
1019,0.0001569284504512325,1.0,0.5580602884292603,0.9100000262260437
1020,2.310013587702997e-05,1.0,0.5576016902923584,0.9100000262260437
1021,3.5833287256537005e-05,1.0,0.5574609637260437,0.9100000262260437
1022,3.5346562071936205e-05,1.0,0.5571634769439697,0.9100000262260437
1023,0.00012160151527496055,1.0,0.5560199618339539,0.9100000262260437
1024,8.537514077033848e-06,1.0,0.5557872653007507,0.9100000262260437
1025,2.1309642761480063e-05,1.0,0.5561870336532593,0.9100000262260437
1026,3.1036259315442294e-05,1.0,0.5569853782653809,0.9100000262260437
1027,8.465887731290422e-06,1.0,0.5575971603393555,0.9100000262260437
1028,8.029723539948463e-05,1.0,0.5587756633758545,0.9100000262260437
1029,2.3083721316652372e-05,1.0,0.5598065853118896,0.9100000262260437
1030,1.0140772246813867e-05,1.0,0.5606797933578491,0.9100000262260437
1031,0.00012312809121795,1.0,0.5651026368141174,0.9100000262260437
1032,5.751990101998672e-05,1.0,0.5651527643203735,0.9100000262260437
1033,5.557415988732828e-06,1.0,0.5655093193054199,0.9100000262260437
1034,1.5079352124303114e-05,1.0,0.5666334629058838,0.9100000262260437
1035,0.0001782576582627371,1.0,0.5682621598243713,0.9100000262260437
1036,0.00016063271323218942,1.0,0.5706732273101807,0.9100000262260437
1037,3.372498395037837e-05,1.0,0.571244478225708,0.9100000262260437
1038,0.00011216010898351669,1.0,0.5721907019615173,0.9100000262260437
1039,3.958107117796317e-05,1.0,0.5725301504135132,0.9100000262260437
1040,1.21122611744795e-05,1.0,0.573212206363678,0.9100000262260437
1041,9.797528946364764e-06,1.0,0.5738465785980225,0.9100000262260437
1042,0.00010635930084390566,1.0,0.5755557417869568,0.9100000262260437
1043,1.2172252354503144e-05,1.0,0.575727641582489,0.9100000262260437
1044,2.0506435248535126e-05,1.0,0.576288640499115,0.9100000262260437
1045,4.307318158680573e-05,1.0,0.5757191181182861,0.9100000262260437
1046,0.0001844287326093763,1.0,0.5749505758285522,0.9100000262260437
1047,8.174278627848253e-05,1.0,0.5748002529144287,0.9100000262260437
1048,3.0296503609861247e-05,1.0,0.574539303779602,0.9100000262260437
1049,1.0985656444972847e-05,1.0,0.5743868947029114,0.9100000262260437
1050,8.744979822949972e-06,1.0,0.5745705962181091,0.9100000262260437
1051,0.000125988939544186,1.0,0.5747705698013306,0.9100000262260437
1052,1.4374693819263484e-05,1.0,0.5742910504341125,0.9100000262260437
1053,7.310648925340502e-06,1.0,0.5744035840034485,0.9100000262260437
1054,1.9773366148001514e-05,1.0,0.5747299790382385,0.9100000262260437
1055,9.333457455795724e-06,1.0,0.5749577879905701,0.9100000262260437
1056,7.700723472225945e-06,1.0,0.5752185583114624,0.9100000262260437
1057,1.0071596079797018e-05,1.0,0.5757519602775574,0.9100000262260437
1058,5.083160431240685e-05,1.0,0.5764285326004028,0.9100000262260437
1059,1.2357724699540995e-05,1.0,0.5771689414978027,0.9100000262260437
1060,4.306951268517878e-06,1.0,0.5774608850479126,0.9100000262260437
1061,1.2163372048235033e-05,1.0,0.5780676007270813,0.9100000262260437
1062,2.353033960389439e-05,1.0,0.5786725878715515,0.9100000262260437
1063,7.186954462667927e-06,1.0,0.5789793133735657,0.9100000262260437
1064,2.0195064280414954e-05,1.0,0.5796971917152405,0.9100000262260437
1065,5.09236087964382e-05,1.0,0.5796900391578674,0.9100000262260437
1066,0.00012735581549350172,1.0,0.5804106593132019,0.9100000262260437
1067,0.0002624810440465808,1.0,0.5793710947036743,0.9100000262260437
1068,2.7587488148128614e-05,1.0,0.5787135362625122,0.9100000262260437
1069,2.073081850539893e-05,1.0,0.578336775302887,0.9100000262260437
1070,6.853789818705991e-05,1.0,0.5791038274765015,0.9100000262260437
1071,4.165759673924185e-05,1.0,0.5792481899261475,0.9100000262260437
1072,3.7607303966069594e-05,1.0,0.5797521471977234,0.9100000262260437
1073,1.4760431440663524e-05,1.0,0.5801946520805359,0.9100000262260437
1074,3.919551545550348e-06,1.0,0.5803948640823364,0.9100000262260437
1075,3.1792785648576682e-06,1.0,0.5805985331535339,0.9100000262260437
1076,1.1586543223529588e-05,1.0,0.5810892581939697,0.9100000262260437
1077,0.00023297459119930863,1.0,0.585345447063446,0.9100000262260437
1078,8.088311005849391e-05,1.0,0.5853805541992188,0.9100000262260437
1079,3.205328539479524e-05,1.0,0.5843786597251892,0.9100000262260437
1080,4.482151325646555e-06,1.0,0.5832454562187195,0.9100000262260437
1081,0.0001265937025891617,1.0,0.5818663239479065,0.9100000262260437
1082,6.379968453984475e-06,1.0,0.580589234828949,0.9100000262260437
1083,1.8362197806709446e-05,1.0,0.5799381732940674,0.9100000262260437
1084,0.00012148187670391053,1.0,0.5776670575141907,0.9100000262260437
1085,4.242581780999899e-06,1.0,0.5758740901947021,0.9100000262260437
1086,7.2989055297512095e-06,1.0,0.5751782655715942,0.9100000262260437
1087,5.996020263410173e-06,1.0,0.5747627019882202,0.9100000262260437
1088,0.00015420951240230352,1.0,0.5737480521202087,0.9100000262260437
1089,7.761553206364624e-06,1.0,0.572748064994812,0.9100000262260437
1090,2.0386924006743357e-05,1.0,0.5727483034133911,0.9100000262260437
1091,1.9645518477773294e-05,1.0,0.5727468132972717,0.9100000262260437
1092,0.00011502898996695876,1.0,0.5708511471748352,0.9100000262260437
1093,1.0889335499086883e-05,1.0,0.5705605149269104,0.9100000262260437
1094,5.133079412189545e-06,1.0,0.5709726810455322,0.9100000262260437
1095,0.00012596335727721453,1.0,0.5682259202003479,0.9200000166893005
1096,3.9490558265242726e-05,1.0,0.5668554902076721,0.9200000166893005
1097,2.6090936444234103e-05,1.0,0.5666539072990417,0.9200000166893005
1098,2.2655613065580837e-05,1.0,0.5672568678855896,0.9200000166893005
1099,6.51703203402576e-06,1.0,0.567725658416748,0.9200000166893005
1100,3.827695763902739e-06,1.0,0.5684728026390076,0.9200000166893005
1101,4.49045410277904e-06,1.0,0.5689533352851868,0.9200000166893005
1102,1.25981659948593e-05,1.0,0.5698713064193726,0.9200000166893005
1103,0.00015741847164463252,1.0,0.5746572613716125,0.9200000166893005
1104,9.950049570761621e-05,1.0,0.5768198370933533,0.9200000166893005
1105,8.390597940888256e-05,1.0,0.5764710307121277,0.9200000166893005
1106,2.7956417397945188e-05,1.0,0.576278567314148,0.9200000166893005
1107,5.4426876886282116e-05,1.0,0.5750779509544373,0.9200000166893005
1108,0.00012376546510495245,1.0,0.5711373090744019,0.9200000166893005
1109,2.6530724426265806e-05,1.0,0.5693899393081665,0.9200000166893005
1110,2.0818953998968937e-05,1.0,0.5695595741271973,0.9200000166893005
1111,3.951527469325811e-05,1.0,0.5703263282775879,0.9200000166893005
1112,1.300047824770445e-05,1.0,0.5712875723838806,0.9200000166893005
1113,6.9473667281272355e-06,1.0,0.572361409664154,0.9200000166893005
1114,1.3098186173010617e-05,1.0,0.5737594366073608,0.9200000166893005
1115,8.039188287511934e-06,1.0,0.5744890570640564,0.9200000166893005
1116,0.0001400551263941452,1.0,0.5775036811828613,0.9200000166893005
1117,2.2033498680684716e-05,1.0,0.5781581997871399,0.9200000166893005
1118,1.6479432815685868e-05,1.0,0.5788898468017578,0.9200000166893005
1119,2.839250555553008e-05,1.0,0.5790767073631287,0.9200000166893005
1120,2.4817110897856764e-05,1.0,0.5796372890472412,0.9200000166893005
1121,3.114372884738259e-05,1.0,0.5789880156517029,0.9200000166893005
1122,1.2049833458149806e-05,1.0,0.5788424015045166,0.9200000166893005
1123,4.260461082594702e-06,1.0,0.5792950391769409,0.9200000166893005
1124,0.00021284546528477222,1.0,0.575100839138031,0.9200000166893005
1125,4.40590793004958e-06,1.0,0.5673025250434875,0.9200000166893005
1126,4.631381307262927e-05,1.0,0.567007839679718,0.9200000166893005
1127,7.292038935702294e-05,1.0,0.567793607711792,0.9200000166893005
1128,5.3957315685693175e-05,1.0,0.5682726502418518,0.9200000166893005
1129,2.6362196877016686e-05,1.0,0.570228099822998,0.9200000166893005
1130,0.00016298764967359602,1.0,0.5762397050857544,0.9200000166893005
1131,2.2267180611379445e-05,1.0,0.5840712189674377,0.9200000166893005
1132,2.880970532714855e-05,1.0,0.5860946178436279,0.9200000166893005
1133,1.651066486374475e-05,1.0,0.5864759683609009,0.9200000166893005
1134,4.045876721647801e-06,1.0,0.5857459902763367,0.9200000166893005
1135,1.29596701299306e-05,1.0,0.5855743288993835,0.9200000166893005
1136,2.282086825289298e-05,1.0,0.5852053165435791,0.9200000166893005
1137,0.00011607769556576386,1.0,0.585324227809906,0.9200000166893005
1138,1.1243192602705676e-05,1.0,0.5853095054626465,0.9200000166893005
1139,1.1508894203871023e-05,1.0,0.5849384069442749,0.9200000166893005
1140,1.4576417925127316e-05,1.0,0.5845131278038025,0.9200000166893005
1141,1.3478053006110713e-05,1.0,0.5829395055770874,0.9200000166893005
1142,0.00010899218614213169,1.0,0.5823159217834473,0.9200000166893005
1143,0.00017976768140215427,1.0,0.5746296644210815,0.9200000166893005
1144,1.3817514627589844e-05,1.0,0.5663632750511169,0.9200000166893005
1145,7.648675818927586e-05,1.0,0.5659076571464539,0.9200000166893005
1146,0.00014863297110423446,1.0,0.5650267004966736,0.9200000166893005
1147,7.859223842388019e-06,1.0,0.5644939541816711,0.9200000166893005
1148,1.0115718396264128e-05,1.0,0.5648980140686035,0.9200000166893005
1149,2.2916548914508894e-05,1.0,0.5670748353004456,0.9200000166893005
1150,1.178084949060576e-05,1.0,0.5682192444801331,0.9200000166893005
1151,2.8693524654954672e-05,1.0,0.5693848729133606,0.9200000166893005
1152,1.4251559150579851e-05,1.0,0.5696902871131897,0.9200000166893005
1153,1.049369075190043e-05,1.0,0.5701176524162292,0.9200000166893005
1154,6.606417173316004e-06,1.0,0.5704531669616699,0.9200000166893005
1155,1.6292471627821214e-05,1.0,0.5715259313583374,0.9200000166893005
1156,3.082790499320254e-05,1.0,0.5717111825942993,0.9200000166893005
1157,9.538694030197803e-06,1.0,0.5717716217041016,0.9200000166893005
1158,4.408264430821873e-06,1.0,0.5719411969184875,0.9200000166893005
1159,1.8961734895128757e-05,1.0,0.5724940299987793,0.9200000166893005
1160,1.547394822409842e-05,1.0,0.5712342262268066,0.9200000166893005
1161,6.103460327722132e-05,1.0,0.571042537689209,0.9200000166893005
1162,0.00012786599108949304,1.0,0.5746166706085205,0.9200000166893005
1163,2.8574293082783697e-06,1.0,0.5759502649307251,0.9200000166893005
1164,1.7275602658628486e-05,1.0,0.5768115520477295,0.9200000166893005
1165,1.64199427672429e-05,1.0,0.5777913928031921,0.9200000166893005
1166,2.9349339456530288e-05,1.0,0.5781916975975037,0.9200000166893005
1167,4.491263098316267e-05,1.0,0.5784066915512085,0.9200000166893005
1168,0.00018738902872428298,1.0,0.5802754163742065,0.9200000166893005
1169,5.167612835066393e-05,1.0,0.5780584812164307,0.9200000166893005
1170,1.5752691979287192e-05,1.0,0.5776908993721008,0.9200000166893005
1171,5.548340777750127e-05,1.0,0.5781782269477844,0.9200000166893005
1172,2.567581759649329e-05,1.0,0.5783365964889526,0.9200000166893005
1173,2.7687496185535565e-05,1.0,0.5787883996963501,0.9200000166893005
1174,8.860153320711106e-05,1.0,0.5787303447723389,0.9200000166893005
1175,1.7583784938324243e-05,1.0,0.5809828639030457,0.9200000166893005
1176,1.2641708963201381e-05,1.0,0.5817890763282776,0.9100000262260437
1177,5.475193574966397e-06,1.0,0.581742525100708,0.9100000262260437
1178,3.824153282039333e-06,1.0,0.581093966960907,0.9100000262260437
1179,3.925743658328429e-05,1.0,0.5811220407485962,0.9100000262260437
1180,8.11543759482447e-06,1.0,0.5808634161949158,0.9100000262260437
1181,1.1231450116611086e-05,1.0,0.5808843970298767,0.9100000262260437
1182,2.704839516809443e-06,1.0,0.5803651213645935,0.9100000262260437
1183,8.685944339958951e-05,1.0,0.574475109577179,0.9200000166893005
1184,9.338090421806555e-06,1.0,0.5722125172615051,0.9200000166893005
1185,1.814029565139208e-05,1.0,0.5722171664237976,0.9200000166893005
1186,0.0001558535877848044,1.0,0.5674071907997131,0.9200000166893005
1187,0.0006217450136318803,1.0,0.5450777411460876,0.9200000166893005
1188,4.4165421968500596e-06,1.0,0.5336371064186096,0.9200000166893005
1189,2.06946128855634e-06,1.0,0.5310266017913818,0.9200000166893005
1190,6.339610263239592e-05,1.0,0.5330614447593689,0.9200000166893005
1191,3.396326064830646e-05,1.0,0.5354483127593994,0.9200000166893005
1192,4.5632450564880855e-06,1.0,0.537528395652771,0.9200000166893005
1193,3.1506285722571192e-06,1.0,0.5387930274009705,0.9200000166893005
1194,2.3567422431369778e-06,1.0,0.5400841236114502,0.9200000166893005
1195,5.311887889547506e-06,1.0,0.5414121747016907,0.9200000166893005
1196,6.4359196585428435e-06,1.0,0.5422278642654419,0.9200000166893005
1197,7.147657015593722e-05,1.0,0.5446794629096985,0.9200000166893005
1198,4.169895419181557e-06,1.0,0.545528769493103,0.9200000166893005
1199,9.235916877514683e-06,1.0,0.5468087196350098,0.9200000166893005
1200,1.2306451026233844e-05,1.0,0.547799289226532,0.9200000166893005
1201,4.310436997911893e-05,1.0,0.5494437217712402,0.9200000166893005
1202,6.521832347061718e-06,1.0,0.551841676235199,0.9200000166893005
1203,4.653860287362477e-06,1.0,0.5531368255615234,0.9200000166893005
1204,6.041345386620378e-06,1.0,0.5539094805717468,0.9200000166893005
1205,3.216436743969098e-05,1.0,0.5553728342056274,0.9200000166893005
1206,1.0081183972943109e-05,1.0,0.5561662316322327,0.9200000166893005
1207,5.535885520657757e-06,1.0,0.5565590858459473,0.9200000166893005
1208,1.0355105587223079e-05,1.0,0.5568581819534302,0.9200000166893005
1209,6.923410182935186e-06,1.0,0.5571112632751465,0.9200000166893005
1210,3.35926461048075e-06,1.0,0.5572502613067627,0.9200000166893005
1211,1.895685272756964e-05,1.0,0.558059811592102,0.9200000166893005
1212,2.3888936993898824e-05,1.0,0.5591021180152893,0.9200000166893005
1213,3.531073161866516e-05,1.0,0.5594239234924316,0.9200000166893005
1214,1.0195502909482457e-05,1.0,0.5591405630111694,0.9200000166893005
1215,2.2217209334485233e-05,1.0,0.5596494674682617,0.9200000166893005
1216,3.7168681501498213e-06,1.0,0.5597646832466125,0.9200000166893005
1217,1.7678653421171475e-06,1.0,0.5597172379493713,0.9200000166893005
1218,4.790487582795322e-05,1.0,0.560309648513794,0.9200000166893005
1219,3.116357038379647e-05,1.0,0.5603368878364563,0.9200000166893005
1220,5.005523689760594e-06,1.0,0.5617524981498718,0.9200000166893005
1221,4.2085666791535914e-05,1.0,0.5639610886573792,0.9200000166893005
1222,8.488621460855938e-06,1.0,0.5661704540252686,0.9200000166893005
1223,1.1038133379770443e-05,1.0,0.5668904185295105,0.9200000166893005
1224,1.169731876871083e-05,1.0,0.5669122934341431,0.9200000166893005
1225,3.0602772312704474e-05,1.0,0.5673375725746155,0.9200000166893005
1226,2.630754534038715e-05,1.0,0.5689539909362793,0.9200000166893005
1227,7.910262866062112e-06,1.0,0.5702152848243713,0.9200000166893005
1228,5.662317107635317e-06,1.0,0.5705265998840332,0.9200000166893005
1229,2.2323392840917222e-05,1.0,0.5703142285346985,0.9200000166893005
1230,4.441664259502431e-06,1.0,0.5697221159934998,0.9200000166893005
1231,1.5056044503580779e-05,1.0,0.5696794390678406,0.9200000166893005
1232,1.5281553714885376e-05,1.0,0.5686100721359253,0.9200000166893005
1233,4.7682851800345816e-06,1.0,0.5682052969932556,0.9200000166893005
1234,8.364530913240742e-06,1.0,0.5682779550552368,0.9200000166893005
1235,5.467668961500749e-05,1.0,0.5718331336975098,0.9200000166893005
1236,1.390223314956529e-05,1.0,0.5725124478340149,0.9200000166893005
1237,7.442066362273181e-06,1.0,0.5725057721138,0.9200000166893005
1238,1.6599618902546354e-05,1.0,0.5727182030677795,0.9200000166893005
1239,1.4205778825271409e-05,1.0,0.5727126002311707,0.9200000166893005
1240,1.1937271665374283e-05,1.0,0.5728440880775452,0.9200000166893005
1241,3.936193024856038e-06,1.0,0.5723384022712708,0.9200000166893005
1242,0.0003760853433050215,1.0,0.5566614270210266,0.9200000166893005
1243,3.503513880787068e-06,1.0,0.5473566055297852,0.9200000166893005
1244,6.149229011498392e-05,1.0,0.5470128059387207,0.9200000166893005
1245,4.422015626914799e-05,1.0,0.5483540296554565,0.9200000166893005
1246,5.7779902817856055e-06,1.0,0.5494027137756348,0.9200000166893005
1247,4.064996119268471e-06,1.0,0.5500795245170593,0.9200000166893005
1248,1.2076804523530882e-05,1.0,0.5511642098426819,0.9200000166893005
1249,1.806150612537749e-05,1.0,0.5516532063484192,0.9200000166893005
1250,8.642431203043088e-05,1.0,0.5549300909042358,0.9200000166893005
1251,6.2726667238166556e-06,1.0,0.5585938692092896,0.9200000166893005
1252,7.788966286170762e-06,1.0,0.5606563091278076,0.9200000166893005
1253,4.123829785385169e-05,1.0,0.5625837445259094,0.9200000166893005
1254,2.642821527842898e-06,1.0,0.5629897117614746,0.9200000166893005
1255,8.548961886845063e-06,1.0,0.5637515783309937,0.9200000166893005
1256,6.518131158372853e-06,1.0,0.5640569925308228,0.9200000166893005
1257,6.314302936516469e-06,1.0,0.5642011761665344,0.9200000166893005
1258,5.180711923458148e-06,1.0,0.5640117526054382,0.9200000166893005
1259,4.8743058869149536e-05,1.0,0.5643078684806824,0.9200000166893005
1260,1.3783036592940334e-05,1.0,0.5651165843009949,0.9200000166893005
1261,2.6876628908212297e-05,1.0,0.5657763481140137,0.9200000166893005
1262,1.5113090739760082e-05,1.0,0.5658094882965088,0.9200000166893005
1263,1.4281223229772877e-05,1.0,0.5661745667457581,0.9200000166893005
1264,8.557454748370219e-06,1.0,0.5666261911392212,0.9200000166893005
1265,5.839964160259115e-06,1.0,0.5669163465499878,0.9200000166893005
1266,7.048705811030231e-06,1.0,0.5674248337745667,0.9200000166893005
1267,1.9617969883256592e-05,1.0,0.5688278079032898,0.9200000166893005
1268,4.926827386952937e-06,1.0,0.5698491930961609,0.9200000166893005
1269,2.0730369669763604e-06,1.0,0.5700348019599915,0.9200000166893005
1270,8.185834303731099e-06,1.0,0.5702977776527405,0.9200000166893005
1271,1.0722204024204984e-05,1.0,0.5704692006111145,0.9200000166893005
1272,1.0458752512931824e-05,1.0,0.5709879398345947,0.9200000166893005
1273,1.5147073099797126e-05,1.0,0.5723260641098022,0.9200000166893005
1274,1.0339579603169113e-05,1.0,0.5722190141677856,0.9200000166893005
1275,1.2714389413304161e-05,1.0,0.5729676485061646,0.9200000166893005
1276,1.6056594176916406e-05,1.0,0.5726566910743713,0.9200000166893005
1277,6.26815453870222e-05,1.0,0.5760946869850159,0.9200000166893005
1278,5.834987859998364e-06,1.0,0.582181990146637,0.9200000166893005
1279,0.00010140591621166095,1.0,0.5892221331596375,0.9200000166893005
1280,9.945964848157018e-06,1.0,0.5952221155166626,0.9200000166893005
1281,4.812382940144744e-06,1.0,0.5951134562492371,0.9200000166893005
1282,5.200242230785079e-05,1.0,0.5930467844009399,0.9200000166893005
1283,2.211174250987824e-05,1.0,0.5917121767997742,0.9200000166893005
1284,2.0611008949344978e-05,1.0,0.590502917766571,0.9200000166893005
1285,4.3093482418044005e-06,1.0,0.5885404348373413,0.9200000166893005
1286,2.1922451196587645e-06,1.0,0.5869168043136597,0.9200000166893005
1287,1.5926257219689433e-06,1.0,0.5856333374977112,0.9200000166893005
1288,5.749307092628442e-06,1.0,0.5848619341850281,0.9200000166893005
1289,4.3403370000305586e-06,1.0,0.5836877226829529,0.9200000166893005
1290,1.2132458323321771e-05,1.0,0.582257866859436,0.9200000166893005
1291,3.2603361432848033e-06,1.0,0.5811636447906494,0.9200000166893005
1292,9.038945427164435e-05,1.0,0.57768714427948,0.9200000166893005
1293,7.674366315768566e-06,1.0,0.5680378079414368,0.9200000166893005
1294,1.7881304756883765e-06,1.0,0.564531147480011,0.9200000166893005
1295,4.01616380258929e-05,1.0,0.5608449578285217,0.9200000166893005
1296,1.7245078197447583e-05,1.0,0.5597599148750305,0.9200000166893005
1297,2.688144149942673e-06,1.0,0.5598052740097046,0.9200000166893005
1298,7.0462142502947245e-06,1.0,0.560335099697113,0.9200000166893005
1299,1.3950408174423501e-05,1.0,0.5609574913978577,0.9200000166893005
1300,5.720715762436157e-06,1.0,0.5611711144447327,0.9200000166893005
1301,1.2886644071841147e-05,1.0,0.5619065165519714,0.9200000166893005
1302,4.206826361041749e-06,1.0,0.5625779628753662,0.9200000166893005
1303,6.707142892992124e-05,1.0,0.5631932020187378,0.9200000166893005
1304,1.9240237634221558e-06,1.0,0.5641911029815674,0.9200000166893005
1305,3.5392818062973674e-06,1.0,0.5650891065597534,0.9200000166893005
1306,5.476294518302893e-06,1.0,0.5658431053161621,0.9200000166893005
1307,4.978186552762054e-05,1.0,0.5725980401039124,0.9200000166893005
1308,5.429850261862157e-06,1.0,0.5745241641998291,0.9200000166893005
1309,1.0034659680968616e-05,1.0,0.5753818154335022,0.9200000166893005
1310,5.446575869427761e-06,1.0,0.5756035447120667,0.9200000166893005
1311,6.133230272098444e-06,1.0,0.5758386850357056,0.9200000166893005
1312,6.707870488753542e-05,1.0,0.5818608999252319,0.9200000166893005
1313,2.469997298248927e-06,1.0,0.5834711194038391,0.9200000166893005
1314,4.123777762288228e-05,1.0,0.5821377635002136,0.9200000166893005
1315,1.646273631195072e-06,1.0,0.5808549523353577,0.9200000166893005
1316,8.526798410457559e-06,1.0,0.5807273983955383,0.9200000166893005
1317,4.504110984271392e-05,1.0,0.5800280570983887,0.9200000166893005
1318,8.983232874015812e-06,1.0,0.5791298151016235,0.9200000166893005
1319,2.1588537038041977e-06,1.0,0.5785789489746094,0.9200000166893005
1320,1.4834180547040887e-05,1.0,0.5794193148612976,0.9200000166893005
1321,2.4474684323649853e-05,1.0,0.5802496671676636,0.9200000166893005
1322,4.730149612441892e-06,1.0,0.5810130834579468,0.9200000166893005
1323,7.498700870200992e-05,1.0,0.5812423825263977,0.9200000166893005
1324,2.7954195047641406e-06,1.0,0.5809677839279175,0.9200000166893005
1325,6.52001763228327e-05,1.0,0.5813284516334534,0.9200000166893005
1326,1.2272311323613394e-05,1.0,0.5805156230926514,0.9200000166893005
1327,6.218854105100036e-05,1.0,0.580363392829895,0.9200000166893005
1328,3.4821758163161576e-05,1.0,0.5809145569801331,0.9200000166893005
1329,3.303257471998222e-06,1.0,0.5819934606552124,0.9200000166893005
1330,1.2550838619063143e-05,1.0,0.5828320384025574,0.9200000166893005
1331,3.347956226207316e-05,1.0,0.5831805467605591,0.9200000166893005
1332,3.547166852513328e-05,1.0,0.5836825370788574,0.9200000166893005
1333,7.594571343361167e-06,1.0,0.583634078502655,0.9200000166893005
1334,2.7036387564294273e-06,1.0,0.5832194685935974,0.9200000166893005
1335,5.789663555333391e-05,1.0,0.583575963973999,0.9200000166893005
1336,2.809297075145878e-05,1.0,0.5829257369041443,0.9200000166893005
1337,1.4393383025890216e-05,1.0,0.5827868580818176,0.9200000166893005
1338,5.770833013230003e-06,1.0,0.5826612710952759,0.9200000166893005
1339,5.135439278092235e-05,1.0,0.5825760960578918,0.9200000166893005
1340,1.5407793398480862e-05,1.0,0.5832278728485107,0.9200000166893005
1341,2.7274907097307732e-06,1.0,0.5827221274375916,0.9200000166893005
1342,3.4066579246427864e-05,1.0,0.5817395448684692,0.9200000166893005
1343,4.994175105821341e-05,1.0,0.5768694281578064,0.9200000166893005
1344,5.679068999597803e-05,1.0,0.5741552710533142,0.9200000166893005
1345,4.976857326255413e-06,1.0,0.5728839039802551,0.9200000166893005
1346,5.446556770039024e-06,1.0,0.5729768872261047,0.9200000166893005
1347,2.721522378124064e-06,1.0,0.5732905864715576,0.9200000166893005
1348,3.817033302766504e-06,1.0,0.5735774040222168,0.9200000166893005
1349,5.130671979713952e-06,1.0,0.5739710927009583,0.9200000166893005
1350,3.634927998064086e-05,1.0,0.5770358443260193,0.9200000166893005
1351,5.178346327738836e-06,1.0,0.5783397555351257,0.9200000166893005
1352,2.05038827516546e-06,1.0,0.5788046717643738,0.9200000166893005
1353,2.700624827411957e-05,1.0,0.5799498558044434,0.9200000166893005
1354,2.7274845706415363e-06,1.0,0.5804482102394104,0.9200000166893005
1355,3.3604910640860908e-06,1.0,0.5804229378700256,0.9200000166893005
1356,1.4968290997785516e-05,1.0,0.5804436206817627,0.9200000166893005
1357,4.4653629629465286e-06,1.0,0.5798377990722656,0.9200000166893005
1358,0.008782830089330673,1.0,0.5610517859458923,0.8799999952316284
1359,0.003805476473644376,1.0,0.7210778594017029,0.8700000047683716
1360,0.0060181887820363045,1.0,2.0137665271759033,0.5799999833106995
1361,0.0008644923800602555,1.0,1.2561546564102173,0.7400000095367432
1362,0.00019652783521451056,1.0,0.9290832281112671,0.8600000143051147
1363,9.997490997193381e-05,1.0,0.7510575652122498,0.8700000047683716
1364,0.0001532736496301368,1.0,0.6297475695610046,0.8700000047683716
1365,0.001335667329840362,1.0,0.5420876145362854,0.8999999761581421
1366,0.00016817364667076617,1.0,0.4868391454219818,0.9200000166893005
1367,0.0003774898359552026,1.0,0.46581780910491943,0.9300000071525574
1368,8.904907735995948e-05,1.0,0.4568519592285156,0.9399999976158142
1369,0.00020329415565356612,1.0,0.4613007605075836,0.9300000071525574
1370,0.0026014246977865696,1.0,0.4381822943687439,0.9399999976158142
1371,0.00029968153103254735,1.0,0.42416492104530334,0.9399999976158142
1372,0.00018497658311389387,1.0,0.4221627116203308,0.9300000071525574
1373,3.652513260021806e-05,1.0,0.4270617663860321,0.9300000071525574
1374,1.862074168457184e-05,1.0,0.4313395619392395,0.9300000071525574
1375,5.7315006415592507e-05,1.0,0.4356740713119507,0.9200000166893005
1376,0.00010576313070487231,1.0,0.44252753257751465,0.9300000071525574
1377,7.630426262039691e-05,1.0,0.4497763514518738,0.9300000071525574
1378,2.9820066629326902e-05,1.0,0.4556043744087219,0.9200000166893005
1379,8.194395923055708e-05,1.0,0.4617023468017578,0.9200000166893005
1380,0.00027851862250827253,1.0,0.46824800968170166,0.9200000166893005
1381,1.7390681023243815e-05,1.0,0.47390830516815186,0.9200000166893005
1382,1.4533326066157315e-05,1.0,0.47650977969169617,0.9200000166893005
1383,4.182773773209192e-05,1.0,0.47945594787597656,0.9200000166893005
1384,3.0682476790389046e-05,1.0,0.47944092750549316,0.9200000166893005
1385,0.0005114860832691193,1.0,0.5320435166358948,0.9200000166893005
1386,3.4556091122794896e-05,1.0,0.5490049719810486,0.9200000166893005
1387,4.131849709665403e-05,1.0,0.5522152781486511,0.9200000166893005
1388,1.0402961379440967e-05,1.0,0.5499130487442017,0.9200000166893005
1389,3.178253609803505e-05,1.0,0.546947717666626,0.9200000166893005
1390,0.00014182410086505115,1.0,0.5475009679794312,0.9200000166893005
1391,2.618306280055549e-05,1.0,0.5451831221580505,0.9200000166893005
1392,0.00011636329145403579,1.0,0.5444150567054749,0.9200000166893005
1393,6.452629168052226e-05,1.0,0.5438635349273682,0.9200000166893005
1394,0.00010613168706186116,1.0,0.5441338419914246,0.9200000166893005
1395,3.376718450454064e-05,1.0,0.5459054708480835,0.9200000166893005
1396,4.918950435239822e-05,1.0,0.5443793535232544,0.9200000166893005
1397,8.47304763738066e-05,1.0,0.5427391529083252,0.9200000166893005
1398,9.848122135736048e-05,1.0,0.5422841310501099,0.9200000166893005
1399,2.0432074961718172e-05,1.0,0.5412437319755554,0.9200000166893005
1400,3.9432066841982305e-05,1.0,0.5397956371307373,0.9200000166893005
1401,2.7335641789250076e-05,1.0,0.5379353761672974,0.9200000166893005
1402,1.140576659963699e-05,1.0,0.5359065532684326,0.9200000166893005
1403,3.071281025768258e-05,1.0,0.534953236579895,0.9200000166893005
1404,0.00021280300279613584,1.0,0.5324664115905762,0.9200000166893005
1405,9.340376709587872e-05,1.0,0.5374295115470886,0.9200000166893005
1406,0.00010473378642927855,1.0,0.5420337915420532,0.9200000166893005
1407,0.00025624886620789766,1.0,0.5608205199241638,0.9200000166893005
1408,1.428427185601322e-05,1.0,0.566164493560791,0.9200000166893005
1409,6.1355649449978955e-06,1.0,0.5651277303695679,0.9200000166893005
1410,5.7251701946370304e-05,1.0,0.5632876753807068,0.9200000166893005
1411,7.133330655051395e-06,1.0,0.5613340735435486,0.9200000166893005
1412,4.3963677853753325e-06,1.0,0.5585823655128479,0.9200000166893005
1413,8.816410627332516e-06,1.0,0.555831789970398,0.9200000166893005
1414,0.00019896129379048944,1.0,0.5478697419166565,0.9200000166893005
1415,9.609145308786537e-06,1.0,0.5410608053207397,0.9100000262260437
1416,4.62406251244829e-06,1.0,0.5386412143707275,0.9100000262260437
1417,8.23746740934439e-05,1.0,0.5391203165054321,0.9100000262260437
1418,3.216100958525203e-05,1.0,0.5390241146087646,0.9100000262260437
1419,2.066271372314077e-05,1.0,0.5390081405639648,0.9100000262260437
1420,2.506958117010072e-05,1.0,0.5393970012664795,0.9100000262260437
1421,2.1412319256342016e-05,1.0,0.539328932762146,0.9100000262260437
1422,1.3053811017016415e-05,1.0,0.5394582152366638,0.9100000262260437
1423,2.142019548045937e-05,1.0,0.5395927429199219,0.9100000262260437
1424,0.0001289684878429398,1.0,0.5376737117767334,0.9200000166893005
1425,4.1931903979275376e-05,1.0,0.536740243434906,0.9100000262260437
1426,7.94522202340886e-05,1.0,0.5379011631011963,0.9100000262260437
1427,0.00014555343659594655,1.0,0.5417529940605164,0.9200000166893005
1428,2.9410501156235114e-05,1.0,0.5436685085296631,0.9200000166893005
1429,0.0002306862297700718,1.0,0.5608372688293457,0.9200000166893005
1430,1.6207368389586918e-05,1.0,0.5647011399269104,0.9100000262260437
1431,0.0001362020120723173,1.0,0.563194990158081,0.9100000262260437
1432,1.5994348359527066e-05,1.0,0.5610064268112183,0.9100000262260437
1433,3.3282890399277676e-06,1.0,0.5573310852050781,0.9200000166893005
1434,1.652912214922253e-05,1.0,0.5540634393692017,0.9200000166893005
1435,0.0001497499324614182,1.0,0.5537320971488953,0.9200000166893005
1436,8.927123417379335e-06,1.0,0.5546352863311768,0.9200000166893005
1437,1.0569811820460018e-05,1.0,0.5542083978652954,0.9200000166893005
1438,8.830638762447052e-06,1.0,0.5528144240379333,0.9200000166893005
1439,1.0457529242557939e-05,1.0,0.5513105988502502,0.9200000166893005
1440,1.4876161003485322e-05,1.0,0.5503589510917664,0.9200000166893005
1441,2.190224768128246e-05,1.0,0.5488295555114746,0.9200000166893005
1442,1.0146269232791383e-05,1.0,0.5475219488143921,0.9200000166893005
1443,1.6896528904908337e-05,1.0,0.5462599396705627,0.9200000166893005
1444,2.1552210455411114e-05,1.0,0.5458768606185913,0.9200000166893005
1445,2.0679210138041526e-05,1.0,0.5460787415504456,0.9200000166893005
1446,1.0124518666998483e-05,1.0,0.5456458330154419,0.9200000166893005
1447,0.0001702610170468688,1.0,0.5429853796958923,0.9200000166893005
1448,9.952205800800584e-06,1.0,0.5402852892875671,0.9200000166893005
1449,1.8065888070850633e-05,1.0,0.5393388271331787,0.9200000166893005
1450,1.5503503163927235e-05,1.0,0.5386300086975098,0.9300000071525574
1451,0.00013236486120149493,1.0,0.533764660358429,0.9300000071525574
1452,3.9854734495747834e-05,1.0,0.5291657447814941,0.9399999976158142
1453,1.2055952538503334e-05,1.0,0.5280317068099976,0.9399999976158142
1454,2.68125586444512e-05,1.0,0.5275377035140991,0.9399999976158142
1455,1.689708915364463e-05,1.0,0.528495728969574,0.9399999976158142
1456,0.00012400235573295504,1.0,0.5355575084686279,0.9300000071525574
1457,3.269874468969647e-06,1.0,0.5410419702529907,0.9200000166893005
1458,7.588530570501462e-05,1.0,0.5439388751983643,0.9200000166893005
1459,9.801280612009577e-06,1.0,0.545782208442688,0.9200000166893005
1460,4.159126092417864e-06,1.0,0.5458088517189026,0.9200000166893005
1461,1.1620179066085257e-05,1.0,0.5462740063667297,0.9200000166893005
1462,7.3310161496920045e-06,1.0,0.5463215112686157,0.9200000166893005
1463,0.0006757199880667031,1.0,0.5565615296363831,0.9200000166893005
1464,2.956355956484913e-06,1.0,0.5748640298843384,0.9100000262260437
1465,2.061684790533036e-05,1.0,0.5767029523849487,0.8999999761581421
1466,0.000628649489954114,1.0,0.5932797789573669,0.9200000166893005
1467,6.507445505121723e-06,1.0,0.6150801181793213,0.9100000262260437
1468,9.321693505626172e-05,1.0,0.6238048672676086,0.9100000262260437
1469,2.085073538182769e-05,1.0,0.6263843774795532,0.9100000262260437
1470,1.2790253094863147e-05,1.0,0.6254985928535461,0.9100000262260437
1471,7.654144610569347e-06,1.0,0.6236374378204346,0.9200000166893005
1472,3.232977178413421e-05,1.0,0.620063066482544,0.9200000166893005
1473,0.00016810031956993043,1.0,0.6193447113037109,0.9200000166893005
1474,1.284223071706947e-05,1.0,0.6174368262290955,0.9200000166893005
1475,1.0100166946358513e-05,1.0,0.6143940091133118,0.9200000166893005
1476,6.51924783596769e-05,1.0,0.6124063730239868,0.9200000166893005
1477,0.00012535028508864343,1.0,0.6099878549575806,0.9200000166893005
1478,7.182188710430637e-06,1.0,0.6122915148735046,0.9200000166893005
1479,2.643119114509318e-05,1.0,0.6115134358406067,0.9200000166893005
1480,9.064254300028551e-06,1.0,0.6092073917388916,0.9200000166893005
1481,5.039478492108174e-05,1.0,0.6071170568466187,0.9200000166893005
1482,1.180099934572354e-05,1.0,0.6045782566070557,0.9200000166893005
1483,9.768247764441185e-06,1.0,0.6019278764724731,0.9300000071525574
1484,1.9913741198251955e-05,1.0,0.5994207262992859,0.9300000071525574
1485,5.336860795068787e-06,1.0,0.5963932871818542,0.9300000071525574
1486,4.489047933020629e-05,1.0,0.5938366055488586,0.9300000071525574
1487,3.6859005376754794e-06,1.0,0.5935371518135071,0.9300000071525574
1488,6.160233897389844e-05,1.0,0.5950617790222168,0.9300000071525574
1489,7.180967259046156e-06,1.0,0.5946913361549377,0.9300000071525574
1490,0.00019678770331665874,1.0,0.6033031940460205,0.9300000071525574
1491,6.27368990535615e-06,1.0,0.608498215675354,0.9200000166893005
1492,1.8058677596854977e-05,1.0,0.6080960631370544,0.9200000166893005
1493,9.658277122071013e-05,1.0,0.6094238758087158,0.9200000166893005
1494,5.120042624184862e-05,1.0,0.6095364689826965,0.9200000166893005
1495,1.4303392163128592e-05,1.0,0.6048406958580017,0.9200000166893005
1496,3.232787275919691e-05,1.0,0.600284993648529,0.9200000166893005
1497,1.5040644029795658e-05,1.0,0.5966036319732666,0.9200000166893005
1498,7.676917448407039e-06,1.0,0.5944047570228577,0.9200000166893005
1499,6.97817886248231e-05,1.0,0.5919529795646667,0.9300000071525574
