,loss,recall,val_loss,val_recall
0,0.6476669907569885,0.5305529787672645,0.6364368796348572,0.4081605894105894
1,0.4615805745124817,0.774025974025974,0.5566182732582092,0.4601190476190476
2,0.3742803931236267,0.8443722943722943,0.4819013476371765,0.7336445300731016
3,0.327040433883667,0.8277468563182849,0.42426005005836487,0.80647804576376
4,0.2727627456188202,0.8945269016697589,0.40791231393814087,0.8596371882086168
5,0.24984994530677795,0.8873840445269016,0.3708670735359192,0.8851190476190476
6,0.22182273864746094,0.901669758812616,0.3752916157245636,0.8851190476190476
7,0.1972392350435257,0.895887445887446,0.3369643986225128,0.8974489795918368
8,0.1736091822385788,0.922077922077922,0.3443337082862854,0.8654916512059369
9,0.14490137994289398,0.9458874458874459,0.3606666922569275,0.8466141001855289
10,0.12294329702854156,0.9577922077922078,0.36425137519836426,0.8517006802721089
11,0.10233117640018463,0.9880952380952381,0.4442938268184662,0.8231292517006802
12,0.08123242855072021,0.9816017316017316,0.4503509998321533,0.8358998144712431
13,0.0684526339173317,0.9880952380952381,0.5003326535224915,0.8415687487116059
14,0.13028326630592346,0.9384353741496598,0.5244297981262207,0.8081220366934653
15,0.29283109307289124,0.881547619047619,0.43191689252853394,0.9073783359497646
16,0.1249985545873642,0.9458874458874459,1.5917607545852661,0.6915521978021977
17,0.09667063504457474,0.9577922077922078,0.6942668557167053,0.822804576376005
18,0.09466005861759186,0.9577922077922078,0.5146482586860657,0.8398724291581434
19,0.0450412817299366,1.0,0.6304402947425842,0.8387755102040817
20,0.04686139151453972,0.9880952380952381,0.512710690498352,0.8721655328798186
21,0.02453192137181759,1.0,0.5720683336257935,0.824371263656978
22,0.019082482904195786,1.0,0.6138916611671448,0.8625937554508983
23,0.014898933470249176,1.0,0.5639494061470032,0.8589517625231912
24,0.012351146899163723,1.0,0.5618640780448914,0.8589517625231912
25,0.01064224448055029,1.0,0.5686972737312317,0.8589517625231912
26,0.009402702562510967,1.0,0.5780272483825684,0.8707482993197279
27,0.008415658958256245,1.0,0.5927711129188538,0.8545918367346939
28,0.007619658950716257,1.0,0.5989528298377991,0.8438208616780045
29,0.006962011102586985,1.0,0.5963124632835388,0.8438208616780045
30,0.006401005666702986,1.0,0.5947564244270325,0.8438208616780045
31,0.0059249126352369785,1.0,0.5973524451255798,0.8438208616780045
32,0.005516990087926388,1.0,0.6000502705574036,0.8438208616780045
33,0.005150001496076584,1.0,0.6031624674797058,0.8438208616780045
34,0.004832821898162365,1.0,0.6082896590232849,0.8438208616780045
35,0.004541601054370403,1.0,0.6133254170417786,0.8438208616780045
36,0.004288745578378439,1.0,0.6143696904182434,0.8438208616780045
37,0.004053113516420126,1.0,0.6156629920005798,0.8438208616780045
38,0.0038423549849539995,1.0,0.6181365251541138,0.8438208616780045
39,0.0036455937661230564,1.0,0.6168009638786316,0.8361678004535147
40,0.0034691691398620605,1.0,0.6168464422225952,0.8361678004535147
41,0.00330738234333694,1.0,0.6208356022834778,0.8361678004535147
42,0.003156158607453108,1.0,0.624353289604187,0.8361678004535147
43,0.0030182793270796537,1.0,0.624704897403717,0.8361678004535147
44,0.0028900126926600933,1.0,0.6263208389282227,0.8361678004535147
45,0.002770598279312253,1.0,0.6301239132881165,0.8361678004535147
46,0.0026595413219183683,1.0,0.6326910257339478,0.8361678004535147
47,0.002555033192038536,1.0,0.6342067122459412,0.8361678004535147
48,0.0024578371085226536,1.0,0.6388601660728455,0.8361678004535147
49,0.002365552121773362,1.0,0.6406150460243225,0.8361678004535147
50,0.0022785041946917772,1.0,0.6414172053337097,0.8361678004535147
51,0.0021965678315609694,1.0,0.6435851454734802,0.8361678004535147
52,0.002120270859450102,1.0,0.6454490423202515,0.8361678004535147
53,0.002048165537416935,1.0,0.6478050947189331,0.8361678004535147
54,0.001979593187570572,1.0,0.6509754061698914,0.8361678004535147
55,0.001914998865686357,1.0,0.653093695640564,0.8361678004535147
56,0.0018534002592787147,1.0,0.6548975706100464,0.8361678004535147
57,0.0017947932938113809,1.0,0.657556414604187,0.8361678004535147
58,0.0017382183577865362,1.0,0.6591550707817078,0.8361678004535147
59,0.0016843717312440276,1.0,0.6585280299186707,0.8361678004535147
60,0.0016334924148395658,1.0,0.659129798412323,0.8361678004535147
61,0.0015848332550376654,1.0,0.6599950790405273,0.8361678004535147
62,0.001538555952720344,1.0,0.6613814234733582,0.8361678004535147
63,0.0014937339583411813,1.0,0.6621809005737305,0.8361678004535147
64,0.0014512016205117106,1.0,0.6632791757583618,0.8361678004535147
65,0.001410522498190403,1.0,0.6629451513290405,0.8361678004535147
66,0.001371808466501534,1.0,0.6638780236244202,0.8361678004535147
67,0.0013347315834835172,1.0,0.6656553149223328,0.8361678004535147
68,0.00129902723710984,1.0,0.6666242480278015,0.8361678004535147
69,0.0012649091659113765,1.0,0.6672688722610474,0.8361678004535147
70,0.0012321464018896222,1.0,0.6679509878158569,0.8361678004535147
71,0.001200844650156796,1.0,0.6689420342445374,0.8361678004535147
72,0.0011709921527653933,1.0,0.6707272529602051,0.8361678004535147
73,0.0011423275573179126,1.0,0.67244952917099,0.8361678004535147
74,0.0011146062752231956,1.0,0.6739606857299805,0.8361678004535147
75,0.0010879529872909188,1.0,0.6745743751525879,0.8361678004535147
76,0.0010625883005559444,1.0,0.6758089065551758,0.8361678004535147
77,0.0010380467865616083,1.0,0.6766330599784851,0.8361678004535147
78,0.0010145421838387847,1.0,0.6783862113952637,0.846938775510204
79,0.0009918243158608675,1.0,0.6806850433349609,0.8361678004535147
80,0.0009698658832348883,1.0,0.6821655035018921,0.8361678004535147
81,0.00094869255553931,1.0,0.6833979487419128,0.8361678004535147
82,0.000928136461880058,1.0,0.6841173768043518,0.846938775510204
83,0.0009082527249120176,1.0,0.6856551170349121,0.846938775510204
84,0.0008891233592294157,1.0,0.6876614689826965,0.8361678004535147
85,0.000870577001478523,1.0,0.6883887052536011,0.846938775510204
86,0.0008526187157258391,1.0,0.6895669102668762,0.846938775510204
87,0.0008352594450116158,1.0,0.6912639737129211,0.846938775510204
88,0.000818397558759898,1.0,0.692168116569519,0.846938775510204
89,0.0008020711247809231,1.0,0.693202793598175,0.846938775510204
90,0.0007862262427806854,1.0,0.6943975687026978,0.846938775510204
91,0.0007708799676038325,1.0,0.6961819529533386,0.846938775510204
92,0.0007559731602668762,1.0,0.6978006958961487,0.846938775510204
93,0.0007414143183268607,1.0,0.6988986730575562,0.846938775510204
94,0.0007274004747159779,1.0,0.6987058520317078,0.846938775510204
95,0.0007139194058254361,1.0,0.7003687620162964,0.846938775510204
96,0.0007006438099779189,1.0,0.7023617029190063,0.846938775510204
97,0.0006877600098960102,1.0,0.7037734389305115,0.8418367346938774
98,0.0006753274356015027,1.0,0.7048603296279907,0.8418367346938774
99,0.0006631932337768376,1.0,0.7054112553596497,0.8418367346938774
100,0.0006514773704111576,1.0,0.70687335729599,0.8418367346938774
101,0.0006401246064342558,1.0,0.7092636823654175,0.8418367346938774
102,0.0006289733573794365,1.0,0.7109392881393433,0.8418367346938774
103,0.0006181152421049774,1.0,0.711626410484314,0.8418367346938774
104,0.0006075704586692154,1.0,0.7124085426330566,0.8418367346938774
105,0.0005972763174213469,1.0,0.7132059335708618,0.8418367346938774
106,0.0005872646579518914,1.0,0.7144902348518372,0.8418367346938774
107,0.0005774612654931843,1.0,0.7148560285568237,0.8418367346938774
108,0.0005679657915607095,1.0,0.7164754271507263,0.8418367346938774
109,0.0005586357438005507,1.0,0.7184543609619141,0.8418367346938774
110,0.0005495490622706711,1.0,0.7200635671615601,0.8418367346938774
111,0.0005406824639067054,1.0,0.7209340333938599,0.8418367346938774
112,0.0005321109783835709,1.0,0.7228078246116638,0.8418367346938774
113,0.0005236552678979933,1.0,0.724003791809082,0.8418367346938774
114,0.0005154364043846726,1.0,0.725439727306366,0.8418367346938774
115,0.0005074290675111115,1.0,0.7265253663063049,0.8418367346938774
116,0.0004996424540877342,1.0,0.7279731035232544,0.8418367346938774
117,0.0004919442581012845,1.0,0.728695273399353,0.8418367346938774
118,0.0004844912909902632,1.0,0.7301274538040161,0.8418367346938774
119,0.0004772137326654047,1.0,0.7309680581092834,0.8418367346938774
120,0.00047006699605844915,1.0,0.7314403653144836,0.8418367346938774
121,0.0004631485207937658,1.0,0.7331191897392273,0.8418367346938774
122,0.00045626290375366807,1.0,0.7331863641738892,0.8418367346938774
123,0.0004496229230426252,1.0,0.7341446280479431,0.8418367346938774
124,0.00044312726822681725,1.0,0.735650360584259,0.8418367346938774
125,0.00043670929153449833,1.0,0.7364836931228638,0.8418367346938774
126,0.0004304411413613707,1.0,0.7374894022941589,0.8418367346938774
127,0.0004243737203069031,1.0,0.7391942739486694,0.8418367346938774
128,0.0004183670098427683,1.0,0.7396823763847351,0.8418367346938774
129,0.0004124920233152807,1.0,0.7407292723655701,0.8418367346938774
130,0.00040675196214579046,1.0,0.7415452599525452,0.8418367346938774
131,0.00040110546979121864,1.0,0.7422836422920227,0.8418367346938774
132,0.00039564285543747246,1.0,0.7430329322814941,0.8418367346938774
133,0.0003902609460055828,1.0,0.7445617318153381,0.8418367346938774
134,0.0003848801425192505,1.0,0.7445502281188965,0.8418367346938774
135,0.00037972143036313355,1.0,0.7455726861953735,0.8418367346938774
136,0.0003746445581782609,1.0,0.7465181946754456,0.8418367346938774
137,0.000369611254427582,1.0,0.7472754716873169,0.8418367346938774
138,0.0003647363337222487,1.0,0.7485689520835876,0.8418367346938774
139,0.0003599836491048336,1.0,0.7492862343788147,0.8418367346938774
140,0.0003552490088623017,1.0,0.7497593760490417,0.8418367346938774
141,0.0003506600041873753,1.0,0.7503942847251892,0.8418367346938774
142,0.0003461815067566931,1.0,0.751703679561615,0.8418367346938774
143,0.00034172646701335907,1.0,0.751917839050293,0.8418367346938774
144,0.00033738621277734637,1.0,0.752548098564148,0.8418367346938774
145,0.0003331256448291242,1.0,0.7537093758583069,0.8418367346938774
146,0.0003289554442744702,1.0,0.7541826963424683,0.8418367346938774
147,0.0003248852153774351,1.0,0.7551349997520447,0.8418367346938774
148,0.00032087016734294593,1.0,0.7562626600265503,0.8418367346938774
149,0.000316904071951285,1.0,0.7563853859901428,0.8418367346938774
150,0.00031309324549511075,1.0,0.757266104221344,0.8418367346938774
151,0.0003092791303060949,1.0,0.7585720419883728,0.8418367346938774
152,0.000305537338135764,1.0,0.7591273188591003,0.8418367346938774
153,0.0003018986899405718,1.0,0.7599984407424927,0.8418367346938774
154,0.00029829517006874084,1.0,0.7607554197311401,0.8418367346938774
155,0.00029476810595951974,1.0,0.7619695067405701,0.8418367346938774
156,0.0002912304480560124,1.0,0.7619883418083191,0.8418367346938774
157,0.00028786505572497845,1.0,0.7634038925170898,0.8418367346938774
158,0.00028447835939005017,1.0,0.7644553184509277,0.8418367346938774
159,0.00028115222812630236,1.0,0.7653104662895203,0.8418367346938774
160,0.0002779399510473013,1.0,0.7661538124084473,0.8418367346938774
161,0.00027472974034026265,1.0,0.7672570943832397,0.8418367346938774
162,0.00027155884890817106,1.0,0.767623782157898,0.8418367346938774
163,0.0002685219806153327,1.0,0.7688921093940735,0.8418367346938774
164,0.0002654627605807036,1.0,0.7693927884101868,0.8418367346938774
165,0.00026252903626300395,1.0,0.770774781703949,0.8418367346938774
166,0.00025958672631531954,1.0,0.7715535759925842,0.8418367346938774
167,0.00025668065063655376,1.0,0.772049605846405,0.8418367346938774
168,0.0002538457920309156,1.0,0.7722128033638,0.8418367346938774
169,0.00025110130081884563,1.0,0.7734079957008362,0.8418367346938774
170,0.0002483345160726458,1.0,0.7744571566581726,0.8418367346938774
171,0.0002456229995004833,1.0,0.774802029132843,0.8418367346938774
172,0.00024299231881741434,1.0,0.77531498670578,0.8418367346938774
173,0.00024037119874265045,1.0,0.7762728929519653,0.8418367346938774
174,0.00023777449678163975,1.0,0.7769268751144409,0.8418367346938774
175,0.00023527782468590885,1.0,0.777869701385498,0.8418367346938774
176,0.00023277473519556224,1.0,0.7785307168960571,0.8418367346938774
177,0.00023029289150144905,1.0,0.7791562080383301,0.8418367346938774
178,0.00022789082140661776,1.0,0.779995322227478,0.8418367346938774
179,0.00022549089044332504,1.0,0.7799719572067261,0.8418367346938774
180,0.00022317816910799593,1.0,0.7815669178962708,0.8418367346938774
181,0.00022086224635131657,1.0,0.782106876373291,0.8418367346938774
182,0.00021859630942344666,1.0,0.7826958298683167,0.8418367346938774
183,0.00021636439487338066,1.0,0.7835001945495605,0.8418367346938774
184,0.00021414736693259329,1.0,0.7838155031204224,0.8418367346938774
185,0.00021200372430030257,1.0,0.7851250767707825,0.8418367346938774
186,0.00020984839648008347,1.0,0.7853987812995911,0.8418367346938774
187,0.00020772390416823328,1.0,0.7859169840812683,0.8418367346938774
188,0.00020569087064359337,1.0,0.7871770858764648,0.8418367346938774
189,0.00020361741189844906,1.0,0.7876020669937134,0.8418367346938774
190,0.0002016290818573907,1.0,0.7884019613265991,0.8418367346938774
191,0.00019965028332080692,1.0,0.7889243960380554,0.8418367346938774
192,0.00019769382197409868,1.0,0.7893690466880798,0.8418367346938774
193,0.00019575223268475384,1.0,0.7901867032051086,0.8418367346938774
194,0.00019387874635867774,1.0,0.7906231880187988,0.8418367346938774
195,0.00019201480608899146,1.0,0.7912211418151855,0.8418367346938774
196,0.0001901359501061961,1.0,0.7915292382240295,0.8418367346938774
197,0.00018834651564247906,1.0,0.7923060059547424,0.8418367346938774
198,0.00018654852465260774,1.0,0.7927984595298767,0.8418367346938774
199,0.00018478775746189058,1.0,0.7938025593757629,0.8418367346938774
200,0.00018304506374988705,1.0,0.7942357659339905,0.8418367346938774
201,0.00018130344687961042,1.0,0.7948883175849915,0.8418367346938774
202,0.0001796160649973899,1.0,0.7951903939247131,0.8418367346938774
203,0.00017793614824768156,1.0,0.7961936593055725,0.8418367346938774
204,0.00017628386558499187,1.0,0.7968534827232361,0.8418367346938774
205,0.00017466137069277465,1.0,0.7973244786262512,0.8418367346938774
206,0.00017303462664131075,1.0,0.7979546189308167,0.8418367346938774
207,0.00017146955360658467,1.0,0.7988641858100891,0.8418367346938774
208,0.00016987367416732013,1.0,0.7983802556991577,0.8418367346938774
209,0.0001683394511928782,1.0,0.7995936274528503,0.8418367346938774
210,0.00016681374108884484,1.0,0.800191342830658,0.8418367346938774
211,0.00016527953266631812,1.0,0.8003941774368286,0.8418367346938774
212,0.00016381872410420328,1.0,0.801456868648529,0.8418367346938774
213,0.0001623355783522129,1.0,0.801339328289032,0.8418367346938774
214,0.0001608832535566762,1.0,0.8021720051765442,0.8418367346938774
215,0.00015943414473440498,1.0,0.802547812461853,0.8418367346938774
216,0.00015800523397047073,1.0,0.8031812310218811,0.8418367346938774
217,0.0001566348219057545,1.0,0.8038721680641174,0.8418367346938774
218,0.00015524101036135107,1.0,0.8043748140335083,0.8418367346938774
219,0.00015385891310870647,1.0,0.8048180341720581,0.8418367346938774
220,0.00015253000310622156,1.0,0.8057737350463867,0.8418367346938774
221,0.00015119044110178947,1.0,0.8060379028320312,0.8418367346938774
222,0.00014988172915764153,1.0,0.8070328831672668,0.8418367346938774
223,0.0001485793909523636,1.0,0.8074098229408264,0.8418367346938774
224,0.00014730580733157694,1.0,0.8077557682991028,0.8418367346938774
225,0.0001460385974496603,1.0,0.8088372945785522,0.8418367346938774
226,0.0001447830582037568,1.0,0.8089030385017395,0.8418367346938774
227,0.00014354880840983242,1.0,0.8092751502990723,0.8418367346938774
228,0.00014232307148631662,1.0,0.810188353061676,0.8418367346938774
229,0.0001411186094628647,1.0,0.8111610412597656,0.8418367346938774
230,0.00013993331231176853,1.0,0.811102032661438,0.8418367346938774
231,0.00013874904834665358,1.0,0.8121427893638611,0.8418367346938774
232,0.00013758182467427105,1.0,0.8126922249794006,0.8418367346938774
233,0.0001364273630315438,1.0,0.8129264116287231,0.8418367346938774
234,0.00013529630086850375,1.0,0.8136744499206543,0.8418367346938774
235,0.00013415885041467845,1.0,0.8140044808387756,0.8418367346938774
236,0.00013306079199537635,1.0,0.8145189881324768,0.8418367346938774
237,0.00013195312931202352,1.0,0.8153267502784729,0.8418367346938774
238,0.0001308741921093315,1.0,0.8157334327697754,0.8418367346938774
239,0.00012979951861780137,1.0,0.8166100382804871,0.8418367346938774
240,0.00012873546802438796,1.0,0.8170222043991089,0.8418367346938774
241,0.00012767357111442834,1.0,0.8170769810676575,0.8418367346938774
242,0.00012665845861192793,1.0,0.8181251287460327,0.8418367346938774
243,0.00012562207120936364,1.0,0.8180412650108337,0.8418367346938774
244,0.00012461762526072562,1.0,0.8188356161117554,0.8418367346938774
245,0.00012361315020825714,1.0,0.8194060325622559,0.8418367346938774
246,0.0001226203894475475,1.0,0.8201441168785095,0.8418367346938774
247,0.00012163505743956193,1.0,0.8208100199699402,0.8418367346938774
248,0.00012066995986970142,1.0,0.8210980296134949,0.8418367346938774
249,0.000119703785458114,1.0,0.8215116858482361,0.8418367346938774
250,0.00011877273936988786,1.0,0.822357177734375,0.8418367346938774
251,0.00011783318041125312,1.0,0.8231400847434998,0.8418367346938774
252,0.00011688826634781435,1.0,0.823453426361084,0.8418367346938774
253,0.0001159774255938828,1.0,0.8239799737930298,0.8418367346938774
254,0.00011508253373904154,1.0,0.8245605230331421,0.8418367346938774
255,0.00011417700443416834,1.0,0.8251237869262695,0.8418367346938774
256,0.00011329170229146257,1.0,0.8256454467773438,0.8418367346938774
257,0.00011241489119129255,1.0,0.826023519039154,0.8418367346938774
258,0.0001115359555114992,1.0,0.8264614939689636,0.8418367346938774
259,0.00011068256571888924,1.0,0.8271499872207642,0.8418367346938774
260,0.00010984300024574623,1.0,0.8278722763061523,0.8418367346938774
261,0.00010899172775680199,1.0,0.8282585144042969,0.8418367346938774
262,0.00010817025031428784,1.0,0.8290996551513672,0.8418367346938774
263,0.0001073391831596382,1.0,0.8295599222183228,0.8418367346938774
264,0.00010652303171809763,1.0,0.8297823667526245,0.8418367346938774
265,0.00010572282917564735,1.0,0.8302608728408813,0.8418367346938774
266,0.00010491412103874609,1.0,0.830714225769043,0.8418367346938774
267,0.00010413944255560637,1.0,0.83148592710495,0.8418367346938774
268,0.0001033594598993659,1.0,0.8322082757949829,0.8418367346938774
269,0.00010256883251713589,1.0,0.8323644995689392,0.8418367346938774
270,0.00010181437392020598,1.0,0.8330492973327637,0.8418367346938774
271,0.00010105247201863676,1.0,0.8334866166114807,0.8418367346938774
272,0.0001003043944365345,1.0,0.8339711427688599,0.8418367346938774
273,9.956484427675605e-05,1.0,0.8345070481300354,0.8418367346938774
274,9.88412502920255e-05,1.0,0.8350873589515686,0.8418367346938774
275,9.810168558033183e-05,1.0,0.8353585600852966,0.8418367346938774
276,9.739511006046087e-05,1.0,0.8360252380371094,0.8418367346938774
277,9.666831465438008e-05,1.0,0.8363165259361267,0.8418367346938774
278,9.596812014933676e-05,1.0,0.8370844125747681,0.8418367346938774
279,9.526793292025104e-05,1.0,0.8377328515052795,0.8418367346938774
280,9.457198029849678e-05,1.0,0.8376865983009338,0.8418367346938774
281,9.389308252139017e-05,1.0,0.8381686210632324,0.8418367346938774
282,9.323225094703957e-05,1.0,0.8388721346855164,0.8418367346938774
283,9.255866461899132e-05,1.0,0.8394445180892944,0.8418367346938774
284,9.18903824640438e-05,1.0,0.839874804019928,0.8418367346938774
285,9.123593190452084e-05,1.0,0.8403668999671936,0.8418367346938774
286,9.058469004230574e-05,1.0,0.8411641716957092,0.8418367346938774
287,8.993982191896066e-05,1.0,0.8414321541786194,0.8418367346938774
288,8.930453623179346e-05,1.0,0.8418445587158203,0.8418367346938774
289,8.86798879946582e-05,1.0,0.8425211310386658,0.8418367346938774
290,8.804671961115673e-05,1.0,0.8429228067398071,0.8418367346938774
291,8.743271610001102e-05,1.0,0.8433870077133179,0.8418367346938774
292,8.681763574713841e-05,1.0,0.8438969254493713,0.8418367346938774
293,8.619722939329222e-05,1.0,0.8444371819496155,0.8418367346938774
294,8.559705020161346e-05,1.0,0.845153272151947,0.8418367346938774
295,8.500112744513899e-05,1.0,0.8456077575683594,0.8418367346938774
296,8.441266982117668e-05,1.0,0.846077024936676,0.8418367346938774
297,8.383375825360417e-05,1.0,0.8467927575111389,0.8418367346938774
298,8.32463483675383e-05,1.0,0.84707111120224,0.8418367346938774
299,8.26685136416927e-05,1.0,0.8474501371383667,0.8418367346938774
300,8.210982923628762e-05,1.0,0.8481125235557556,0.8418367346938774
301,8.155220712069422e-05,1.0,0.8486882448196411,0.8418367346938774
302,8.098714897641912e-05,1.0,0.8489773869514465,0.8418367346938774
303,8.042952686082572e-05,1.0,0.8495484590530396,0.8418367346938774
304,7.987616118043661e-05,1.0,0.8499118089675903,0.8418367346938774
305,7.934301538625732e-05,1.0,0.8507460355758667,0.8418367346938774
306,7.880454359110445e-05,1.0,0.850981593132019,0.8418367346938774
307,7.826927321730182e-05,1.0,0.8514541983604431,0.8418367346938774
308,7.774569530738518e-05,1.0,0.8522955179214478,0.8418367346938774
309,7.721680594841018e-05,1.0,0.8525165915489197,0.8418367346938774
310,7.670600462006405e-05,1.0,0.852842390537262,0.8418367346938774
311,7.618243398610502e-05,1.0,0.853410542011261,0.8418367346938774
312,7.567801367258653e-05,1.0,0.8541123270988464,0.8418367346938774
313,7.517360063502565e-05,1.0,0.8546196222305298,0.8418367346938774
314,7.466492388630286e-05,1.0,0.854997992515564,0.8418367346938774
315,7.417433516820893e-05,1.0,0.8553940653800964,0.8418367346938774
316,7.368375372607261e-05,1.0,0.855841338634491,0.8418367346938774
317,7.319742144318298e-05,1.0,0.8564738631248474,0.8418367346938774
318,7.271642243722454e-05,1.0,0.8567600846290588,0.8418367346938774
319,7.224711589515209e-05,1.0,0.8573961853981018,0.8418367346938774
320,7.176078361226246e-05,1.0,0.8582971692085266,0.8418367346938774
321,7.129041478037834e-05,1.0,0.8583426475524902,0.8418367346938774
322,7.082537194946781e-05,1.0,0.8589609265327454,0.8418367346938774
323,7.0362446422223e-05,1.0,0.8593546152114868,0.8418367346938774
324,6.991015834501013e-05,1.0,0.8597694635391235,0.8418367346938774
325,6.945255881873891e-05,1.0,0.8605268597602844,0.8418367346938774
326,6.899815343786031e-05,1.0,0.8609040379524231,0.8418367346938774
327,6.855332321720198e-05,1.0,0.8614018559455872,0.8418367346938774
328,6.812126230215654e-05,1.0,0.8620477914810181,0.8418367346938774
329,6.767323066014796e-05,1.0,0.862216055393219,0.8418367346938774
330,6.723903788952157e-05,1.0,0.8627694249153137,0.8418367346938774
331,6.681443483103067e-05,1.0,0.863213837146759,0.8418367346938774
332,6.639300409005955e-05,1.0,0.8635492324829102,0.8418367346938774
333,6.596520688617602e-05,1.0,0.8641248941421509,0.8418367346938774
334,6.554590800078586e-05,1.0,0.864860475063324,0.8418367346938774
335,6.512342224596068e-05,1.0,0.8651604056358337,0.8418367346938774
336,6.472541281254962e-05,1.0,0.8656592965126038,0.8418367346938774
337,6.431037036236376e-05,1.0,0.8659887909889221,0.8418367346938774
338,6.390065391315147e-05,1.0,0.8664404153823853,0.8418367346938774
339,6.34898678981699e-05,1.0,0.8670485615730286,0.8418367346938774
340,6.309079617494717e-05,1.0,0.8677997589111328,0.8418367346938774
341,6.269065488595515e-05,1.0,0.8680664300918579,0.8418367346938774
342,6.229902646737173e-05,1.0,0.8682613372802734,0.8418367346938774
343,6.191271677380428e-05,1.0,0.8687728047370911,0.8418367346938774
344,6.152534479042515e-05,1.0,0.86954265832901,0.8418367346938774
345,6.114329880801961e-05,1.0,0.8699318170547485,0.8418367346938774
346,6.0763377405237406e-05,1.0,0.8701109886169434,0.8418367346938774
347,6.038984065526165e-05,1.0,0.8709160685539246,0.8418367346938774
348,6.001416841172613e-05,1.0,0.8712466955184937,0.8418367346938774
349,5.964062802377157e-05,1.0,0.8717621564865112,0.8418367346938774
350,5.927241363679059e-05,1.0,0.8723741173744202,0.8418367346938774
351,5.890632382943295e-05,1.0,0.8725355267524719,0.8418367346938774
352,5.8549809182295576e-05,1.0,0.8731086850166321,0.8418367346938774
353,5.818797944812104e-05,1.0,0.8738462328910828,0.8418367346938774
354,5.782082007499412e-05,1.0,0.8739601969718933,0.8418367346938774
355,5.7472821936244145e-05,1.0,0.8745807409286499,0.8418367346938774
356,5.712588972528465e-05,1.0,0.8750817179679871,0.8418367346938774
357,5.677043736795895e-05,1.0,0.8754974007606506,0.8418367346938774
358,5.64298898098059e-05,1.0,0.8757798075675964,0.8418367346938774
359,5.6087210396071896e-05,1.0,0.8762088418006897,0.8418367346938774
360,5.573920861934312e-05,1.0,0.8765365481376648,0.8418367346938774
361,5.541462087421678e-05,1.0,0.8769658803939819,0.8418367346938774
362,5.5077260185498744e-05,1.0,0.8773970007896423,0.8418367346938774
363,5.473883720696904e-05,1.0,0.8779241442680359,0.8418367346938774
364,5.441105895442888e-05,1.0,0.8781278729438782,0.8418367346938774
365,5.409178993431851e-05,1.0,0.8787007331848145,0.8418367346938774
366,5.376400440582074e-05,1.0,0.8791866302490234,0.8418367346938774
367,5.34351565875113e-05,1.0,0.879328191280365,0.8418367346938774
368,5.311270433594473e-05,1.0,0.8798478245735168,0.8418367346938774
369,5.27955598954577e-05,1.0,0.8803015351295471,0.8418367346938774
370,5.248906018096022e-05,1.0,0.8804178237915039,0.8418367346938774
371,5.217723810346797e-05,1.0,0.8810569643974304,0.8418367346938774
372,5.186009730095975e-05,1.0,0.8815850019454956,0.8418367346938774
373,5.1547216571634635e-05,1.0,0.8820112943649292,0.8418367346938774
374,5.125774259795435e-05,1.0,0.8825742602348328,0.8418367346938774
375,5.094272637506947e-05,1.0,0.8825941681861877,0.8418367346938774
376,5.064581273472868e-05,1.0,0.8830069303512573,0.8418367346938774
377,5.0354206905467436e-05,1.0,0.8836360573768616,0.8418367346938774
378,5.0050901336362585e-05,1.0,0.8837181329727173,0.8418367346938774
379,4.975823685526848e-05,1.0,0.884280800819397,0.8418367346938774
380,4.946770059177652e-05,1.0,0.8847125172615051,0.8418367346938774
381,4.91835453431122e-05,1.0,0.8853005170822144,0.8418367346938774
382,4.889726187684573e-05,1.0,0.8857857584953308,0.8418367346938774
383,4.86099197587464e-05,1.0,0.88616544008255,0.8418367346938774
384,4.8325771786039695e-05,1.0,0.886300265789032,0.8418367346938774
385,4.8046935262391344e-05,1.0,0.886701226234436,0.8418367346938774
386,4.7772362449904904e-05,1.0,0.8874285817146301,0.8418367346938774
387,4.749565778183751e-05,1.0,0.8876732587814331,0.8418367346938774
388,4.722321318695322e-05,1.0,0.8879250288009644,0.8418367346938774
389,4.694651215686463e-05,1.0,0.8884891271591187,0.8418367346938774
390,4.667725443141535e-05,1.0,0.888827383518219,0.8418367346938774
391,4.641013219952583e-05,1.0,0.8892797827720642,0.8418367346938774
392,4.615258512785658e-05,1.0,0.8898101449012756,0.8418367346938774
393,4.587481453199871e-05,1.0,0.8900342583656311,0.8418367346938774
394,4.561620517051779e-05,1.0,0.8904919028282166,0.8418367346938774
395,4.535865082289092e-05,1.0,0.890784740447998,0.8418367346938774
396,4.510323560680263e-05,1.0,0.8911110758781433,0.8418367346938774
397,4.484675082494505e-05,1.0,0.8915562629699707,0.8418367346938774
398,4.4593460188480094e-05,1.0,0.8917754888534546,0.8418367346938774
399,4.433910362422466e-05,1.0,0.8924551606178284,0.8418367346938774
400,4.408687163959257e-05,1.0,0.8928471803665161,0.8418367346938774
401,4.383570558275096e-05,1.0,0.8933480978012085,0.8418367346938774
402,4.359305603429675e-05,1.0,0.893632709980011,0.8418367346938774
403,4.335360790719278e-05,1.0,0.8939308524131775,0.8418367346938774
404,4.311414886615239e-05,1.0,0.8943467736244202,0.8418367346938774
405,4.286085459170863e-05,1.0,0.8949180245399475,0.8418367346938774
406,4.262032962287776e-05,1.0,0.8952315449714661,0.8418367346938774
407,4.2387258872622624e-05,1.0,0.8957201838493347,0.8418367346938774
408,4.2145671613980085e-05,1.0,0.8960937261581421,0.8418367346938774
409,4.19104726461228e-05,1.0,0.8966084718704224,0.8418367346938774
410,4.167740189586766e-05,1.0,0.8969952464103699,0.8418367346938774
411,4.1445393435424194e-05,1.0,0.8973231911659241,0.8418367346938774
412,4.1217641410185024e-05,1.0,0.8977011442184448,0.8418367346938774
413,4.099095895071514e-05,1.0,0.8982240557670593,0.8418367346938774
414,4.0764261939330027e-05,1.0,0.898531436920166,0.8418367346938774
415,4.054289820487611e-05,1.0,0.8990147709846497,0.8418367346938774
416,4.03130216000136e-05,1.0,0.899520218372345,0.8418367346938774
417,4.0092716517392546e-05,1.0,0.8996201157569885,0.8418367346938774
418,3.987029049312696e-05,1.0,0.900237500667572,0.8418367346938774
419,3.965850191889331e-05,1.0,0.900429904460907,0.8418367346938774
420,3.943819319829345e-05,1.0,0.9008784890174866,0.8418367346938774
421,3.921895768144168e-05,1.0,0.9014452695846558,0.8418367346938774
422,3.90039749618154e-05,1.0,0.9016786813735962,0.8418367346938774
423,3.8787929952377453e-05,1.0,0.9020344614982605,0.8418367346938774
424,3.857507908833213e-05,1.0,0.9026852250099182,0.8418367346938774
425,3.8371803384507075e-05,1.0,0.902908205986023,0.8418367346938774
426,3.815575473709032e-05,1.0,0.9030642509460449,0.8418367346938774
427,3.7950350815663114e-05,1.0,0.9035331010818481,0.8418367346938774
428,3.7752393836854026e-05,1.0,0.9041188359260559,0.8418367346938774
429,3.7543799408013e-05,1.0,0.9042607545852661,0.8418367346938774
430,3.7344787415349856e-05,1.0,0.9047644734382629,0.8418367346938774
431,3.714363992912695e-05,1.0,0.9051766991615295,0.8418367346938774
432,3.693717371788807e-05,1.0,0.9056744575500488,0.8418367346938774
433,3.673495302791707e-05,1.0,0.9061049818992615,0.8418367346938774
434,3.654870670288801e-05,1.0,0.9063001275062561,0.8418367346938774
435,3.634862514445558e-05,1.0,0.9066638350486755,0.8418367346938774
436,3.614960951381363e-05,1.0,0.9072725176811218,0.8418367346938774
437,3.5956974897999316e-05,1.0,0.9076564908027649,0.8418367346938774
438,3.5761149774771184e-05,1.0,0.9079126715660095,0.8418367346938774
439,3.556851515895687e-05,1.0,0.908353328704834,0.8418367346938774
440,3.5380136978346854e-05,1.0,0.9086675643920898,0.8418367346938774
441,3.51938942912966e-05,1.0,0.9089816808700562,0.8418367346938774
442,3.50129630533047e-05,1.0,0.9097374677658081,0.8418367346938774
443,3.4823522582883015e-05,1.0,0.9101448059082031,0.8418367346938774
444,3.4641529055079445e-05,1.0,0.9102654457092285,0.8418367346938774
445,3.445953916525468e-05,1.0,0.910835325717926,0.8418367346938774
446,3.4273289202246815e-05,1.0,0.911163330078125,0.8418367346938774
447,3.4088105167029426e-05,1.0,0.911374568939209,0.8418367346938774
448,3.391037535038777e-05,1.0,0.9119861721992493,0.8418367346938774
449,3.3730510040186346e-05,1.0,0.9123805165290833,0.8418367346938774
450,3.355064836796373e-05,1.0,0.9126978516578674,0.8418367346938774
451,3.3377167710568756e-05,1.0,0.9133084416389465,0.8418367346938774
452,3.320049654575996e-05,1.0,0.9136523008346558,0.8418367346938774
453,3.3036598324542865e-05,1.0,0.9138695597648621,0.8418367346938774
454,3.285354614490643e-05,1.0,0.9142948389053345,0.8418367346938774
455,3.268006184953265e-05,1.0,0.9148401021957397,0.8418367346938774
456,3.251191083109006e-05,1.0,0.9151622653007507,0.8418367346938774
457,3.233523966628127e-05,1.0,0.9154914617538452,0.8418367346938774
458,3.2169209589483216e-05,1.0,0.9158490300178528,0.8418367346938774
459,3.20021208608523e-05,1.0,0.9163937568664551,0.8418367346938774
460,3.183715307386592e-05,1.0,0.9168120622634888,0.8418367346938774
461,3.1674317142460495e-05,1.0,0.9169068336486816,0.8418367346938774
462,3.150935663143173e-05,1.0,0.917619526386261,0.8418367346938774
463,3.1346520700026304e-05,1.0,0.9179278016090393,0.8418367346938774
464,3.118368476862088e-05,1.0,0.9182447791099548,0.8418367346938774
465,3.102617120021023e-05,1.0,0.9186550378799438,0.8418367346938774
466,3.085800926783122e-05,1.0,0.9188746213912964,0.8418367346938774
467,3.0705821700394154e-05,1.0,0.9194173216819763,0.8418367346938774
468,3.054085391340777e-05,1.0,0.919873058795929,0.8418367346938774
469,3.038547220057808e-05,1.0,0.9201054573059082,0.8418367346938774
470,3.0224760848795995e-05,1.0,0.9207814335823059,0.8418367346938774
471,3.0078954296186566e-05,1.0,0.921076774597168,0.8418367346938774
472,2.991611836478114e-05,1.0,0.9212208986282349,0.8418367346938774
473,2.9766055376967415e-05,1.0,0.9217113852500916,0.8418367346938774
474,2.9618118787766434e-05,1.0,0.922235906124115,0.8418367346938774
475,2.946060340036638e-05,1.0,0.9224043488502502,0.8418367346938774
476,2.931479502876755e-05,1.0,0.9231083989143372,0.8418367346938774
477,2.9163666113163345e-05,1.0,0.9236650466918945,0.8418367346938774
478,2.901040716096759e-05,1.0,0.9238162040710449,0.8418367346938774
479,2.8865664717159234e-05,1.0,0.9243051409721375,0.8418367346938774
480,2.8716662200167775e-05,1.0,0.9245589971542358,0.8418367346938774
481,2.8570853828568943e-05,1.0,0.9248996376991272,0.8418367346938774
482,2.842824142135214e-05,1.0,0.9255675673484802,0.8418367346938774
483,2.8285623557167128e-05,1.0,0.9256818890571594,0.8418367346938774
484,2.8140881113358773e-05,1.0,0.9257963299751282,0.8418367346938774
485,2.8003585612168536e-05,1.0,0.9264141917228699,0.8418367346938774
486,2.7854586733155884e-05,1.0,0.9266341924667358,0.8418367346938774
487,2.7720487196347676e-05,1.0,0.9268744587898254,0.8418367346938774
488,2.7582127586356364e-05,1.0,0.9272968173027039,0.8418367346938774
489,2.7441639758762904e-05,1.0,0.9275433421134949,0.8418367346938774
490,2.730434607656207e-05,1.0,0.9279751181602478,0.8418367346938774
491,2.7164924176759087e-05,1.0,0.9283372163772583,0.8418367346938774
492,2.702337224036455e-05,1.0,0.928699791431427,0.8418367346938774
493,2.6886078558163717e-05,1.0,0.9290026426315308,0.8418367346938774
494,2.675942778296303e-05,1.0,0.92936772108078,0.8418367346938774
495,2.6628516934579238e-05,1.0,0.9298571348190308,0.8418367346938774
496,2.6490160962566733e-05,1.0,0.9302166104316711,0.8418367346938774
497,2.635180135257542e-05,1.0,0.9305194616317749,0.8418367346938774
498,2.6228342903777957e-05,1.0,0.9308420419692993,0.8418367346938774
499,2.609530565678142e-05,1.0,0.9313602447509766,0.8418367346938774
500,2.596546255517751e-05,1.0,0.9315270185470581,0.8418367346938774
501,2.5834551706793718e-05,1.0,0.9319609999656677,0.8418367346938774
502,2.570577089500148e-05,1.0,0.9321760535240173,0.8418367346938774
503,2.557486186560709e-05,1.0,0.9322600960731506,0.8418367346938774
504,2.54609822150087e-05,1.0,0.9328393936157227,0.8418367346938774
505,2.5322626242996193e-05,1.0,0.9332514405250549,0.8418367346938774
506,2.5201294192811474e-05,1.0,0.9335573315620422,0.8418367346938774
507,2.5082092179218307e-05,1.0,0.9338096380233765,0.8418367346938774
508,2.495437911420595e-05,1.0,0.9341649413108826,0.8418367346938774
509,2.4831982955220155e-05,1.0,0.9346672892570496,0.8418367346938774
510,2.4707460397621617e-05,1.0,0.9348294138908386,0.8418367346938774
511,2.45818719122326e-05,1.0,0.935048520565033,0.8418367346938774
512,2.4464798116241582e-05,1.0,0.9354287385940552,0.8418367346938774
513,2.4341337848454714e-05,1.0,0.9359389543533325,0.8418367346938774
514,2.422213765385095e-05,1.0,0.9362925887107849,0.8418367346938774
515,2.4107193894451484e-05,1.0,0.9364956617355347,0.8418367346938774
516,2.398586366325617e-05,1.0,0.9369000792503357,0.8418367346938774
517,2.3866658011684194e-05,1.0,0.9372057914733887,0.8418367346938774
518,2.376235897827428e-05,1.0,0.9377647638320923,0.8418367346938774
519,2.363783642067574e-05,1.0,0.9379652738571167,0.8418367346938774
520,2.3519696696894243e-05,1.0,0.9381285309791565,0.8418367346938774
521,2.3402622900903225e-05,1.0,0.9385298490524292,0.8418367346938774
522,2.3302578483708203e-05,1.0,0.9389800429344177,0.8418367346938774
523,2.317805410712026e-05,1.0,0.9392977356910706,0.8418367346938774
524,2.3067364963935688e-05,1.0,0.9395307898521423,0.8418367346938774
525,2.295454942213837e-05,1.0,0.9399009346961975,0.8418367346938774
526,2.28438620979432e-05,1.0,0.9402039647102356,0.8418367346938774
527,2.2729978809366003e-05,1.0,0.940611720085144,0.8418367346938774
528,2.2624615667155012e-05,1.0,0.9408769607543945,0.8418367346938774
529,2.2517118850373663e-05,1.0,0.941100001335144,0.8418367346938774
530,2.2410689780372195e-05,1.0,0.9415377378463745,0.8418367346938774
531,2.2300000637187622e-05,1.0,0.9421257972717285,0.8418367346938774
532,2.218931149400305e-05,1.0,0.9422309994697571,0.8418367346938774
533,2.2079691916587763e-05,1.0,0.9423302412033081,0.8418367346938774
534,2.1972195099806413e-05,1.0,0.9428123235702515,0.8418367346938774
535,2.187534119002521e-05,1.0,0.9432114362716675,0.8418367346938774
536,2.1767846192233264e-05,1.0,0.9434018731117249,0.8418367346938774
537,2.1662479412043467e-05,1.0,0.9439305067062378,0.8418367346938774
538,2.1562434994848445e-05,1.0,0.9441555738449097,0.8418367346938774
539,2.1451745851663873e-05,1.0,0.9444777369499207,0.8418367346938774
540,2.1348507289076224e-05,1.0,0.9448084235191345,0.8418367346938774
541,2.1249526980682276e-05,1.0,0.9449325799942017,0.8418367346938774
542,2.1151612600078806e-05,1.0,0.9453898072242737,0.8418367346938774
543,2.104304985550698e-05,1.0,0.9456491470336914,0.8418367346938774
544,2.094726551149506e-05,1.0,0.9460578560829163,0.8418367346938774
545,2.0845091057708487e-05,1.0,0.9464043974876404,0.8418367346938774
546,2.074504482152406e-05,1.0,0.9466893076896667,0.8418367346938774
547,2.0650319129345007e-05,1.0,0.9471798539161682,0.8418367346938774
548,2.0548146494547836e-05,1.0,0.9471514821052551,0.8418367346938774
549,2.0457680875551887e-05,1.0,0.9476602673530579,0.8418367346938774
550,2.035763463936746e-05,1.0,0.9482461810112,0.8418367346938774
551,2.0256526113371365e-05,1.0,0.9484238624572754,0.8418367346938774
552,2.015967038460076e-05,1.0,0.9486074447631836,0.8418367346938774
553,2.006920476560481e-05,1.0,0.9488043189048767,0.8418367346938774
554,1.997661092900671e-05,1.0,0.949231743812561,0.8418367346938774
555,1.987975883821491e-05,1.0,0.9499086141586304,0.8418367346938774
556,1.9788227291428484e-05,1.0,0.9501598477363586,0.8418367346938774
557,1.9694565708050504e-05,1.0,0.9502658247947693,0.8418367346938774
558,1.959877772605978e-05,1.0,0.9508028030395508,0.8418367346938774
559,1.9502989744069055e-05,1.0,0.9511060118675232,0.8418367346938774
560,1.9413590052863583e-05,1.0,0.9513381719589233,0.8418367346938774
561,1.932099439727608e-05,1.0,0.9517346024513245,0.8418367346938774
562,1.9232655176892877e-05,1.0,0.9520043730735779,0.8418367346938774
563,1.914538188430015e-05,1.0,0.9525100588798523,0.8418367346938774
564,1.905597855511587e-05,1.0,0.9528669118881226,0.8418367346938774
565,1.8967639334732667e-05,1.0,0.9531405568122864,0.8418367346938774
566,1.887610778794624e-05,1.0,0.9533389210700989,0.8418367346938774
567,1.8783510313369334e-05,1.0,0.9536532759666443,0.8418367346938774
568,1.869410880317446e-05,1.0,0.9541620016098022,0.8418367346938774
569,1.8604707292979583e-05,1.0,0.9543417692184448,0.8418367346938774
570,1.8518496290198527e-05,1.0,0.9548082947731018,0.8418367346938774
571,1.843335121520795e-05,1.0,0.9553442597389221,0.8418367346938774
572,1.8347142031416297e-05,1.0,0.955398678779602,0.8418367346938774
573,1.826838342822157e-05,1.0,0.955730140209198,0.8418367346938774
574,1.818323835323099e-05,1.0,0.9562715888023376,0.8418367346938774
575,1.8091706806444563e-05,1.0,0.9564295411109924,0.8418367346938774
576,1.8014008674072102e-05,1.0,0.956921398639679,0.8418367346938774
577,1.792673720046878e-05,1.0,0.9571653604507446,0.8418367346938774
578,1.7852235032478347e-05,1.0,0.9573521614074707,0.8418367346938774
579,1.776708995748777e-05,1.0,0.9578132033348083,0.8418367346938774
580,1.767981484590564e-05,1.0,0.9581601023674011,0.8418367346938774
581,1.7594667951925658e-05,1.0,0.9583171606063843,0.8418367346938774
582,1.752335811033845e-05,1.0,0.9587768912315369,0.8418367346938774
583,1.743821303534787e-05,1.0,0.9591439962387085,0.8418367346938774
584,1.735519435897004e-05,1.0,0.9594389200210571,0.8418367346938774
585,1.7277501683565788e-05,1.0,0.9598132371902466,0.8418367346938774
586,1.7196611224790104e-05,1.0,0.959960401058197,0.8418367346938774
587,1.7113594367401674e-05,1.0,0.9603490233421326,0.8418367346938774
588,1.7034835764206946e-05,1.0,0.9608915448188782,0.8418367346938774
589,1.6955013052211143e-05,1.0,0.9610223770141602,0.8418367346938774
590,1.687625263002701e-05,1.0,0.961479127407074,0.8418367346938774
591,1.6793233953649178e-05,1.0,0.9617647528648376,0.8418367346938774
592,1.6714473531465046e-05,1.0,0.9619053602218628,0.8418367346938774
593,1.6637843145872466e-05,1.0,0.9624356031417847,0.8418367346938774
594,1.6567599232075736e-05,1.0,0.9628195762634277,0.8418367346938774
595,1.64888369909022e-05,1.0,0.9630586504936218,0.8418367346938774
596,1.641433482291177e-05,1.0,0.963352382183075,0.8418367346938774
597,1.6338768546120264e-05,1.0,0.9637367129325867,0.8418367346938774
598,1.6271716958726756e-05,1.0,0.9640040993690491,0.8418367346938774
599,1.6194022464333102e-05,1.0,0.9644715189933777,0.8418367346938774
600,1.6115260223159567e-05,1.0,0.9648197889328003,0.8418367346938774
601,1.6039692127378657e-05,1.0,0.9649619460105896,0.8418367346938774
602,1.5971576431184076e-05,1.0,0.9652857184410095,0.8418367346938774
603,1.5901330698397942e-05,1.0,0.9656526446342468,0.8418367346938774
604,1.5826826711418107e-05,1.0,0.9659678339958191,0.8418367346938774
605,1.5754454580019228e-05,1.0,0.9662538170814514,0.8418367346938774
606,1.5682080629630946e-05,1.0,0.9666791558265686,0.8418367346938774
607,1.5612899005645886e-05,1.0,0.9670406579971313,0.8418367346938774
608,1.553946094645653e-05,1.0,0.9671671986579895,0.8418367346938774
609,1.546815110486932e-05,1.0,0.9675762057304382,0.8418367346938774
610,1.5395775335491635e-05,1.0,0.9678815603256226,0.8418367346938774
611,1.5329787856899202e-05,1.0,0.9682856798171997,0.8418367346938774
612,1.5251028344209772e-05,1.0,0.9686058163642883,0.8418367346938774
613,1.5191426427918486e-05,1.0,0.9687390327453613,0.8418367346938774
614,1.5116922440938652e-05,1.0,0.9693300127983093,0.8418367346938774
615,1.5057320524647366e-05,1.0,0.9695448279380798,0.8418367346938774
616,1.4988138900662307e-05,1.0,0.9698357582092285,0.8418367346938774
617,1.4915764950274024e-05,1.0,0.9700497984886169,0.8418367346938774
618,1.4852971617074218e-05,1.0,0.9704009294509888,0.8418367346938774
619,1.4783789993089158e-05,1.0,0.9708107113838196,0.8418367346938774
620,1.4715672477905173e-05,1.0,0.9709896445274353,0.8418367346938774
621,1.4655005543318111e-05,1.0,0.9714286923408508,0.8418367346938774
622,1.458582300983835e-05,1.0,0.9716469049453735,0.8418367346938774
623,1.451664138585329e-05,1.0,0.9718179106712341,0.8418367346938774
624,1.4451718016061932e-05,1.0,0.9723749160766602,0.8418367346938774
625,1.4387857845576946e-05,1.0,0.972567617893219,0.8418367346938774
626,1.4320804439194035e-05,1.0,0.9729267358779907,0.8418367346938774
627,1.42590743053006e-05,1.0,0.9732589721679688,0.8418367346938774
628,1.4198408280208241e-05,1.0,0.9734076261520386,0.8418367346938774
629,1.413774134562118e-05,1.0,0.9738956093788147,0.8418367346938774
630,1.4068558812141418e-05,1.0,0.9740654826164246,0.8418367346938774
631,1.4002570424054284e-05,1.0,0.974485456943512,0.8418367346938774
632,1.3941905308456626e-05,1.0,0.9749833345413208,0.8418367346938774
633,1.3886558008380234e-05,1.0,0.9749940633773804,0.8418367346938774
634,1.3822699656884652e-05,1.0,0.9755608439445496,0.8418367346938774
635,1.3763097740593366e-05,1.0,0.9759470820426941,0.8418367346938774
636,1.369710844301153e-05,1.0,0.9761047959327698,0.8418367346938774
637,1.3631120964419097e-05,1.0,0.9764295220375061,0.8418367346938774
638,1.3578967809735332e-05,1.0,0.9767497181892395,0.8418367346938774
639,1.3512979421648197e-05,1.0,0.9771820902824402,0.8418367346938774
640,1.3454440704663284e-05,1.0,0.9772845506668091,0.8418367346938774
641,1.3388453226070851e-05,1.0,0.9776223301887512,0.8418367346938774
642,1.3337365999177564e-05,1.0,0.9780331254005432,0.8418367346938774
643,1.32681825562031e-05,1.0,0.9782667756080627,0.8418367346938774
644,1.3210708857513964e-05,1.0,0.9787108302116394,0.8418367346938774
645,1.3159621630620677e-05,1.0,0.9789379835128784,0.8418367346938774
646,1.3092568224237766e-05,1.0,0.9793089032173157,0.8418367346938774
647,1.3044673323747702e-05,1.0,0.9795220494270325,0.8418367346938774
648,1.2986135516257491e-05,1.0,0.9798489212989807,0.8418367346938774
649,1.2925467672175728e-05,1.0,0.9802026748657227,0.8418367346938774
650,1.2866929864685517e-05,1.0,0.9803529381752014,0.8418367346938774
651,1.2807327948394231e-05,1.0,0.9807079434394836,0.8418367346938774
652,1.2755175703205168e-05,1.0,0.9812111258506775,0.8418367346938774
653,1.269770109502133e-05,1.0,0.9813814759254456,0.8418367346938774
654,1.2643419722735416e-05,1.0,0.9817403554916382,0.8418367346938774
655,1.2588074241648428e-05,1.0,0.9819011688232422,0.8418367346938774
656,1.2529535524663515e-05,1.0,0.9823175668716431,0.8418367346938774
657,1.2475255061872303e-05,1.0,0.9828352332115173,0.8418367346938774
658,1.2414589036779944e-05,1.0,0.9829081296920776,0.8418367346938774
659,1.2366692317300476e-05,1.0,0.9832335114479065,0.8418367346938774
660,1.230709040100919e-05,1.0,0.9838619828224182,0.8418367346938774
661,1.2257066373422276e-05,1.0,0.984120786190033,0.8418367346938774
662,1.2200658602523617e-05,1.0,0.9843339920043945,0.8418367346938774
663,1.2151698683737777e-05,1.0,0.9847685694694519,0.8418367346938774
664,1.2095288184355013e-05,1.0,0.9849873781204224,0.8418367346938774
665,1.2050586519762874e-05,1.0,0.9853084683418274,0.8418367346938774
666,1.1995241038675886e-05,1.0,0.9855687022209167,0.8418367346938774
667,1.1939894648094196e-05,1.0,0.9859777092933655,0.8418367346938774
668,1.1882421858899761e-05,1.0,0.9865241646766663,0.8418367346938774
669,1.183559015771607e-05,1.0,0.9867022633552551,0.8418367346938774
670,1.1780245586123783e-05,1.0,0.9869268536567688,0.8418367346938774
671,1.1727027413144242e-05,1.0,0.9873858690261841,0.8418367346938774
672,1.1679132512654178e-05,1.0,0.9875459671020508,0.8418367346938774
673,1.162591615866404e-05,1.0,0.9880646467208862,0.8418367346938774
674,1.15854718387709e-05,1.0,0.9885874390602112,0.8418367346938774
675,1.1526933121785987e-05,1.0,0.9887059330940247,0.8418367346938774
676,1.148116552940337e-05,1.0,0.9890327453613281,0.8418367346938774
677,1.1429014193709008e-05,1.0,0.989238440990448,0.8418367346938774
678,1.1374731911928393e-05,1.0,0.9896011352539062,0.8418367346938774
679,1.1327902939228807e-05,1.0,0.9901672005653381,0.8418367346938774
680,1.1280006219749339e-05,1.0,0.9905039072036743,0.8418367346938774
681,1.1228918992856052e-05,1.0,0.990757405757904,0.8418367346938774
682,1.1179959983564913e-05,1.0,0.99091637134552,0.8418367346938774
683,1.113525649998337e-05,1.0,0.9914329648017883,0.8418367346938774
684,1.1080976037192158e-05,1.0,0.9918203353881836,0.8418367346938774
685,1.1033080227207392e-05,1.0,0.9919418096542358,0.8418367346938774
686,1.0989443580911029e-05,1.0,0.9923880696296692,0.8418367346938774
687,1.0939418643829413e-05,1.0,0.9926857948303223,0.8418367346938774
688,1.0894716069742572e-05,1.0,0.9930441975593567,0.8418367346938774
689,1.0847885278053582e-05,1.0,0.9934056401252747,0.8418367346938774
690,1.0806376849359367e-05,1.0,0.9936206936836243,0.8418367346938774
691,1.0755288712971378e-05,1.0,0.994055449962616,0.8418367346938774
692,1.0710586138884537e-05,1.0,0.994418740272522,0.8418367346938774
693,1.0664819455996621e-05,1.0,0.9947789907455444,0.8418367346938774
694,1.0617988664307632e-05,1.0,0.9952020645141602,0.8418367346938774
695,1.0570093763817567e-05,1.0,0.9951884150505066,0.8418367346938774
696,1.05264552985318e-05,1.0,0.995559811592102,0.8418367346938774
697,1.0476431270944886e-05,1.0,0.9960098266601562,0.8418367346938774
698,1.0438115168653894e-05,1.0,0.9964051842689514,0.8418367346938774
699,1.0395541721663903e-05,1.0,0.9964882135391235,0.8418367346938774
700,1.0345517694076989e-05,1.0,0.9969791769981384,0.8418367346938774
701,1.0304008355888072e-05,1.0,0.9972124695777893,0.8418367346938774
702,1.0252920219500083e-05,1.0,0.997519314289093,0.8418367346938774
703,1.0210346772510093e-05,1.0,0.9980117678642273,0.8418367346938774
704,1.0164580089622177e-05,1.0,0.9982949495315552,0.8418367346938774
705,1.012307075143326e-05,1.0,0.9984944462776184,0.8418367346938774
706,1.008049730444327e-05,1.0,0.9988946318626404,0.8418367346938774
707,1.0043245310953353e-05,1.0,0.9992203116416931,0.8418367346938774
708,9.99535131995799e-06,1.0,0.9994837045669556,0.8418367346938774
709,9.952776963473298e-06,1.0,0.9998213052749634,0.8418367346938774
710,9.916589078784455e-06,1.0,1.0001033544540405,0.8418367346938774
711,9.869758287095465e-06,1.0,1.0004218816757202,0.8418367346938774
712,9.829312148212921e-06,1.0,1.0006901025772095,0.8418367346938774
713,9.782482266018633e-06,1.0,1.0008299350738525,0.8656462585034014
714,9.745230272528715e-06,1.0,1.0013444423675537,0.8656462585034014
715,9.703720024845097e-06,1.0,1.0018259286880493,0.8418367346938774
716,9.661146577855106e-06,1.0,1.002010464668274,0.8656462585034014
717,9.621765457268339e-06,1.0,1.0022237300872803,0.8656462585034014
718,9.582386155670974e-06,1.0,1.0025442838668823,0.8656462585034014
719,9.535554454487283e-06,1.0,1.0029653310775757,0.8656462585034014
720,9.495110134594142e-06,1.0,1.0033185482025146,0.8656462585034014
721,9.451470759813674e-06,1.0,1.0035136938095093,0.8656462585034014
722,9.418477930012159e-06,1.0,1.0038816928863525,0.8656462585034014
723,9.375902664032765e-06,1.0,1.004323124885559,0.8656462585034014
724,9.339716598333325e-06,1.0,1.0046143531799316,0.8656462585034014
725,9.298206350649707e-06,1.0,1.0047093629837036,0.8656462585034014
726,9.25669701246079e-06,1.0,1.0052354335784912,0.8656462585034014
727,9.214122655976098e-06,1.0,1.0054315328598022,0.8656462585034014
728,9.181128916679882e-06,1.0,1.0057791471481323,0.8656462585034014
729,9.14068368729204e-06,1.0,1.0064078569412231,0.8656462585034014
730,9.100238457904197e-06,1.0,1.0063884258270264,0.8656462585034014
731,9.06298646441428e-06,1.0,1.0065678358078003,0.8656462585034014
732,9.025735380419064e-06,1.0,1.0070704221725464,0.8656462585034014
733,8.992740731628146e-06,1.0,1.0074114799499512,0.8656462585034014
734,8.948038157541305e-06,1.0,1.0077458620071411,0.8656462585034014
735,8.912914381653536e-06,1.0,1.007951259613037,0.8656462585034014
736,8.872469152265694e-06,1.0,1.0083900690078735,0.8656462585034014
737,8.838410394673701e-06,1.0,1.0086394548416138,0.8656462585034014
738,8.794771929387935e-06,1.0,1.0089914798736572,0.8656462585034014
739,8.76709873409709e-06,1.0,1.0094906091690063,0.8656462585034014
740,8.725590305402875e-06,1.0,1.0096818208694458,0.8656462585034014
741,8.69365885591833e-06,1.0,1.0098322629928589,0.8656462585034014
742,8.657471880724188e-06,1.0,1.0102293491363525,0.8656462585034014
743,8.617026651336346e-06,1.0,1.0105714797973633,0.8656462585034014
744,8.576581421948504e-06,1.0,1.010952353477478,0.8656462585034014
745,8.544651791453362e-06,1.0,1.0113260746002197,0.8656462585034014
746,8.507398888468742e-06,1.0,1.0116971731185913,0.8656462585034014
747,8.470146894978825e-06,1.0,1.0119508504867554,0.8656462585034014
748,8.432894901488908e-06,1.0,1.0123544931411743,0.8656462585034014
749,8.405221706198063e-06,1.0,1.0126668214797974,0.8656462585034014
750,8.367970622202847e-06,1.0,1.0129631757736206,0.8656462585034014
751,8.337104191014078e-06,1.0,1.0132278203964233,0.8656462585034014
752,8.30198132462101e-06,1.0,1.0135376453399658,0.8656462585034014
753,8.268986675830092e-06,1.0,1.0139474868774414,0.8656462585034014
754,8.228540536947548e-06,1.0,1.0143152475357056,0.8656462585034014
755,8.194482688850258e-06,1.0,1.0147209167480469,0.8656462585034014
756,8.161487130564637e-06,1.0,1.0148448944091797,0.8656462585034014
757,8.126363354676869e-06,1.0,1.0152097940444946,0.8656462585034014
758,8.089112270681653e-06,1.0,1.0156906843185425,0.8656462585034014
759,8.055052603594959e-06,1.0,1.0160958766937256,0.8656462585034014
760,8.023122063605115e-06,1.0,1.0164098739624023,0.8656462585034014
761,7.991191523615271e-06,1.0,1.016581654548645,0.8656462585034014
762,7.950746294227429e-06,1.0,1.0168834924697876,0.8656462585034014
763,7.92413811723236e-06,1.0,1.017183780670166,0.8656462585034014
764,7.890079359640367e-06,1.0,1.017564058303833,0.8656462585034014
765,7.853890565456823e-06,1.0,1.0178816318511963,0.8656462585034014
766,7.82621827966068e-06,1.0,1.0183149576187134,0.8656462585034014
767,7.792158612573985e-06,1.0,1.0185426473617554,0.8656462585034014
768,7.755971637379844e-06,1.0,1.0187703371047974,0.8656462585034014
769,7.729362550890073e-06,1.0,1.0190811157226562,0.8656462585034014
770,7.69743201090023e-06,1.0,1.0195176601409912,0.8656462585034014
771,7.666566489206161e-06,1.0,1.0198266506195068,0.8656462585034014
772,7.629314040968893e-06,1.0,1.0199480056762695,0.8656462585034014
773,7.601640845678048e-06,1.0,1.0203737020492554,0.8656462585034014
774,7.567582088086056e-06,1.0,1.020810842514038,0.8656462585034014
775,7.542037110397359e-06,1.0,1.0211235284805298,0.8656462585034014
776,7.510106570407515e-06,1.0,1.0215367078781128,0.8656462585034014
777,7.473919595213374e-06,1.0,1.0217479467391968,0.8656462585034014
778,7.430280675180256e-06,1.0,1.0217394828796387,0.8656462585034014
779,7.40686436984106e-06,1.0,1.0222556591033936,0.8656462585034014
780,7.380256192845991e-06,1.0,1.0227652788162231,0.8656462585034014
781,7.346197435253998e-06,1.0,1.023126244544983,0.8656462585034014
782,7.3153314588125795e-06,1.0,1.0232192277908325,0.8656462585034014
783,7.2791435741237365e-06,1.0,1.0234040021896362,0.8656462585034014
784,7.255727723531891e-06,1.0,1.0238534212112427,0.8656462585034014
785,7.224861747090472e-06,1.0,1.0244076251983643,0.8656462585034014
786,7.198253115348052e-06,1.0,1.02470862865448,0.8656462585034014
787,7.169516266003484e-06,1.0,1.0249093770980835,0.8656462585034014
788,7.1354565989167895e-06,1.0,1.025255560874939,0.8656462585034014
789,7.104591077222722e-06,1.0,1.0254968404769897,0.8656462585034014
790,7.072660082485527e-06,1.0,1.0258240699768066,0.8656462585034014
791,7.044986887194682e-06,1.0,1.0260647535324097,0.8656462585034014
792,7.018378255452262e-06,1.0,1.0265051126480103,0.8656462585034014
793,6.988576387811918e-06,1.0,1.026737093925476,0.8656462585034014
794,6.960903647268424e-06,1.0,1.0270068645477295,0.8656462585034014
795,6.92897310727858e-06,1.0,1.0273977518081665,0.8656462585034014
796,6.9034285843372345e-06,1.0,1.0277689695358276,0.8656462585034014
797,6.876820407342166e-06,1.0,1.02814519405365,0.8656462585034014
798,6.850211320852395e-06,1.0,1.0285135507583618,0.8656462585034014
799,6.821474471507827e-06,1.0,1.0286201238632202,0.8656462585034014
800,6.792736257921206e-06,1.0,1.0290433168411255,0.8656462585034014
801,6.767192189727211e-06,1.0,1.029505729675293,0.8656462585034014
802,6.742712230334291e-06,1.0,1.0297000408172607,0.8656462585034014
803,6.707588909193873e-06,1.0,1.029979944229126,0.8656462585034014
804,6.676722023257753e-06,1.0,1.0302481651306152,0.8656462585034014
805,6.651177955063758e-06,1.0,1.0305720567703247,0.8656462585034014
806,6.626697995670838e-06,1.0,1.0308921337127686,0.8656462585034014
807,6.590510565729346e-06,1.0,1.0310431718826294,0.8656462585034014
808,6.568158823938575e-06,1.0,1.0315754413604736,0.8656462585034014
809,6.54261475574458e-06,1.0,1.0319008827209473,0.8656462585034014
810,6.519198905152734e-06,1.0,1.032118558883667,0.8656462585034014
811,6.492590273410315e-06,1.0,1.0324664115905762,0.8656462585034014
812,6.46491707811947e-06,1.0,1.0327513217926025,0.8656462585034014
813,6.4340506469307e-06,1.0,1.0331323146820068,0.8656462585034014
814,6.406377906387206e-06,1.0,1.0333161354064941,0.8656462585034014
815,6.378704711096361e-06,1.0,1.0337423086166382,0.8656462585034014
816,6.3595462052035145e-06,1.0,1.034145712852478,0.8656462585034014
817,6.337194918160094e-06,1.0,1.0343477725982666,0.8656462585034014
818,6.311649940471398e-06,1.0,1.0346750020980835,0.8656462585034014
819,6.288234999374254e-06,1.0,1.0349866151809692,0.8656462585034014
820,6.254175332287559e-06,1.0,1.035351037979126,0.8656462585034014
821,6.2318244999914896e-06,1.0,1.035794973373413,0.8656462585034014
822,6.205215413501719e-06,1.0,1.036052942276001,0.8656462585034014
823,6.175413091114024e-06,1.0,1.0360544919967651,0.8656462585034014
824,6.1551909311674535e-06,1.0,1.03643798828125,0.8656462585034014
825,6.124324045231333e-06,1.0,1.0367995500564575,0.8656462585034014
826,6.104101885284763e-06,1.0,1.0371896028518677,0.8656462585034014
827,6.077493253542343e-06,1.0,1.0375382900238037,0.8656462585034014
828,6.050883712305222e-06,1.0,1.0377851724624634,0.8656462585034014
829,6.022146862960653e-06,1.0,1.0381006002426147,0.8656462585034014
830,6.002988357067807e-06,1.0,1.0383131504058838,0.8656462585034014
831,5.980637070024386e-06,1.0,1.0386518239974976,0.8656462585034014
832,5.956157110631466e-06,1.0,1.039060354232788,0.8656462585034014
833,5.929548024141695e-06,1.0,1.0393002033233643,0.8656462585034014
834,5.9061321735498495e-06,1.0,1.039695382118225,0.8656462585034014
835,5.871009307156783e-06,1.0,1.0400439500808716,0.8656462585034014
836,5.845464784215437e-06,1.0,1.0400311946868896,0.8656462585034014
837,5.83056362302159e-06,1.0,1.0404998064041138,0.8656462585034014
838,5.808212335978169e-06,1.0,1.0408579111099243,0.8656462585034014
839,5.784796940133674e-06,1.0,1.0411323308944702,0.8656462585034014
840,5.761380634794477e-06,1.0,1.0415332317352295,0.8656462585034014
841,5.735836566600483e-06,1.0,1.0417600870132446,0.8656462585034014
842,5.715613951906562e-06,1.0,1.0421899557113647,0.8656462585034014
843,5.692197646567365e-06,1.0,1.0425645112991333,0.8656462585034014
844,5.667717687174445e-06,1.0,1.0427888631820679,0.8656462585034014
845,5.6496237448300235e-06,1.0,1.0429221391677856,0.8656462585034014
846,5.626207894238178e-06,1.0,1.0431667566299438,0.8656462585034014
847,5.603856152447406e-06,1.0,1.0435845851898193,0.8656462585034014
848,5.5772475207049865e-06,1.0,1.0439192056655884,0.8656462585034014
849,5.555960797209991e-06,1.0,1.0444010496139526,0.8656462585034014
850,5.53573818251607e-06,1.0,1.0446604490280151,0.8656462585034014
851,5.5133868954726495e-06,1.0,1.0448055267333984,0.8656462585034014
852,5.491035153681878e-06,1.0,1.0451420545578003,0.8656462585034014
853,5.466555194288958e-06,1.0,1.0455044507980347,0.8656462585034014
854,5.442075234896038e-06,1.0,1.0457653999328613,0.8656462585034014
855,5.419723493105266e-06,1.0,1.0460436344146729,0.8656462585034014
856,5.403758677857695e-06,1.0,1.0464284420013428,0.8656462585034014
857,5.3771500461152755e-06,1.0,1.0465810298919678,0.8656462585034014
858,5.354798304324504e-06,1.0,1.0469080209732056,0.8656462585034014
859,5.327124654286308e-06,1.0,1.0473301410675049,0.8656462585034014
860,5.303708803694462e-06,1.0,1.0475949048995972,0.8656462585034014
861,5.290937224344816e-06,1.0,1.0479806661605835,0.8656462585034014
862,5.270714154903544e-06,1.0,1.0481736660003662,0.8656462585034014
863,5.2472992138064e-06,1.0,1.0484619140625,0.8656462585034014
864,5.229204816714628e-06,1.0,1.0487700700759888,0.8656462585034014
865,5.208981747273356e-06,1.0,1.0490282773971558,0.8656462585034014
866,5.178115770831937e-06,1.0,1.049380898475647,0.8656462585034014
867,5.156828592589591e-06,1.0,1.0497186183929443,0.8656462585034014
868,5.144056103745243e-06,1.0,1.0500050783157349,0.8656462585034014
869,5.115318799653323e-06,1.0,1.0504039525985718,0.8656462585034014
870,5.101482202007901e-06,1.0,1.0507457256317139,0.8656462585034014
871,5.077002242614981e-06,1.0,1.0510685443878174,0.8656462585034014
872,5.061036517872708e-06,1.0,1.0514596700668335,0.8656462585034014
873,5.036556103732437e-06,1.0,1.0516843795776367,0.8656462585034014
874,5.014205271436367e-06,1.0,1.0517934560775757,0.8656462585034014
875,5.002497346140444e-06,1.0,1.05219304561615,0.8656462585034014
876,4.976952368451748e-06,1.0,1.0525591373443604,0.8656462585034014
877,4.952472409058828e-06,1.0,1.0529085397720337,0.8656462585034014
878,4.93969992021448e-06,1.0,1.0532586574554443,0.8656462585034014
879,4.91947776026791e-06,1.0,1.0535086393356323,0.8656462585034014
880,4.901383363176137e-06,1.0,1.0538076162338257,0.8656462585034014
881,4.882225312030641e-06,1.0,1.0539894104003906,0.8656462585034014
882,4.85774489789037e-06,1.0,1.054375410079956,0.8656462585034014
883,4.841779627895448e-06,1.0,1.054662823677063,0.8656462585034014
884,4.819428340852028e-06,1.0,1.054940938949585,0.8656462585034014
885,4.8066563067550305e-06,1.0,1.0553394556045532,0.8656462585034014
886,4.783240456163185e-06,1.0,1.055620789527893,0.8656462585034014
887,4.7545031520712655e-06,1.0,1.0558345317840576,0.8656462585034014
888,4.744923899124842e-06,1.0,1.0561097860336304,0.8656462585034014
889,4.719378921436146e-06,1.0,1.0565621852874756,0.8656462585034014
890,4.705542778538074e-06,1.0,1.0569723844528198,0.8656462585034014
891,4.687448381446302e-06,1.0,1.0572000741958618,0.8656462585034014
892,4.66722531200503e-06,1.0,1.0573667287826538,0.8656462585034014
893,4.649131824407959e-06,1.0,1.0575999021530151,0.8656462585034014
894,4.628909209714038e-06,1.0,1.0579555034637451,0.8656462585034014
895,4.610814812622266e-06,1.0,1.0583126544952393,0.8656462585034014
896,4.593784979078919e-06,1.0,1.058620810508728,0.8656462585034014
897,4.575690581987146e-06,1.0,1.058901309967041,0.8656462585034014
898,4.553339294943726e-06,1.0,1.0591224431991577,0.8656462585034014
899,4.5331171349971555e-06,1.0,1.059463381767273,0.8656462585034014
900,4.520344646152807e-06,1.0,1.059711217880249,0.8656462585034014
901,4.497992904362036e-06,1.0,1.0600167512893677,0.8656462585034014
902,4.483092197915539e-06,1.0,1.0604203939437866,0.8656462585034014
903,4.4596758925763424e-06,1.0,1.0607143640518188,0.8656462585034014
904,4.446903858479345e-06,1.0,1.0609873533248901,0.8656462585034014
905,4.423488007887499e-06,1.0,1.0613772869110107,0.8656462585034014
906,4.4043299567420036e-06,1.0,1.0617247819900513,0.8656462585034014
907,4.390493359096581e-06,1.0,1.0618886947631836,0.8656462585034014
908,4.3713343984563835e-06,1.0,1.0623111724853516,0.8656462585034014
909,4.358562819106737e-06,1.0,1.062508463859558,0.8656462585034014
910,4.342597094364464e-06,1.0,1.0627634525299072,0.8656462585034014
911,4.322374479670543e-06,1.0,1.0630803108215332,0.8656462585034014
912,4.308537882025121e-06,1.0,1.0634175539016724,0.8656462585034014
913,4.2915085032291245e-06,1.0,1.0637403726577759,0.8656462585034014
914,4.269156761438353e-06,1.0,1.0641050338745117,0.8656462585034014
915,4.25744883614243e-06,1.0,1.0643967390060425,0.8656462585034014
916,4.236161657900084e-06,1.0,1.0644816160202026,0.8656462585034014
917,4.219131824356737e-06,1.0,1.0647408962249756,0.8656462585034014
918,4.2031670091091655e-06,1.0,1.0649900436401367,0.8656462585034014
919,4.190394520264817e-06,1.0,1.0653525590896606,0.8656462585034014
920,4.1744287955225445e-06,1.0,1.0654839277267456,0.8656462585034014
921,4.155270289629698e-06,1.0,1.0658252239227295,0.8656462585034014
922,4.14036912843585e-06,1.0,1.0661711692810059,0.8656462585034014
923,4.121211077290354e-06,1.0,1.0664728879928589,0.8656462585034014
924,4.109503151994431e-06,1.0,1.0668050050735474,0.8656462585034014
925,4.088215973752085e-06,1.0,1.0670852661132812,0.8656462585034014
926,4.0733148125582375e-06,1.0,1.0672551393508911,0.8656462585034014
927,4.053092197864316e-06,1.0,1.0674402713775635,0.8656462585034014
928,4.042448381369468e-06,1.0,1.067853331565857,0.8656462585034014
929,4.023290330223972e-06,1.0,1.0681474208831787,0.8656462585034014
930,4.006260496680625e-06,1.0,1.0684341192245483,0.8656462585034014
931,3.994552571384702e-06,1.0,1.068671703338623,0.8656462585034014
932,3.9807159737392794e-06,1.0,1.0689798593521118,0.8656462585034014
933,3.966879830841208e-06,1.0,1.0692635774612427,0.8656462585034014
934,3.94984954255051e-06,1.0,1.069507360458374,0.8656462585034014
935,3.932819709007163e-06,1.0,1.0697640180587769,0.8656462585034014
936,3.92111178371124e-06,1.0,1.0701361894607544,0.8656462585034014
937,3.901953732565744e-06,1.0,1.0703842639923096,0.8656462585034014
938,3.885988462570822e-06,1.0,1.0707142353057861,0.8656462585034014
939,3.865765847876901e-06,1.0,1.0710188150405884,0.8656462585034014
940,3.850864686683053e-06,1.0,1.0711647272109985,0.8656462585034014
941,3.842349997285055e-06,1.0,1.0715354681015015,0.8656462585034014
942,3.824255600193283e-06,1.0,1.0718119144439697,0.8656462585034014
943,3.807225994023611e-06,1.0,1.0722171068191528,0.8656462585034014
944,3.789131824305514e-06,1.0,1.072439193725586,0.8656462585034014
945,3.777423899009591e-06,1.0,1.0726181268692017,0.8656462585034014
946,3.761458629014669e-06,1.0,1.072943925857544,0.8656462585034014
947,3.7497504763450706e-06,1.0,1.073175311088562,0.8656462585034014
948,3.735913878699648e-06,1.0,1.0734423398971558,0.8656462585034014
949,3.7199483813310508e-06,1.0,1.0738457441329956,0.8656462585034014
950,3.7050474475108786e-06,1.0,1.0741180181503296,0.8656462585034014
951,3.689081950142281e-06,1.0,1.074434518814087,0.8656462585034014
952,3.673116680147359e-06,1.0,1.0746692419052124,0.8656462585034014
953,3.658215746327187e-06,1.0,1.0749595165252686,0.8656462585034014
954,3.6454434848565143e-06,1.0,1.075340986251831,0.8656462585034014
955,3.626284751589992e-06,1.0,1.075620412826538,0.8656462585034014
956,3.6188341709930683e-06,1.0,1.075979232788086,0.8656462585034014
957,3.6028691283718217e-06,1.0,1.0762250423431396,0.8656462585034014
958,3.5964833386969985e-06,1.0,1.0765401124954224,0.8656462585034014
959,3.5709385883819778e-06,1.0,1.0767533779144287,0.8656462585034014
960,3.5613593354355544e-06,1.0,1.0770866870880127,0.8656462585034014
961,3.5432651657174574e-06,1.0,1.0774277448654175,0.8656462585034014
962,3.5304926768731093e-06,1.0,1.0777130126953125,0.8656462585034014
963,3.5155919704266125e-06,1.0,1.0779688358306885,0.8656462585034014
964,3.5028194815822644e-06,1.0,1.0783300399780273,0.8656462585034014
965,3.488982883936842e-06,1.0,1.0786375999450684,0.8656462585034014
966,3.4762106224661693e-06,1.0,1.078975796699524,0.8656462585034014
967,3.459180788922822e-06,1.0,1.0792487859725952,0.8656462585034014
968,3.446408300078474e-06,1.0,1.0794707536697388,0.8656462585034014
969,3.4336360386078013e-06,1.0,1.079850673675537,0.8656462585034014
970,3.419799440962379e-06,1.0,1.0801422595977783,0.8656462585034014
971,3.407027179491706e-06,1.0,1.0805013179779053,0.8656462585034014
972,3.3899975733220344e-06,1.0,1.0805798768997192,0.8656462585034014
973,3.378289420652436e-06,1.0,1.0809361934661865,0.8656462585034014
974,3.3708395221765386e-06,1.0,1.0812522172927856,0.8656462585034014
975,3.353809461259516e-06,1.0,1.0815808773040771,0.8656462585034014
976,3.3410371997888433e-06,1.0,1.0820189714431763,0.8656462585034014
977,3.328264710944495e-06,1.0,1.0821853876113892,0.8656462585034014
978,3.3101703138527228e-06,1.0,1.0825268030166626,0.8656462585034014
979,3.3005910609062994e-06,1.0,1.082796335220337,0.8656462585034014
980,3.2856908092071535e-06,1.0,1.0829447507858276,0.8656462585034014
981,3.275046992712305e-06,1.0,1.083446979522705,0.8656462585034014
982,3.2590814953437075e-06,1.0,1.0837512016296387,0.8656462585034014
983,3.2526952509215334e-06,1.0,1.084077000617981,0.8656462585034014
984,3.227150727980188e-06,1.0,1.0842360258102417,0.8656462585034014
985,3.220764483558014e-06,1.0,1.0845615863800049,0.8656462585034014
986,3.2143784665095154e-06,1.0,1.084836483001709,0.8656462585034014
987,3.1973486329661682e-06,1.0,1.0849653482437134,0.8656462585034014
988,3.187769380019745e-06,1.0,1.0855149030685425,0.8656462585034014
989,3.168610874126898e-06,1.0,1.086026906967163,0.8656462585034014
990,3.157967285005725e-06,1.0,1.086320161819458,0.8656462585034014
991,3.148388259432977e-06,1.0,1.0864152908325195,0.8656462585034014
992,3.1313581985159544e-06,1.0,1.0866711139678955,0.8656462585034014
993,3.1239076179190306e-06,1.0,1.0869340896606445,0.8656462585034014
994,3.109006456725183e-06,1.0,1.0872812271118164,0.8656462585034014
995,3.094105750278686e-06,1.0,1.087653636932373,0.8656462585034014
996,3.081333261434338e-06,1.0,1.0878705978393555,0.8656462585034014
997,3.069625790885766e-06,1.0,1.088383674621582,0.8656462585034014
998,3.0589819743909175e-06,1.0,1.0886824131011963,0.8656462585034014
999,3.0472740490949946e-06,1.0,1.0888792276382446,0.8656462585034014
