,loss,recall,val_loss,val_recall
0,0.6818156242370605,0.3169642857142857,0.7000773549079895,0.3125
1,0.6152199506759644,0.33482142857142855,0.6363344788551331,0.3125
2,0.6130478978157043,0.44600340136054417,0.6337016224861145,0.3110119047619047
3,0.5876663327217102,0.4827380952380952,0.6244698166847229,0.49426020408163257
4,0.5708989500999451,0.6571690214547357,0.6046220064163208,0.5365884115884116
5,0.5547405481338501,0.6935504971219257,0.6172304153442383,0.6216378859236003
6,0.5436049699783325,0.7003781932353361,0.6152607202529907,0.5581097473954617
7,0.5226905941963196,0.715950715950716,0.5798441767692566,0.6407802514945372
8,0.5219513773918152,0.738120213120213,0.5890092253684998,0.6194618873190302
9,0.48969337344169617,0.7213619713619713,0.5055481791496277,0.716156462585034
10,0.41689690947532654,0.8058691308691308,0.5068991780281067,0.747339961625676
11,0.5834957957267761,0.6549002584716871,0.6443599462509155,0.6889792746935604
12,0.5113016963005066,0.7051278086992373,0.6207848191261292,0.6265068265068265
13,0.5330812931060791,0.7279470529470531,0.5996823906898499,0.627482041767756
14,0.5176836252212524,0.715950715950716,0.5864342451095581,0.6347842633556919
15,0.5161254405975342,0.7279470529470531,0.5895277261734009,0.6228664192949908
16,0.49073854088783264,0.7213619713619713,0.575726330280304,0.6478664192949907
17,0.48560938239097595,0.7337912087912087,0.576639711856842,0.6352040816326531
18,0.4686298072338104,0.7237262737262737,0.5393374562263489,0.731199752628324
19,0.44654062390327454,0.736929736929737,0.5035023093223572,0.7177687391973107
20,0.4167511761188507,0.7337912087912087,0.46460363268852234,0.7815192743764172
21,0.37698960304260254,0.8250249750249748,0.42295876145362854,0.8049363335077621
22,0.3401278853416443,0.8538592360020932,0.41559767723083496,0.8237571951857666
23,0.3528389036655426,0.8501744287458574,0.45986905694007874,0.8096578025149453
24,0.3778758943080902,0.8205207490921778,0.5479687452316284,0.7568389943389944
25,0.3620274066925049,0.7862803862803862,0.5352526903152466,0.7521105878248735
26,0.3647397458553314,0.8326007326007325,0.49427086114883423,0.7564308707165849
27,0.34701162576675415,0.8458874458874458,0.4513934254646301,0.8180882609454038
28,0.46440109610557556,0.7671923314780458,0.6093587279319763,0.5374574829931973
29,0.5426529049873352,0.40982142857142856,0.8032801747322083,0.3125
30,0.6178827285766602,0.642914823271966,0.5581847429275513,0.7566828013256586
31,0.4580206871032715,0.8432178932178932,0.5396554470062256,0.7155217798074941
32,0.4666579067707062,0.6988919810348381,0.5718737840652466,0.7028344671201815
33,0.4961148798465729,0.6792998667998668,0.5121512413024902,0.7898569684283968
34,0.38228532671928406,0.8439909297052154,0.5417855978012085,0.7412458573172859
35,0.39926764369010925,0.8023783755926612,0.560903012752533,0.7015633176347462
36,0.40117889642715454,0.8087912087912087,0.4807361662387848,0.7899986917844061
37,0.34644439816474915,0.8273242630385488,0.5611034035682678,0.6977671138385425
38,0.3589327931404114,0.8403929403929403,0.5087186694145203,0.7277014652014653
39,0.3397981822490692,0.801822780394209,0.5004719495773315,0.7437290883719455
40,0.32776913046836853,0.8029452690166974,0.4632098078727722,0.7827380952380951
41,0.3279436528682709,0.7937728937728937,0.6390891671180725,0.63718820861678
42,0.4432351291179657,0.6995456924028353,0.5692304968833923,0.7181861789004647
43,0.4706200659275055,0.7573801198801198,0.8111270070075989,0.5783549783549784
44,0.6797323822975159,0.692002442002442,0.6391803622245789,0.7603729603729603
45,0.5891502499580383,0.619476059654631,0.7042297124862671,0.3125
46,0.5655346512794495,0.4845238095238095,0.6248677968978882,0.4601190476190476
47,0.5418914556503296,0.6546376242804814,0.6091200709342957,0.6080518687661546
48,0.5489876866340637,0.713003663003663,0.6130585074424744,0.5122906855049713
49,0.5327450633049011,0.7266810570381999,0.6171749830245972,0.5122906855049713
50,0.5214060544967651,0.7225393653965082,0.6004275679588318,0.5681818181818182
51,0.5230547189712524,0.7132201132201131,0.6012142300605774,0.5428024356595785
52,0.5177024006843567,0.741426430712145,0.6051449775695801,0.5518933447504876
53,0.5117532014846802,0.7132201132201131,0.5994853377342224,0.6079515722372866
54,0.5115053653717041,0.7207958707958708,0.6001081466674805,0.6079515722372866
55,0.5088887810707092,0.7207958707958708,0.6018159985542297,0.6079515722372866
56,0.5061637759208679,0.7207958707958708,0.6000946164131165,0.6128300271157414
57,0.5055528283119202,0.7292374292374293,0.6011285781860352,0.6128300271157414
58,0.5036494135856628,0.7292374292374293,0.6015366315841675,0.6128300271157414
59,0.5022512674331665,0.7292374292374293,0.601195752620697,0.6128300271157414
60,0.5012591481208801,0.7292374292374293,0.6018316149711609,0.6128300271157414
61,0.4998314678668976,0.7292374292374293,0.6018004417419434,0.6128300271157414
62,0.49884408712387085,0.7292374292374293,0.6019250154495239,0.6128300271157414
63,0.497830867767334,0.7292374292374293,0.6022064089775085,0.6128300271157414
64,0.49685123562812805,0.7292374292374293,0.6022676229476929,0.6128300271157414
65,0.4960472285747528,0.7292374292374293,0.602505087852478,0.6128300271157414
66,0.49519845843315125,0.7292374292374293,0.6026677489280701,0.6128300271157414
67,0.4944193661212921,0.7372873158587446,0.6028109192848206,0.6234876234876234
68,0.49364566802978516,0.7372873158587446,0.6029735803604126,0.6234876234876234
69,0.49286141991615295,0.7372873158587446,0.603070855140686,0.6234876234876234
70,0.4920980632305145,0.7372873158587446,0.6031726002693176,0.6234876234876234
71,0.4913220703601837,0.7372873158587446,0.6032460927963257,0.6234876234876234
72,0.49055442214012146,0.7372873158587446,0.6033064126968384,0.6234876234876234
73,0.4897863566875458,0.7372873158587446,0.6033676862716675,0.6234876234876234
74,0.48901471495628357,0.7423239458953744,0.6034220457077026,0.6234876234876234
75,0.48824167251586914,0.7423239458953744,0.6034848093986511,0.6234876234876234
76,0.48745864629745483,0.7423239458953744,0.6035518646240234,0.6234876234876234
77,0.48666542768478394,0.7423239458953744,0.6036271452903748,0.6234876234876234
78,0.4858567416667938,0.7423239458953744,0.603712260723114,0.6234876234876234
79,0.4850289821624756,0.7423239458953744,0.6038065552711487,0.6234876234876234
80,0.4841780662536621,0.7423239458953744,0.6039131879806519,0.6234876234876234
81,0.48329809308052063,0.7423239458953744,0.6040329337120056,0.6234876234876234
82,0.4823835790157318,0.7423239458953744,0.6041693687438965,0.6234876234876234
83,0.4814261794090271,0.7423239458953744,0.6043264269828796,0.6234876234876234
84,0.48041659593582153,0.7423239458953744,0.6045107245445251,0.6234876234876234
85,0.47934284806251526,0.7423239458953744,0.6047313809394836,0.6234876234876234
86,0.4781899154186249,0.7423239458953744,0.6050011515617371,0.6234876234876234
87,0.47693875432014465,0.7473605759320046,0.6053400635719299,0.6234876234876234
88,0.47556427121162415,0.7555856841571126,0.6057766675949097,0.6234876234876234
89,0.4740336835384369,0.7555856841571126,0.606354832649231,0.6234876234876234
90,0.4723029136657715,0.7555856841571126,0.607142448425293,0.6234876234876234
91,0.47031232714653015,0.7555856841571126,0.6082478761672974,0.6135309135309136
92,0.46798092126846313,0.7555856841571126,0.6098522543907166,0.6135309135309136
93,0.465200275182724,0.7477934763649051,0.6122710108757019,0.6135309135309136
94,0.4618334174156189,0.7477934763649051,0.6160891652107239,0.5949728842585985
95,0.4577476382255554,0.7477934763649051,0.6224837899208069,0.5949728842585985
96,0.4530668556690216,0.7539373325087612,0.6340734362602234,0.5949728842585985
97,0.44905585050582886,0.749824778396207,0.6540430784225464,0.593341182626897
98,0.44635209441185,0.741067266067266,0.6704968214035034,0.6141636141636143
99,0.44242891669273376,0.741067266067266,0.6729444861412048,0.6141636141636143
100,0.44233813881874084,0.7486430236430236,0.6795138120651245,0.6141636141636143
101,0.4518875479698181,0.7482683982683982,0.6803259253501892,0.5824413681556538
102,0.42794904112815857,0.75769191126334,0.6665021181106567,0.6076867576867577
103,0.4673542082309723,0.7128890950319521,0.6794897317886353,0.6071456321456322
104,0.44312795996665955,0.7579670329670328,0.6551370024681091,0.601449740735455
105,0.4587060809135437,0.7432178932178931,0.6480267643928528,0.6754862201290772
106,0.4846687316894531,0.722870780013637,0.6591686010360718,0.5416250416250417
107,0.45369386672973633,0.7593319379033664,0.6331696510314941,0.6208386851243995
108,0.44368860125541687,0.7510152545866831,0.6460028886795044,0.6331763474620618
109,0.43546995520591736,0.736088911088911,0.6769911646842957,0.5761643118785976
110,0.4392866790294647,0.736113886113886,0.7005483508110046,0.5839699982557125
111,0.42806145548820496,0.7505490541204828,0.6788755059242249,0.5828754578754579
112,0.44738051295280457,0.7549242424242424,0.6668718457221985,0.69968820861678
113,0.4906574785709381,0.7100641422069993,0.63718181848526,0.6064209599923887
114,0.45308923721313477,0.7593319379033664,0.6107556223869324,0.6120724513581656
115,0.4473159611225128,0.7413832199546485,0.6103878617286682,0.6120724513581656
116,0.4365990161895752,0.7603475889190177,0.6388791799545288,0.593341182626897
117,0.4247509837150574,0.7566929102643388,0.6718296408653259,0.6070774463631607
118,0.41285941004753113,0.7536796536796535,0.7129634022712708,0.5474228152799582
119,0.4029884338378906,0.8387275422989707,0.7119789719581604,0.5629469736612595
120,0.41655710339546204,0.8509070294784579,0.7021874189376831,0.5627527234670092
121,0.3928416073322296,0.8300362336076621,0.7227354049682617,0.5629469736612595
122,0.4033084511756897,0.770324913182056,0.7315770983695984,0.5528737135879993
123,0.5043205618858337,0.7936507936507936,0.6731740236282349,0.6902625152625153
124,0.4565329849720001,0.7094845630559917,0.6274757385253906,0.5972242043670616
125,0.4292662441730499,0.7793952079666366,0.6054829359054565,0.691020091020091
126,0.41436511278152466,0.765934065934066,0.6180917024612427,0.6957819957819958
127,0.40974321961402893,0.7195578231292517,0.5580100417137146,0.7092019092019093
128,0.376753568649292,0.7501623376623375,0.5187589526176453,0.7583900226757371
129,0.4073321521282196,0.7505359719645434,0.4674277603626251,0.7928254285397143
130,0.4673386514186859,0.8205905205905207,0.6551135182380676,0.6561739847454132
131,0.3897310793399811,0.7476190476190476,0.586352527141571,0.7265821480107194
132,0.38562801480293274,0.738384829456258,0.5834298133850098,0.6976701869559012
133,0.34334421157836914,0.8389277389277391,0.558404266834259,0.7242313242313243
134,0.4338240623474121,0.8173160173160173,0.5347738265991211,0.7669227597799028
135,0.36278313398361206,0.8137445887445888,0.553801417350769,0.6526437847866421
136,0.49986782670021057,0.7543214721786151,0.5808534026145935,0.7828790257361685
137,0.5932421684265137,0.6443877551020408,0.9021005034446716,0.3144438894438894
138,0.6013465523719788,0.5719322344322345,0.5767508149147034,0.708843537414966
139,0.48954010009765625,0.7035321821036106,0.5752407908439636,0.743110064538636
140,0.42534705996513367,0.8071036106750392,0.5409845113754272,0.8232600732600733
141,0.4000956118106842,0.8280743066457352,0.4904195964336395,0.810574346288632
142,0.3561129868030548,0.8469946719946719,0.4782284200191498,0.7714579071721929
143,0.3541221022605896,0.8120791906506192,0.47001340985298157,0.7891733266733267
144,0.385444700717926,0.8035964035964035,0.49605560302734375,0.8105949605949607
145,0.3258727490901947,0.8659340659340661,0.5043858885765076,0.7492356849499707
146,0.31010621786117554,0.8296219653362512,0.5527028441429138,0.7044242463885321
147,0.4220163822174072,0.7863576899291186,0.5007102489471436,0.8150476507619366
148,0.4119248390197754,0.799960753532182,0.5320789813995361,0.7933193790336647
149,0.34953731298446655,0.7973443223443223,0.5110517144203186,0.7628488574917146
150,0.49047228693962097,0.688688295831153,0.6520184874534607,0.59421768707483
151,0.48439422249794006,0.6226731601731601,0.8319543600082397,0.49217687074829936
152,0.7140097618103027,0.5121134817563389,0.6599834561347961,0.5999433106575963
153,0.47463157773017883,0.7049242424242425,0.584176242351532,0.7286142428999572
154,0.4378161132335663,0.7544479330193615,0.5896734595298767,0.659558695272981
155,0.37703901529312134,0.8568594104308389,0.4994955360889435,0.7865079365079365
156,0.3554251492023468,0.84991674991675,0.48190778493881226,0.8048229548229547
157,0.32311129570007324,0.8706959706959706,0.474133163690567,0.8155939298796442
158,0.32432982325553894,0.840934065934066,0.4715833365917206,0.833136704565276
159,0.31632956862449646,0.829137529137529,0.47179919481277466,0.833136704565276
160,0.30257871747016907,0.8397435897435896,0.46997758746147156,0.8257670900528044
161,0.2908930778503418,0.8624708624708626,0.4684605896472931,0.8155939298796442
162,0.28507447242736816,0.865758844330273,0.46673497557640076,0.8155939298796442
163,0.2877430021762848,0.8567761603475891,0.4627297818660736,0.8155939298796442
164,0.28917232155799866,0.8567761603475891,0.4618435502052307,0.8155939298796442
165,0.2744975984096527,0.8392547928262214,0.4689491093158722,0.8155939298796442
166,0.25580522418022156,0.8482374768089054,0.4808029234409332,0.8062865705722849
167,0.249233677983284,0.8547309833024119,0.508788526058197,0.801864801864802
168,0.24488402903079987,0.8547309833024119,0.5079448819160461,0.8062865705722849
169,0.28609973192214966,0.848886827458256,0.6481309533119202,0.7088847660276232
170,0.35390976071357727,0.8109410430839002,0.5213020443916321,0.8325341325341327
171,0.2922738492488861,0.8273809523809524,0.5047106146812439,0.8153279260422118
172,0.3347947597503662,0.8686809222523507,0.5187864899635315,0.8159340659340659
173,0.4039490818977356,0.8213976499690785,0.5462297201156616,0.7069180819180819
174,0.34947672486305237,0.8234642341785199,0.5016045570373535,0.8365812758669903
175,0.25599512457847595,0.8955473098330241,0.5425406098365784,0.7910105767248625
176,0.23993179202079773,0.9047876726448155,0.5047386288642883,0.8204660418946134
177,0.23585306107997894,0.8749690785405072,0.5163461565971375,0.8095848595848596
178,0.2077523171901703,0.8975357975357975,0.5310750603675842,0.8051630908773767
179,0.1989073008298874,0.8975357975357975,0.5306506752967834,0.8226440226440227
180,0.2038145512342453,0.8690166975881262,0.5401886105537415,0.8451548451548453
181,0.1915883868932724,0.8761595547309833,0.548075258731842,0.8343838700981558
182,0.18112370371818542,0.9046786546786546,0.548265814781189,0.8451548451548453
183,0.17955191433429718,0.8880643166357451,0.5566815733909607,0.8312041133469705
184,0.1789085566997528,0.8880643166357451,0.5580161213874817,0.8312041133469705
185,0.16814136505126953,0.933982683982684,0.5553672909736633,0.8337912087912089
186,0.15461137890815735,0.933982683982684,0.5583769083023071,0.8337912087912089
187,0.15003107488155365,0.933982683982684,0.5724678039550781,0.8197322518751091
188,0.14972619712352753,0.9577922077922079,0.5901166200637817,0.8104248925677499
189,0.15766587853431702,0.9518398268398268,0.6062408685684204,0.7622337979480838
190,0.15968339145183563,0.9403929403929404,0.6428304314613342,0.7610330146044433
191,0.18426676094532013,0.9403929403929404,0.6119402647018433,0.7439187796330654
192,0.15596546232700348,0.9316017316017317,0.5951439142227173,0.7906926406926408
193,0.13934051990509033,0.9506493506493506,0.6661668419837952,0.7344512630226916
194,0.17362351715564728,0.9220041862899006,0.7026872038841248,0.7624066409780695
195,0.1498851478099823,0.9403929403929404,0.706630289554596,0.7439187796330654
196,0.15930481255054474,0.9171786546786548,0.6432138085365295,0.8232600732600733
197,0.13327042758464813,0.9577922077922078,0.5956870913505554,0.7778911564625851
198,0.13939638435840607,0.9771062271062271,0.7071496844291687,0.783982683982684
199,0.12511204183101654,0.9125541125541126,0.7331041693687439,0.7532158317872605
200,0.11914309114217758,0.9816017316017316,0.6573464274406433,0.7625231910946197
201,0.12822416424751282,0.9518939393939394,0.6523911356925964,0.8042124542124542
202,0.10198738425970078,0.9875541125541126,0.7024624943733215,0.7492364778079065
203,0.11975889652967453,0.9816017316017316,0.7673667073249817,0.7237786023500309
204,0.09545327723026276,0.9935064935064936,0.6763778924942017,0.7128205128205128
205,0.10177814960479736,0.980952380952381,0.710586428642273,0.7880746237889095
206,0.0734143778681755,0.9887445887445887,0.7229834794998169,0.7647685647685648
207,0.0831795483827591,0.9935064935064936,0.7370344400405884,0.7988011988011988
208,0.057558316737413406,0.9935064935064936,0.6925402283668518,0.7654163297020441
209,0.07038699090480804,0.9845779220779222,0.7179328203201294,0.8018108875251733
210,0.0490439347922802,0.9952380952380953,0.7348574995994568,0.7949383949383949
211,0.06711618602275848,0.9887445887445887,0.7819728255271912,0.7492364778079065
212,0.05423800274729729,0.9887445887445887,0.7781005501747131,0.7393630179344466
213,0.059094689786434174,0.9935064935064936,0.7686401605606079,0.7393630179344466
214,0.046025872230529785,0.9887445887445887,0.7562284469604492,0.8100359957502815
215,0.06199357286095619,0.9910714285714286,0.7851014733314514,0.7927699284842141
216,0.05608941242098808,1.0,0.7530499696731567,0.8086746586746587
217,0.07107211649417877,0.9720779220779221,0.8127521276473999,0.7393630179344466
218,0.07259790599346161,0.9526901669758813,0.7793084979057312,0.7481645338788196
219,0.10841415822505951,0.9720238095238096,0.8112749457359314,0.7985847485847487
220,0.13299241662025452,0.8992673992673993,0.8816810250282288,0.7206001339929912
221,0.3415403962135315,0.8653009688723973,0.814468502998352,0.758130758130758
222,0.718230128288269,0.7050917336631622,0.593949019908905,0.7499974232117089
223,0.3646213710308075,0.8122165532879818,0.5743244886398315,0.7746134817563389
224,0.29029354453086853,0.9058608058608059,0.5720986723899841,0.835914085914086
225,0.3076922595500946,0.8586770372484658,0.5659802556037903,0.8492340992340993
226,0.2109525501728058,0.8907854050711194,0.5860215425491333,0.7985538271252557
227,0.24052183330059052,0.9152014652014652,0.5271596312522888,0.814080760509332
228,0.2179972231388092,0.8604395604395604,0.5506521463394165,0.8104823747680892
229,0.18315574526786804,0.9131493506493505,0.5591519474983215,0.8159340659340659
230,0.16440705955028534,0.9140651015651015,0.5957762002944946,0.7548641834356121
231,0.12242169678211212,0.9768398268398268,0.6147460341453552,0.7851648351648353
232,0.11479241400957108,0.9690476190476192,0.6515421867370605,0.8042124542124542
233,0.11407800018787384,0.9468031968031968,0.655485212802887,0.8034798534798535
234,0.07645224034786224,0.9935064935064936,0.6851335763931274,0.735816564387993
235,0.06772512942552567,0.9935064935064936,0.6865326166152954,0.7585723800009515
236,0.070375457406044,0.9816017316017316,0.7034796476364136,0.7883909741052598
237,0.05248463898897171,1.0,0.7008782029151917,0.735816564387993
238,0.05214647203683853,0.9935064935064936,0.7322630882263184,0.7949669378240808
239,0.042303893715143204,1.0,0.7230576872825623,0.7746547103689959
240,0.03717309981584549,1.0,0.7288538813591003,0.7883909741052598
241,0.03343318775296211,1.0,0.7788203358650208,0.7508451865594721
242,0.031157197430729866,1.0,0.7956905961036682,0.7508451865594721
243,0.02849746122956276,1.0,0.8342642188072205,0.7393939393939393
244,0.02662574127316475,1.0,0.8448758125305176,0.7393939393939393
245,0.02500907890498638,1.0,0.8693884611129761,0.7393939393939393
246,0.023432208225131035,1.0,0.8889390230178833,0.7393939393939393
247,0.022375386208295822,1.0,0.8963231444358826,0.7393939393939393
248,0.020973552018404007,1.0,0.9093369245529175,0.7393939393939393
249,0.020347800105810165,1.0,0.9122050404548645,0.7393939393939393
250,0.01911071501672268,1.0,0.9204513430595398,0.7393939393939393
251,0.018810536712408066,1.0,0.9235780835151672,0.7393939393939393
252,0.01767324097454548,1.0,0.923937976360321,0.7393939393939393
253,0.017613666132092476,1.0,0.930948793888092,0.7393939393939393
254,0.01656121015548706,1.0,0.9265127778053284,0.70299938157081
255,0.016725244000554085,1.0,0.9380161166191101,0.7393939393939393
256,0.015690386295318604,1.0,0.9296615719795227,0.70299938157081
257,0.016139859333634377,1.0,0.9431969523429871,0.7278705421562564
258,0.015082553029060364,1.0,0.9320975542068481,0.70299938157081
259,0.015858447179198265,1.0,0.9415473937988281,0.7278705421562564
260,0.014715987257659435,1.0,0.9328418970108032,0.70299938157081
261,0.015502735041081905,1.0,0.934794008731842,0.7278705421562564
262,0.014296709559857845,1.0,0.9373936057090759,0.70299938157081
263,0.01508477795869112,1.0,0.9300023913383484,0.7642650999793856
264,0.01391222607344389,1.0,0.9365038275718689,0.7144506287363429
265,0.014693641103804111,1.0,0.9390923380851746,0.7528138528138528
266,0.014001895673573017,1.0,0.9252690672874451,0.7144506287363429
267,0.014653482474386692,1.0,0.9415283799171448,0.7528138528138528
268,0.013232813216745853,1.0,0.9226743578910828,0.733495869210155
269,0.013471405021846294,1.0,0.9325822591781616,0.7278705421562564
270,0.010863328352570534,1.0,1.0346518754959106,0.7533260390403248
271,0.017944669350981712,1.0,0.9661160111427307,0.7220470006184291
272,0.01758645288646221,1.0,0.8717232346534729,0.7618215118215118
273,0.019596654921770096,1.0,0.9595438241958618,0.7780013637156494
274,0.012765529565513134,1.0,0.9448834657669067,0.7151808508951366
275,0.00975195411592722,1.0,1.0113141536712646,0.7281868924726067
276,0.014057557098567486,1.0,1.0282562971115112,0.710485347985348
277,0.033234961330890656,0.9778911564625851,1.1507117748260498,0.7441165976880263
278,0.7177859544754028,0.8383116883116883,1.1637850999832153,0.6932749789892646
279,0.8656163215637207,0.6258142650999794,0.7491583228111267,0.7128375592661307
280,0.6647124290466309,0.7303571428571428,0.8141385912895203,0.6654864976293549
281,0.7120218276977539,0.6458616780045352,0.7047235369682312,0.7088530517101946
282,0.5574192404747009,0.6559515880944452,0.7060822248458862,0.6156593406593406
283,0.6543492078781128,0.6461966604823747,0.6861824989318848,0.6926347462061748
284,0.5652656555175781,0.703442589156875,0.6438273787498474,0.5246336996336997
285,0.5091962814331055,0.84850863422292,0.7314214706420898,0.6122448979591837
286,0.5057759284973145,0.8158250479679051,0.7033503651618958,0.6792517006802721
287,0.5552693009376526,0.7020039484325198,0.5821861624717712,0.7545739974311403
288,0.5300567746162415,0.7263212977498691,0.6776078343391418,0.7451453308596167
289,0.552568793296814,0.7125790875790876,0.5949316620826721,0.5479901051329622
290,0.5944036841392517,0.6487219130076272,0.6708637475967407,0.5110151753008896
291,0.5479227304458618,0.6806503020788733,0.5915269255638123,0.6412436769579627
292,0.5345795154571533,0.7271716378859236,0.583835780620575,0.6560058988630416
293,0.5936356782913208,0.6892660910518054,0.6606683135032654,0.6086116264687693
294,0.5320114493370056,0.6383600526457668,0.5967980623245239,0.6195673374244802
295,0.5253905057907104,0.7245587745587746,0.6855689287185669,0.608843537414966
296,0.5116042494773865,0.7256410256410257,0.5943157076835632,0.6308956916099773
297,0.46875065565109253,0.7344322344322345,0.6301604509353638,0.5222111222111222
298,0.4723156988620758,0.7366300366300366,0.5730589032173157,0.6339854589854589
299,0.544614315032959,0.7107971393685679,0.6677467226982117,0.6890306122448979
300,0.523315966129303,0.7106946624803767,0.6691235899925232,0.5632946418660705
301,0.5207511186599731,0.6585858585858587,0.7863506078720093,0.6463821892393321
302,0.6121224761009216,0.6385618349904065,0.5903704762458801,0.6896199039056182
303,0.5451539754867554,0.7055539698396841,0.6460979580879211,0.594070215498787
304,0.4808609187602997,0.7550877693734838,0.5757001638412476,0.7557549593263879
305,0.5437867045402527,0.670091218305504,0.5734182596206665,0.7429344465058751
306,0.5040796399116516,0.6919733044733044,0.5915223360061646,0.7218460111317254
307,0.4942633807659149,0.761695447409733,0.573247492313385,0.7746198246198245
308,0.49232855439186096,0.7153707403707402,0.5572931170463562,0.7500860250860252
309,0.4534370005130768,0.7623138765995909,0.5991202592849731,0.6942589156874872
310,0.5163490176200867,0.7207126207126207,0.5811716318130493,0.749340342197485
311,0.5597028136253357,0.6820966731681016,0.5615225434303284,0.7659384266527125
312,0.4600664973258972,0.7819026211883354,0.6349673867225647,0.6196918161203876
313,0.473222553730011,0.7512820512820512,0.5812888145446777,0.7232196375053518
314,0.47083139419555664,0.7512820512820512,0.5808606743812561,0.7422069993498565
315,0.5108805894851685,0.6964709893281321,0.5542387366294861,0.7841836734693878
316,0.4962931275367737,0.7064875600589886,0.5688796639442444,0.7030251494537209
317,0.4846469461917877,0.7548076923076924,0.5771647095680237,0.6991754277468561
318,0.49580100178718567,0.7056459413602271,0.63325434923172,0.7108843537414966
319,0.5333238244056702,0.6673229548229548,0.5650165677070618,0.7323216466073609
320,0.4670282304286957,0.7690650619222047,0.5535358190536499,0.7115337043908472
321,0.49989214539527893,0.7422422815279959,0.537326455116272,0.7671201814058958
322,0.48127126693725586,0.7075337361051647,0.5346931219100952,0.7723922902494331
323,0.4537837505340576,0.7193302729017015,0.5362845659255981,0.7643467643467643
324,0.47264179587364197,0.7019317983603698,0.5285983681678772,0.767943167943168
325,0.425567090511322,0.8618672993672992,0.6442791223526001,0.6970933828076685
326,0.6309155225753784,0.6409013605442176,0.6758622527122498,0.5257290328718901
327,0.5463923215866089,0.7741336044907473,0.6408265233039856,0.7054421768707483
328,0.6949433088302612,0.6309948979591836,0.9655910730361938,0.46084183673469387
329,0.613490641117096,0.6706436420722134,0.5360656976699829,0.7201496915782631
330,0.49690747261047363,0.701638837353123,0.5128256678581238,0.7776850133992992
331,0.5549312233924866,0.7456454260025689,0.6868239641189575,0.5395538984824698
332,0.4709046185016632,0.7287633001918715,0.5805321931838989,0.7358843537414964
333,0.47176867723464966,0.7079408686551544,0.5710544586181641,0.7172619047619048
334,0.43278026580810547,0.7066362209219352,0.7228153944015503,0.6843769325912182
335,0.5377295613288879,0.640391156462585,0.7844096422195435,0.5542517006802721
336,0.534238874912262,0.6670870795870796,0.7575370073318481,0.5496289424860853
337,0.641099750995636,0.675965700965701,0.6150949597358704,0.6860750360750361
338,0.5073375701904297,0.6910672660672661,0.630553662776947,0.6130068344354059
339,0.44637638330459595,0.8424783549783549,0.6214703321456909,0.7317151102865388
340,0.5627116560935974,0.7703241203241202,0.6037637591362,0.7608320251177393
341,0.6126176714897156,0.6637755102040817,0.6522950530052185,0.7156462585034014
342,0.5383284687995911,0.6988249845392701,0.6571651101112366,0.5550330621759194
343,0.6018276214599609,0.7294562580276865,0.8023056983947754,0.5292517006802722
344,0.560503363609314,0.6251111983254839,0.6400808095932007,0.5813686313686314
345,0.5227832198143005,0.7310064935064935,0.6161799430847168,0.5802851909994766
346,0.5020751953125,0.7264648050362336,0.5993257761001587,0.6989839525553811
347,0.500332236289978,0.7292748917748917,0.5861415266990662,0.728932178932179
348,0.48836827278137207,0.7547381190238334,0.5858011841773987,0.7523088023088024
349,0.5241745114326477,0.6976396619253763,0.6357693076133728,0.6021922521922523
350,0.517260730266571,0.7457471100328243,0.6736593842506409,0.5518933447504876
351,0.46283677220344543,0.7288457574171859,0.5699045062065125,0.7336940836940836
352,0.4201045334339142,0.8138736263736263,0.5731332898139954,0.7517006802721088
353,0.4948522746562958,0.7500327053898482,0.5576814413070679,0.7600907029478458
354,0.4858160614967346,0.7498033712319427,0.5591962337493896,0.7729112157683586
355,0.4696774482727051,0.7574822003393431,0.5523216724395752,0.7839002267573696
356,0.3961005210876465,0.8520770895770895,0.5532302260398865,0.7600907029478458
357,0.39401453733444214,0.8564560439560439,0.5544996857643127,0.7505189255189256
358,0.38367608189582825,0.8521389324960753,0.5508913397789001,0.7561878597592884
359,0.3771796226501465,0.8521389324960753,0.5502761006355286,0.7600907029478458
360,0.3746197819709778,0.8571755625327053,0.5519885420799255,0.7600907029478458
361,0.3722613751888275,0.8521389324960753,0.5539075136184692,0.7491016919588348
362,0.3699464201927185,0.8521389324960753,0.5558947324752808,0.7491016919588348
363,0.36869874596595764,0.8521389324960753,0.5561226010322571,0.7491016919588348
364,0.3685038387775421,0.8521389324960753,0.5565618872642517,0.7491016919588348
365,0.3667656481266022,0.8521389324960753,0.5569364428520203,0.7561878597592884
366,0.36849308013916016,0.8521389324960753,0.5573216080665588,0.7561878597592884
367,0.3679957091808319,0.8521389324960753,0.5468987226486206,0.7625319125319125
368,0.3671049177646637,0.8521389324960753,0.5468860268592834,0.7625319125319125
369,0.36583665013313293,0.8521389324960753,0.5467139482498169,0.7625319125319125
370,0.3647463321685791,0.8521389324960753,0.54657381772995,0.7625319125319125
371,0.3637010157108307,0.8521389324960753,0.5464774966239929,0.7625319125319125
372,0.36267852783203125,0.8521389324960753,0.546355664730072,0.7625319125319125
373,0.36173170804977417,0.8521389324960753,0.54620760679245,0.7625319125319125
374,0.36086511611938477,0.8521389324960753,0.5460820198059082,0.7625319125319125
375,0.3600448966026306,0.8521389324960753,0.5459953546524048,0.7625319125319125
376,0.359255313873291,0.8521389324960753,0.5459340214729309,0.7625319125319125
377,0.3585021197795868,0.8521389324960753,0.5458897948265076,0.7625319125319125
378,0.3577858805656433,0.8521389324960753,0.5458658337593079,0.7625319125319125
379,0.35709792375564575,0.8521389324960753,0.5458621978759766,0.7625319125319125
380,0.35643270611763,0.8521389324960753,0.545874297618866,0.7625319125319125
381,0.3557891249656677,0.8521389324960753,0.5459120869636536,0.7625319125319125
382,0.3551734983921051,0.8521389324960753,0.5459722280502319,0.7625319125319125
383,0.35456839203834534,0.8521389324960753,0.5460311770439148,0.7625319125319125
384,0.3539741337299347,0.8564560439560439,0.5460872054100037,0.7625319125319125
385,0.35339826345443726,0.8564560439560439,0.5461404919624329,0.7625319125319125
386,0.35283324122428894,0.8564560439560439,0.5461941957473755,0.7625319125319125
387,0.3522796332836151,0.8564560439560439,0.5462512969970703,0.7625319125319125
388,0.3517332673072815,0.8564560439560439,0.546310305595398,0.7625319125319125
389,0.3511958122253418,0.8564560439560439,0.5463720560073853,0.7625319125319125
390,0.3506650924682617,0.8564560439560439,0.5590124130249023,0.7541418898561757
391,0.3501409590244293,0.8564560439560439,0.5590546131134033,0.7541418898561757
392,0.34962180256843567,0.8564560439560439,0.5590786337852478,0.7541418898561757
393,0.3491082787513733,0.8564560439560439,0.5591025352478027,0.7541418898561757
394,0.3485989570617676,0.8564560439560439,0.5591284036636353,0.7541418898561757
395,0.3480949103832245,0.8564560439560439,0.5591540932655334,0.7541418898561757
396,0.34759360551834106,0.8564560439560439,0.5591828227043152,0.7541418898561757
397,0.34709781408309937,0.8564560439560439,0.5592095851898193,0.7541418898561757
398,0.34660300612449646,0.8564560439560439,0.5592421293258667,0.7541418898561757
399,0.3461155891418457,0.8564560439560439,0.559268593788147,0.7541418898561757
400,0.3456253111362457,0.8564560439560439,0.5593233108520508,0.7541418898561757
401,0.34514713287353516,0.8564560439560439,0.5593498945236206,0.7541418898561757
402,0.34465956687927246,0.8564560439560439,0.559381902217865,0.7541418898561757
403,0.34418871998786926,0.8564560439560439,0.5594083070755005,0.7541418898561757
404,0.34370627999305725,0.8618672993672992,0.5594438910484314,0.7541418898561757
405,0.3441023826599121,0.8618672993672992,0.5597129464149475,0.7541418898561757
406,0.3435780107975006,0.8618672993672992,0.5597909688949585,0.7541418898561757
407,0.3430771231651306,0.8618672993672992,0.559751033782959,0.7541418898561757
408,0.45224612951278687,0.7329170829170828,0.9159194827079773,0.5121779014636157
409,0.7595461010932922,0.6138888888888888,0.8179987072944641,0.5054487179487179
410,0.7233392000198364,0.6718438307724022,0.6978484392166138,0.6720291613148756
411,0.4844140410423279,0.7734693877551021,0.7048060297966003,0.6914965986394558
412,0.5411309599876404,0.6795351473922902,0.6580469012260437,0.5381582703011275
413,0.5010359287261963,0.7288457574171859,0.6324750781059265,0.6021922521922523
414,0.5228859782218933,0.7054612054612054,0.7013736367225647,0.5708101422387136
415,0.5046750903129578,0.7702511773940345,0.59181147813797,0.6207253064395922
416,0.4884719252586365,0.7425685425685427,0.6279982924461365,0.706369820655535
417,0.4855976998806,0.7209389816532674,0.5974008440971375,0.7104308390022676
418,0.5043284296989441,0.7098417455560312,0.6629225611686707,0.5738713667285096
419,0.5171534419059753,0.7485609628466773,0.614758312702179,0.5287260358688931
420,0.47236067056655884,0.7433608058608059,0.6242238283157349,0.7200371057513913
421,0.4735496938228607,0.728180747823605,0.6835337281227112,0.6811870669013526
422,0.49425962567329407,0.7092490842490842,0.6384668946266174,0.589280560709132
423,0.5420307517051697,0.7122797837083551,0.738441526889801,0.498321916179059
424,0.5337768793106079,0.6529327815042102,0.6218249201774597,0.7465986394557822
425,0.516203761100769,0.6797876726448154,0.643615186214447,0.5961038961038961
426,0.5219022631645203,0.6687009419152277,0.6432508826255798,0.5122544122544123
427,0.49371030926704407,0.7489970347113203,0.6167278289794922,0.6949229342086485
428,0.4594082832336426,0.6966141001855287,0.6367260217666626,0.6982014017728303
429,0.5339665412902832,0.7053632875061446,0.6426869034767151,0.6137755102040817
430,0.5164976119995117,0.7194593105307391,0.6747244596481323,0.5965233179518894
431,0.536622941493988,0.720127491556063,0.6318153738975525,0.6933312719027004
432,0.5374563336372375,0.7478933764648052,0.5900651216506958,0.6943921158206872
433,0.47504088282585144,0.6939164010592582,0.5757933259010315,0.6207253064395922
434,0.4699845612049103,0.7688383045525903,0.6534038186073303,0.6789373325087611
435,0.5898024439811707,0.6462585034013605,0.6348739266395569,0.7065442494013923
436,0.5142089128494263,0.7339347160775731,0.6445752382278442,0.5452238237952524
437,0.5698577165603638,0.6897061272061272,0.6238847374916077,0.7286281179138322
438,0.524514377117157,0.6992923742923743,0.6365857124328613,0.632613814756672
439,0.530596911907196,0.6990878169449598,0.6655612587928772,0.7201814058956916
440,0.5360175967216492,0.7042887667887667,0.7017432451248169,0.4655612244897959
441,0.510439932346344,0.6725143903715332,0.6017916798591614,0.5996618460904176
442,0.5104963183403015,0.7259698634698635,0.6051667928695679,0.6949229342086485
443,0.5085179209709167,0.7400262435976721,0.6042856574058533,0.5908956123241839
444,0.49357369542121887,0.7485427271141558,0.6181526780128479,0.6139039531896675
445,0.4851313531398773,0.7584161869876157,0.6124197840690613,0.6150976008118866
446,0.48197540640830994,0.7421324707038993,0.6124967336654663,0.6263942406799551
447,0.4821941554546356,0.7421324707038993,0.6174488663673401,0.6263942406799551
448,0.47944876551628113,0.7485427271141558,0.6225510835647583,0.6207253064395922
449,0.4770117402076721,0.7639106924821212,0.6235533952713013,0.6263942406799551
450,0.47607260942459106,0.7639106924821212,0.6240355372428894,0.6263942406799551
451,0.475724458694458,0.7639106924821212,0.6255459189414978,0.6263942406799551
452,0.4747363030910492,0.7639106924821212,0.6268898844718933,0.6263942406799551
453,0.473623663187027,0.7639106924821212,0.6272502541542053,0.6263942406799551
454,0.47285372018814087,0.7639106924821212,0.6273142695426941,0.6263942406799551
455,0.4722351133823395,0.7639106924821212,0.6275792121887207,0.6263942406799551
456,0.47149965167045593,0.7639106924821212,0.6278393864631653,0.6263942406799551
457,0.4707297682762146,0.7639106924821212,0.6279058456420898,0.6263942406799551
458,0.47004619240760803,0.7639106924821212,0.6279029250144958,0.6263942406799551
459,0.4694158434867859,0.7639106924821212,0.6279488801956177,0.6263942406799551
460,0.4687764644622803,0.7639106924821212,0.6280071139335632,0.6263942406799551
461,0.4681398570537567,0.7639106924821212,0.6280282139778137,0.6263942406799551
462,0.4675349295139313,0.7639106924821212,0.6280296444892883,0.6263942406799551
463,0.4669574201107025,0.7639106924821212,0.6280363202095032,0.6263942406799551
464,0.46639305353164673,0.7639106924821212,0.6280407309532166,0.6263942406799551
465,0.465843141078949,0.7639106924821212,0.6280302405357361,0.6263942406799551
466,0.4653145372867584,0.7639106924821212,0.6280064582824707,0.6263942406799551
467,0.4648068845272064,0.7639106924821212,0.6279752850532532,0.6263942406799551
468,0.46431705355644226,0.7639106924821212,0.6279363632202148,0.6263942406799551
469,0.4638447165489197,0.7639106924821212,0.6278886198997498,0.6263942406799551
470,0.4633912742137909,0.7639106924821212,0.627834141254425,0.6263942406799551
471,0.4629562795162201,0.7639106924821212,0.6277768015861511,0.6263942406799551
472,0.46253839135169983,0.7639106924821212,0.6277190446853638,0.6263942406799551
473,0.46213680505752563,0.7639106924821212,0.6276630759239197,0.6263942406799551
474,0.4617510437965393,0.7639106924821212,0.6276110410690308,0.6263942406799551
475,0.4613802134990692,0.7639106924821212,0.6275653839111328,0.6263942406799551
476,0.46102339029312134,0.7639106924821212,0.62752765417099,0.6263942406799551
477,0.46067938208580017,0.7639106924821212,0.6274989247322083,0.6263942406799551
478,0.46034756302833557,0.7639106924821212,0.6274797320365906,0.6263942406799551
479,0.46002694964408875,0.7639106924821212,0.6274705529212952,0.6263942406799551
480,0.459716796875,0.7639106924821212,0.627471387386322,0.6263942406799551
481,0.45941632986068726,0.7639106924821212,0.6274817585945129,0.6263942406799551
482,0.459124892950058,0.7639106924821212,0.6275011897087097,0.6263942406799551
483,0.45884180068969727,0.7639106924821212,0.6275291442871094,0.6263942406799551
484,0.4585666060447693,0.7639106924821212,0.6275646090507507,0.6263942406799551
485,0.4582986533641815,0.7639106924821212,0.627606987953186,0.6263942406799551
486,0.4580375552177429,0.7639106924821212,0.6276554465293884,0.6263942406799551
487,0.45778295397758484,0.7639106924821212,0.627708911895752,0.6263942406799551
488,0.45753440260887146,0.7639106924821212,0.6277665495872498,0.6263942406799551
489,0.4572916328907013,0.7639106924821212,0.6278277635574341,0.6263942406799551
490,0.4570542871952057,0.7639106924821212,0.6278915405273438,0.6263942406799551
491,0.456822007894516,0.7639106924821212,0.627957284450531,0.6263942406799551
492,0.45659464597702026,0.7639106924821212,0.628024160861969,0.6263942406799551
493,0.456371933221817,0.7639106924821212,0.6280916929244995,0.6263942406799551
494,0.45615366101264954,0.7639106924821212,0.6281591057777405,0.6263942406799551
495,0.45593971014022827,0.7639106924821212,0.628226101398468,0.6263942406799551
496,0.45572975277900696,0.7639106924821212,0.6282920241355896,0.6207253064395922
497,0.4555237293243408,0.7639106924821212,0.6283565163612366,0.6207253064395922
498,0.45532137155532837,0.7639106924821212,0.6284191012382507,0.6207253064395922
499,0.45512256026268005,0.7639106924821212,0.6284797787666321,0.6207253064395922
500,0.4549271762371063,0.7639106924821212,0.6285380125045776,0.6207253064395922
501,0.4547351002693176,0.7639106924821212,0.6285937428474426,0.6207253064395922
502,0.45454612374305725,0.7639106924821212,0.6286467909812927,0.6207253064395922
503,0.45436009764671326,0.7639106924821212,0.6286969780921936,0.6207253064395922
504,0.4541769325733185,0.7639106924821212,0.6287443041801453,0.6207253064395922
505,0.4539964497089386,0.7639106924821212,0.6287887692451477,0.6207253064395922
506,0.45381858944892883,0.7639106924821212,0.6288302540779114,0.6207253064395922
507,0.453643262386322,0.7639106924821212,0.6288687586784363,0.6207253064395922
508,0.4534701406955719,0.7639106924821212,0.6289044618606567,0.6207253064395922
509,0.45329928398132324,0.7639106924821212,0.628937304019928,0.6207253064395922
510,0.4531305134296417,0.7639106924821212,0.6289674043655396,0.6207253064395922
511,0.452963650226593,0.7639106924821212,0.628994882106781,0.6207253064395922
512,0.45279866456985474,0.7639106924821212,0.6290197372436523,0.6207253064395922
513,0.45263534784317017,0.7639106924821212,0.6290420889854431,0.6207253064395922
514,0.45247364044189453,0.7639106924821212,0.6290620565414429,0.6207253064395922
515,0.4523133933544159,0.7639106924821212,0.6290796995162964,0.6207253064395922
516,0.45215457677841187,0.7639106924821212,0.6290951371192932,0.6207253064395922
517,0.4519968628883362,0.7639106924821212,0.6291084289550781,0.6207253064395922
518,0.4518404006958008,0.7639106924821212,0.6291195750236511,0.6207253064395922
519,0.4516848921775818,0.7639106924821212,0.6291289329528809,0.6207253064395922
520,0.4515303075313568,0.7639106924821212,0.6291361451148987,0.6207253064395922
521,0.4513764977455139,0.7639106924821212,0.6291415095329285,0.6207253064395922
522,0.45122334361076355,0.7639106924821212,0.629145085811615,0.6207253064395922
523,0.45107075572013855,0.7639106924821212,0.6291466355323792,0.6207253064395922
524,0.45091861486434937,0.7639106924821212,0.6291464567184448,0.6207253064395922
525,0.45076680183410645,0.7639106924821212,0.6291443705558777,0.6207253064395922
526,0.4506152272224426,0.7639106924821212,0.629140317440033,0.6207253064395922
527,0.45046374201774597,0.7639106924821212,0.629134476184845,0.6207253064395922
528,0.4503123164176941,0.7639106924821212,0.6291266083717346,0.6207253064395922
529,0.45016077160835266,0.7639106924821212,0.6291166543960571,0.6207253064395922
530,0.4500090777873993,0.7639106924821212,0.6291046142578125,0.6207253064395922
531,0.4498569369316101,0.7639106924821212,0.629090428352356,0.6207253064395922
532,0.44970443844795227,0.7639106924821212,0.6290737986564636,0.6207253064395922
533,0.44955137372016907,0.7639106924821212,0.629054844379425,0.6207253064395922
534,0.4493977427482605,0.7639106924821212,0.6290332674980164,0.6207253064395922
535,0.4492432773113251,0.7639106924821212,0.629008948802948,0.6207253064395922
536,0.4490879476070404,0.7639106924821212,0.6289816498756409,0.6207253064395922
537,0.4489316940307617,0.7639106924821212,0.6289514303207397,0.6207253064395922
538,0.4487743675708771,0.7639106924821212,0.6289178729057312,0.6207253064395922
539,0.44861581921577454,0.7639106924821212,0.6288809776306152,0.6207253064395922
540,0.4484560787677765,0.7639106924821212,0.6288403868675232,0.6207253064395922
541,0.44829490780830383,0.7639106924821212,0.6287958025932312,0.6207253064395922
542,0.4481322169303894,0.7639106924821212,0.628747284412384,0.6207253064395922
543,0.4479679465293884,0.7639106924821212,0.6286942362785339,0.6207253064395922
544,0.44780203700065613,0.7639106924821212,0.6286366581916809,0.6207253064395922
545,0.4476343095302582,0.7639106924821212,0.6285740733146667,0.6207253064395922
546,0.4474646747112274,0.7639106924821212,0.6285063028335571,0.6207253064395922
547,0.44729307293891907,0.7639106924821212,0.6284329295158386,0.6207253064395922
548,0.44711926579475403,0.7639106924821212,0.6283537745475769,0.6207253064395922
549,0.4469432532787323,0.7639106924821212,0.628268301486969,0.6207253064395922
550,0.44676488637924194,0.7639106924821212,0.6281761527061462,0.6207253064395922
551,0.44658392667770386,0.7639106924821212,0.62807697057724,0.6207253064395922
552,0.4464002251625061,0.7639106924821212,0.6279702186584473,0.6207253064395922
553,0.44621363282203674,0.7639106924821212,0.6278555989265442,0.6207253064395922
554,0.44602394104003906,0.7639106924821212,0.6277323365211487,0.6207253064395922
555,0.4458307921886444,0.7639106924821212,0.6276001334190369,0.6207253064395922
556,0.4456338584423065,0.7639106924821212,0.6274582147598267,0.6207253064395922
557,0.4454328715801239,0.7639106924821212,0.6273062825202942,0.6207253064395922
558,0.44522735476493835,0.7639106924821212,0.6271435618400574,0.6207253064395922
559,0.4450168311595917,0.7639106924821212,0.6269694566726685,0.6207253064395922
560,0.4448007047176361,0.7639106924821212,0.626783549785614,0.6207253064395922
561,0.4445784389972687,0.7639106924821212,0.6265848278999329,0.6207253064395922
562,0.4443491995334625,0.7639106924821212,0.626372754573822,0.6207253064395922
563,0.44411224126815796,0.7639106924821212,0.6261464953422546,0.6207253064395922
564,0.4438665509223938,0.7639106924821212,0.6259048581123352,0.6207253064395922
565,0.44361117482185364,0.7639106924821212,0.625646710395813,0.6207253064395922
566,0.4433448016643524,0.7639106924821212,0.625370442867279,0.6207253064395922
567,0.4430660903453827,0.7639106924821212,0.6250740885734558,0.6207253064395922
568,0.44277337193489075,0.7639106924821212,0.6247555613517761,0.6207253064395922
569,0.442465215921402,0.7639106924821212,0.6244122385978699,0.6207253064395922
570,0.442139595746994,0.7639106924821212,0.6240410804748535,0.6207253064395922
571,0.4417949318885803,0.7639106924821212,0.623638927936554,0.6207253064395922
572,0.44142946600914,0.7639106924821212,0.6232026219367981,0.6207253064395922
573,0.4410422742366791,0.7639106924821212,0.6227293610572815,0.6207253064395922
574,0.44063299894332886,0.7639106924821212,0.6222179532051086,0.6207253064395922
575,0.4402027130126953,0.7639106924821212,0.6216699481010437,0.6207253064395922
576,0.43975400924682617,0.7639106924821212,0.621091902256012,0.6207253064395922
577,0.43928951025009155,0.7639106924821212,0.6204976439476013,0.6207253064395922
578,0.43880894780158997,0.7639106924821212,0.6199068427085876,0.6207253064395922
579,0.43830400705337524,0.7639106924821212,0.6193365454673767,0.6207253064395922
580,0.43775659799575806,0.7639106924821212,0.6187858581542969,0.6207253064395922
581,0.4371483623981476,0.7639106924821212,0.6182273030281067,0.6207253064395922
582,0.43647244572639465,0.7639106924821212,0.6176148056983948,0.6207253064395922
583,0.43573492765426636,0.7639106924821212,0.6168991923332214,0.6207253064395922
584,0.434946209192276,0.7639106924821212,0.6160459518432617,0.6207253064395922
585,0.4341077506542206,0.7639106924821212,0.6150389313697815,0.6207253064395922
586,0.43320515751838684,0.7639106924821212,0.6138696074485779,0.6207253064395922
587,0.4322037696838379,0.7639106924821212,0.6124926209449768,0.6207253064395922
588,0.4310874044895172,0.7639106924821212,0.6108333468437195,0.6207253064395922
589,0.4298613667488098,0.7639106924821212,0.6088113784790039,0.6207253064395922
590,0.42854586243629456,0.7639106924821212,0.6064319014549255,0.6207253064395922
591,0.42704537510871887,0.7639106924821212,0.6036772131919861,0.6291153291153292
592,0.4251537621021271,0.7639106924821212,0.6000764966011047,0.6291153291153292
593,0.4232146441936493,0.7639106924821212,0.595108151435852,0.7181175966890253
594,0.42311111092567444,0.7639106924821212,0.5939063429832458,0.7124486624486625
595,0.41953492164611816,0.7639106924821212,0.6015958189964294,0.6455988455988457
596,0.4115278720855713,0.7639106924821212,0.5660455822944641,0.7474216259930546
597,0.4893952012062073,0.7200174825174824,0.6148024201393127,0.6130068344354059
598,0.4614950716495514,0.7629116914831199,0.6084219813346863,0.633807462378891
599,0.4357059597969055,0.7488553113553114,0.5779513120651245,0.7407116692830978
600,0.4554535746574402,0.7593031968031968,0.5739148259162903,0.7407116692830978
601,0.45383650064468384,0.76794832151975,0.5785633325576782,0.6517094017094018
602,0.4476551413536072,0.7575004360718646,0.5757794976234436,0.6517094017094018
603,0.445809543132782,0.7625370661084947,0.5710498690605164,0.6573783359497646
604,0.4446313977241516,0.7538919413919414,0.5697623491287231,0.6573783359497646
605,0.4448264539241791,0.7625370661084947,0.570516049861908,0.6517094017094018
606,0.44636866450309753,0.7625370661084947,0.5713986158370972,0.6517094017094018
607,0.44458410143852234,0.7625370661084947,0.5704869031906128,0.6517094017094018
608,0.44118332862854004,0.7625370661084947,0.5689458250999451,0.6517094017094018
609,0.4417237341403961,0.7625370661084947,0.5689030885696411,0.6517094017094018
610,0.441262423992157,0.7625370661084947,0.5692851543426514,0.6517094017094018
611,0.44031262397766113,0.7625370661084947,0.5690444707870483,0.6517094017094018
612,0.4398351311683655,0.7625370661084947,0.5686632990837097,0.6517094017094018
613,0.439676433801651,0.7625370661084947,0.5686661601066589,0.6517094017094018
614,0.4393419623374939,0.7625370661084947,0.5688520073890686,0.6517094017094018
615,0.43886953592300415,0.7625370661084947,0.568942666053772,0.6517094017094018
616,0.43848347663879395,0.7625370661084947,0.5689869523048401,0.6517094017094018
617,0.4381829798221588,0.7625370661084947,0.5691000819206238,0.6517094017094018
618,0.43786197900772095,0.7625370661084947,0.569253146648407,0.6517094017094018
619,0.43751224875450134,0.7575004360718646,0.5693805813789368,0.6517094017094018
620,0.4371829926967621,0.7575004360718646,0.5694846510887146,0.6517094017094018
621,0.43688178062438965,0.7575004360718646,0.5695940852165222,0.6517094017094018
622,0.43658560514450073,0.7575004360718646,0.5697101950645447,0.6517094017094018
623,0.4362877309322357,0.7575004360718646,0.5698203444480896,0.6517094017094018
624,0.43599748611450195,0.7575004360718646,0.5699234008789062,0.6517094017094018
625,0.4357178509235382,0.7575004360718646,0.5700259208679199,0.6517094017094018
626,0.43544384837150574,0.7575004360718646,0.5705097913742065,0.6517094017094018
627,0.4351727366447449,0.7575004360718646,0.5706124901771545,0.6517094017094018
628,0.434906005859375,0.7575004360718646,0.5707125067710876,0.6517094017094018
629,0.4346446096897125,0.7575004360718646,0.5708112716674805,0.6517094017094018
630,0.4343874156475067,0.7575004360718646,0.5709092020988464,0.6517094017094018
631,0.4341335594654083,0.7575004360718646,0.5710058808326721,0.6517094017094018
632,0.4338831305503845,0.7575004360718646,0.5711010694503784,0.6517094017094018
633,0.433636337518692,0.7575004360718646,0.5711948275566101,0.6517094017094018
634,0.43339279294013977,0.7575004360718646,0.5712875723838806,0.6517094017094018
635,0.43315234780311584,0.7575004360718646,0.5713788866996765,0.6517094017094018
636,0.43291473388671875,0.7575004360718646,0.571468710899353,0.6517094017094018
637,0.4326799809932709,0.7575004360718646,0.5715569257736206,0.6517094017094018
638,0.4324479401111603,0.7575004360718646,0.5716432929039001,0.6517094017094018
639,0.432218462228775,0.7575004360718646,0.5717276334762573,0.6517094017094018
640,0.431991308927536,0.7575004360718646,0.5718096494674683,0.6517094017094018
641,0.4317663609981537,0.7575004360718646,0.5718890428543091,0.6517094017094018
642,0.4315435290336609,0.7575004360718646,0.5719660520553589,0.6517094017094018
643,0.4152962863445282,0.7575004360718646,0.5706858038902283,0.6517094017094018
644,0.43161138892173767,0.7625370661084947,0.5706884264945984,0.6517094017094018
645,0.41659823060035706,0.7575004360718646,0.5708273649215698,0.6517094017094018
646,0.41343122720718384,0.7575004360718646,0.5704598426818848,0.6517094017094018
647,0.4322214722633362,0.7625370661084947,0.5712863802909851,0.6517094017094018
648,0.4153456687927246,0.7575004360718646,0.5718351602554321,0.6517094017094018
649,0.41244083642959595,0.7575004360718646,0.5716255903244019,0.6517094017094018
650,0.41224709153175354,0.7625370661084947,0.5714582800865173,0.6517094017094018
651,0.4122588634490967,0.7625370661084947,0.5717311501502991,0.6517094017094018
652,0.41410765051841736,0.7625370661084947,0.5722644925117493,0.6517094017094018
653,0.4183635711669922,0.7575004360718646,0.5731579661369324,0.6354875283446713
654,0.4180420935153961,0.7575004360718646,0.5746412873268127,0.6354875283446713
655,0.4172324538230896,0.7575004360718646,0.5753068923950195,0.6354875283446713
656,0.4168817698955536,0.7575004360718646,0.5755912661552429,0.6354875283446713
657,0.4167139232158661,0.7575004360718646,0.592136800289154,0.6267212945784374
658,0.4163108766078949,0.7575004360718646,0.5921564102172852,0.6267212945784374
659,0.4158727824687958,0.7575004360718646,0.5919389724731445,0.6267212945784374
660,0.41560688614845276,0.7625370661084947,0.591716468334198,0.6267212945784374
661,0.4154070317745209,0.7625370661084947,0.5916218757629395,0.6267212945784374
662,0.4151521623134613,0.7625370661084947,0.5916193127632141,0.642943167943168
663,0.41487830877304077,0.7625370661084947,0.5916617512702942,0.642943167943168
664,0.4146299958229065,0.7625370661084947,0.5917475819587708,0.642943167943168
665,0.4143822193145752,0.7625370661084947,0.5918659567832947,0.642943167943168
666,0.4141133725643158,0.7625370661084947,0.5919877886772156,0.642943167943168
667,0.4138384461402893,0.7625370661084947,0.5921006798744202,0.642943167943168
668,0.41356948018074036,0.7625370661084947,0.5922117233276367,0.642943167943168
669,0.4133000373840332,0.780852084423513,0.5923265814781189,0.642943167943168
670,0.4130244851112366,0.780852084423513,0.5924448370933533,0.642943167943168
671,0.41274580359458923,0.780852084423513,0.5925670266151428,0.642943167943168
672,0.41246524453163147,0.780852084423513,0.5926948189735413,0.642943167943168
673,0.41218021512031555,0.780852084423513,0.5928282141685486,0.642943167943168
674,0.41188931465148926,0.780852084423513,0.5929649472236633,0.642943167943168
675,0.41159334778785706,0.780852084423513,0.5931041836738586,0.642943167943168
676,0.4112923741340637,0.780852084423513,0.5932456851005554,0.642943167943168
677,0.3981010913848877,0.780852084423513,0.5917385220527649,0.642943167943168
678,0.39839500188827515,0.780852084423513,0.5901719927787781,0.7262765012765013
679,0.39909034967422485,0.7737092272806559,0.5892618894577026,0.642943167943168
680,0.3983413279056549,0.7654841190555476,0.5890089869499207,0.642943167943168
681,0.39536747336387634,0.7654841190555476,0.5888401865959167,0.642943167943168
682,0.4199385643005371,0.7654841190555476,0.5893731117248535,0.642943167943168
683,0.3953665792942047,0.7654841190555476,0.5893492102622986,0.642943167943168
684,0.41743046045303345,0.7654841190555476,0.5892474055290222,0.642943167943168
685,0.4164692461490631,0.780852084423513,0.5894325375556946,0.642943167943168
686,0.39416271448135376,0.780852084423513,0.5878134369850159,0.7262765012765013
687,0.4147699773311615,0.7737092272806559,0.5868256688117981,0.642943167943168
688,0.4146539866924286,0.7737092272806559,0.5872084498405457,0.642943167943168
689,0.4132019877433777,0.780852084423513,0.5875085592269897,0.642943167943168
690,0.4124488830566406,0.780852084423513,0.5723996758460999,0.6517094017094018
691,0.412241131067276,0.7862633398347685,0.5724489092826843,0.6517094017094018
692,0.4116682708263397,0.7862633398347685,0.5724802017211914,0.6517094017094018
693,0.42140159010887146,0.7758154543868828,0.5744280815124512,0.6517094017094018
694,0.42003074288368225,0.7758154543868828,0.5767747163772583,0.6517094017094018
695,0.4187459349632263,0.7812267097981385,0.5779714584350586,0.6517094017094018
696,0.4178454875946045,0.7812267097981385,0.5778972506523132,0.6517094017094018
697,0.41706058382987976,0.7812267097981385,0.577174723148346,0.6517094017094018
698,0.4164543151855469,0.7812267097981385,0.576562225818634,0.6517094017094018
699,0.4160442352294922,0.7812267097981385,0.5765587091445923,0.638888888888889
700,0.4156181216239929,0.7812267097981385,0.5771484375,0.6301226551226552
701,0.41504159569740295,0.7812267097981385,0.5779350996017456,0.6301226551226552
702,0.41438722610473633,0.7812267097981385,0.5784235596656799,0.6301226551226552
703,0.4137519299983978,0.7812267097981385,0.5788499712944031,0.6301226551226552
704,0.41314077377319336,0.7812267097981385,0.5791692137718201,0.6136391386391387
705,0.4125247597694397,0.7812267097981385,0.5794943571090698,0.6136391386391387
706,0.41189202666282654,0.7812267097981385,0.5798853039741516,0.6136391386391387
707,0.41997799277305603,0.7758154543868828,0.5837517976760864,0.6136391386391387
708,0.4174850583076477,0.7758154543868828,0.5847892761230469,0.6136391386391387
709,0.4157887399196625,0.7758154543868828,0.5847263336181641,0.6136391386391387
710,0.41298431158065796,0.7758154543868828,0.583745539188385,0.6136391386391387
711,0.41170215606689453,0.7758154543868828,0.5817342400550842,0.6136391386391387
712,0.4095067083835602,0.7758154543868828,0.5819429755210876,0.6136391386391387
713,0.4079675078392029,0.780852084423513,0.5803195238113403,0.6136391386391387
714,0.3967490792274475,0.7758154543868828,0.5893068909645081,0.6136391386391387
715,0.41539719700813293,0.7625370661084947,0.5917698740959167,0.6136391386391387
716,0.40778061747550964,0.7625370661084947,0.57920902967453,0.6136391386391387
717,0.4020080864429474,0.7758154543868828,0.6194573640823364,0.6207253064395922
718,0.40653544664382935,0.7743585779300065,0.626653254032135,0.6136391386391387
719,0.4031889736652374,0.7743585779300065,0.6104477047920227,0.6267212945784374
720,0.4021163880825043,0.7872623408337694,0.5910336375236511,0.6267212945784374
721,0.3963238298892975,0.7872623408337694,0.587004542350769,0.6323902288188002
722,0.3798101842403412,0.7862633398347685,0.5804219245910645,0.7157235621521335
723,0.37651973962783813,0.7862633398347685,0.5752845406532288,0.7244897959183673
724,0.39888015389442444,0.7862633398347685,0.5808171033859253,0.641156462585034
725,0.40339604020118713,0.787636966208395,0.5901349186897278,0.6263942406799551
726,0.3969428837299347,0.7812267097981385,0.5910457372665405,0.6784394177251319
727,0.39345863461494446,0.7812267097981385,0.5852445960044861,0.6727704834847692
728,0.3974868357181549,0.7822257107971394,0.5817654728889465,0.5894371501514358
729,0.39139482378959656,0.7671703296703296,0.6083186864852905,0.5894371501514358
730,0.3873463571071625,0.772581585081585,0.5835126638412476,0.6835414585414584
731,0.3840835392475128,0.7629116914831199,0.6066705584526062,0.5894371501514358
732,0.3863477110862732,0.787636966208395,0.6160401701927185,0.5965233179518894
733,0.4267398416996002,0.787636966208395,0.7067642211914062,0.6121164549735979
734,0.6164202094078064,0.6862092272806558,0.6342244148254395,0.6856052677481248
735,0.501484215259552,0.7105390641104926,0.6587181687355042,0.7275553811268097
736,0.5777040123939514,0.7391418105703819,0.8006820678710938,0.6807579325436468
737,0.48887649178504944,0.6986743415314843,0.59543377161026,0.6873626373626375
738,0.44632887840270996,0.7952838827838828,0.6641493439674377,0.702749433106576
739,0.5528146624565125,0.7071844821844822,0.7286345362663269,0.5615122972265829
740,0.47129175066947937,0.7631994989137846,0.6120979189872742,0.6013236763236763
741,0.43009230494499207,0.7447427572427573,0.7435635328292847,0.6151643990929705
742,0.5138369202613831,0.7127535163249449,0.5989648699760437,0.6164573521716379
743,0.588555634021759,0.7642595499738356,0.7109527587890625,0.5585664335664335
744,0.5347463488578796,0.7094946719946719,0.6293904185295105,0.5965233179518894
745,0.4878089725971222,0.7126540126540126,0.6259211301803589,0.6021922521922523
746,0.4640457332134247,0.7167665667665668,0.6875605583190918,0.49101136958279806
747,0.5245970487594604,0.7737223094365954,0.6693666577339172,0.5891973106258821
748,0.5198676586151123,0.726764505335934,0.6257871985435486,0.5975873333016191
749,0.48427581787109375,0.7189722975437263,0.6908988952636719,0.5999433106575963
750,0.4917832016944885,0.7324154020582592,0.6070103645324707,0.5965233179518894
751,0.4906812012195587,0.726931005502434,0.617252767086029,0.5802380159523016
752,0.48150697350502014,0.772370486656201,0.642149031162262,0.560334903192046
753,0.4713461697101593,0.7635792778649921,0.6165183782577515,0.6236525379382523
754,0.45520779490470886,0.7593319379033664,0.6007553935050964,0.6207253064395922
755,0.4492347538471222,0.7462450248164535,0.6005846858024597,0.6263942406799551
756,0.44909968972206116,0.75265528122671,0.6023594737052917,0.6263942406799551
757,0.43514660000801086,0.7639106924821212,0.6032376885414124,0.6207253064395922
758,0.4292474389076233,0.7639106924821212,0.599819540977478,0.6394763966192538
759,0.42967745661735535,0.7575004360718646,0.5984770059585571,0.6394763966192538
760,0.43107351660728455,0.7575004360718646,0.5987526774406433,0.6394763966192538
761,0.4298340380191803,0.7639106924821212,0.5993804931640625,0.6394763966192538
762,0.4280799329280853,0.7639106924821212,0.599308431148529,0.6394763966192538
763,0.4273832142353058,0.7575004360718646,0.5991026163101196,0.6394763966192538
764,0.42737218737602234,0.7575004360718646,0.5990648865699768,0.6394763966192538
765,0.4269488453865051,0.7575004360718646,0.5967172384262085,0.6394763966192538
766,0.42616304755210876,0.7575004360718646,0.5964508652687073,0.6394763966192538
767,0.4255569875240326,0.7575004360718646,0.5960423350334167,0.6394763966192538
768,0.4252186119556427,0.7575004360718646,0.5956741571426392,0.6267212945784374
769,0.4248766005039215,0.7575004360718646,0.5953725576400757,0.6267212945784374
770,0.4244382083415985,0.7575004360718646,0.595092236995697,0.6267212945784374
771,0.42402008175849915,0.7575004360718646,0.5948344469070435,0.6267212945784374
772,0.4236740469932556,0.7575004360718646,0.5830497741699219,0.6351113172541744
773,0.42333969473838806,0.7575004360718646,0.5829607248306274,0.6351113172541744
774,0.42298051714897156,0.7575004360718646,0.5797244310379028,0.6351113172541744
775,0.4226214289665222,0.7575004360718646,0.5796843767166138,0.6438775510204081
776,0.42228007316589355,0.7575004360718646,0.5796765089035034,0.6438775510204081
777,0.4219437539577484,0.7575004360718646,0.5797020196914673,0.6438775510204081
778,0.4216020703315735,0.7575004360718646,0.5797520279884338,0.6438775510204081
779,0.4212600886821747,0.7575004360718646,0.5798220038414001,0.6438775510204081
780,0.4209222197532654,0.7575004360718646,0.5799132585525513,0.6438775510204081
781,0.4205848276615143,0.7575004360718646,0.5800248980522156,0.6438775510204081
782,0.42024508118629456,0.7575004360718646,0.5801536440849304,0.6438775510204081
783,0.4199041724205017,0.7575004360718646,0.5802971124649048,0.6438775510204081
784,0.41956302523612976,0.7575004360718646,0.5804547667503357,0.6438775510204081
785,0.4192207157611847,0.7575004360718646,0.5806255340576172,0.6438775510204081
786,0.4188767969608307,0.7575004360718646,0.5808076858520508,0.6438775510204081
787,0.4185315668582916,0.7575004360718646,0.5810005068778992,0.6438775510204081
788,0.4181855320930481,0.7575004360718646,0.581203281879425,0.6438775510204081
789,0.4178386330604553,0.7575004360718646,0.5814152956008911,0.6438775510204081
790,0.41749098896980286,0.7575004360718646,0.5816360712051392,0.6438775510204081
791,0.41714295744895935,0.7575004360718646,0.5818647146224976,0.6438775510204081
792,0.41679495573043823,0.7575004360718646,0.5821009278297424,0.6438775510204081
793,0.416447252035141,0.7575004360718646,0.5823441743850708,0.6438775510204081
794,0.4161001741886139,0.7575004360718646,0.5825937986373901,0.6438775510204081
795,0.4157540798187256,0.7575004360718646,0.5828495025634766,0.6438775510204081
796,0.41540929675102234,0.7575004360718646,0.5831107497215271,0.6438775510204081
797,0.4150661528110504,0.7575004360718646,0.5833771824836731,0.6438775510204081
798,0.41472479701042175,0.7575004360718646,0.5836485028266907,0.6438775510204081
799,0.41438546776771545,0.7575004360718646,0.5839243531227112,0.6438775510204081
800,0.4140481650829315,0.7575004360718646,0.584204375743866,0.6438775510204081
801,0.4137129485607147,0.7575004360718646,0.5844884514808655,0.6438775510204081
802,0.4133797287940979,0.7575004360718646,0.5847764611244202,0.6438775510204081
803,0.41304832696914673,0.7575004360718646,0.5850682258605957,0.6438775510204081
804,0.41271859407424927,0.7575004360718646,0.5853636860847473,0.6438775510204081
805,0.4123902916908264,0.7575004360718646,0.585662841796875,0.6554988662131519
806,0.41206294298171997,0.7575004360718646,0.5859657526016235,0.6554988662131519
807,0.41173622012138367,0.7575004360718646,0.5862724184989929,0.6554988662131519
808,0.4114097058773041,0.7575004360718646,0.5865832567214966,0.6554988662131519
809,0.4110829532146454,0.7575004360718646,0.586898148059845,0.6554988662131519
810,0.4107554852962494,0.7575004360718646,0.587217390537262,0.6554988662131519
811,0.40828150510787964,0.7575004360718646,0.5871616005897522,0.6554988662131519
812,0.4081532657146454,0.7575004360718646,0.5871129631996155,0.6554988662131519
813,0.4082302749156952,0.7575004360718646,0.5874472260475159,0.6554988662131519
814,0.407748281955719,0.7575004360718646,0.5877956748008728,0.6554988662131519
815,0.4073048233985901,0.7575004360718646,0.5880886316299438,0.6554988662131519
816,0.40710440278053284,0.7625370661084947,0.588485836982727,0.6554988662131519
817,0.40679624676704407,0.7625370661084947,0.5889109969139099,0.6554988662131519
818,0.40637287497520447,0.7625370661084947,0.5892623066902161,0.6554988662131519
819,0.4060206115245819,0.7625370661084947,0.5895981788635254,0.6554988662131519
820,0.40482378005981445,0.7625370661084947,0.58990877866745,0.6554988662131519
821,0.40462732315063477,0.7625370661084947,0.5903928875923157,0.6554988662131519
822,0.4042205214500427,0.7625370661084947,0.5908974409103394,0.6554988662131519
823,0.40375763177871704,0.7625370661084947,0.5913378000259399,0.6554988662131519
824,0.4033980965614319,0.7625370661084947,0.5917900204658508,0.6554988662131519
825,0.40301451086997986,0.7625370661084947,0.5922533273696899,0.6554988662131519
826,0.4025701880455017,0.7625370661084947,0.592685878276825,0.6554988662131519
827,0.4021401107311249,0.7625370661084947,0.5931077003479004,0.6554988662131519
828,0.4017142355442047,0.7625370661084947,0.5935406684875488,0.6554988662131519
829,0.4012565314769745,0.7625370661084947,0.5939727425575256,0.6554988662131519
830,0.40078264474868774,0.7625370661084947,0.5943992733955383,0.6554988662131519
831,0.4003017842769623,0.7625370661084947,0.5948261022567749,0.6554988662131519
832,0.399801105260849,0.7625370661084947,0.5952496528625488,0.6554988662131519
833,0.3992803394794464,0.7625370661084947,0.5956646203994751,0.6554988662131519
834,0.3987450897693634,0.7625370661084947,0.596071720123291,0.6554988662131519
835,0.3981921374797821,0.7625370661084947,0.614071249961853,0.6554988662131519
836,0.3976193070411682,0.780852084423513,0.6144405007362366,0.6554988662131519
837,0.3970283567905426,0.780852084423513,0.61479651927948,0.6554988662131519
838,0.3964187800884247,0.780852084423513,0.6151371598243713,0.6554988662131519
839,0.39578941464424133,0.780852084423513,0.6154599189758301,0.6554988662131519
840,0.39514079689979553,0.780852084423513,0.6157622337341309,0.6554988662131519
841,0.3944729268550873,0.780852084423513,0.6160415410995483,0.6554988662131519
842,0.39378562569618225,0.780852084423513,0.6162945628166199,0.6554988662131519
843,0.3930792212486267,0.780852084423513,0.6165176033973694,0.6554988662131519
844,0.3923787474632263,0.780852084423513,0.6166790723800659,0.6554988662131519
845,0.3890170753002167,0.780852084423513,0.6137599945068359,0.6554988662131519
846,0.38906049728393555,0.780852084423513,0.6138620376586914,0.6554988662131519
847,0.3880103528499603,0.780852084423513,0.6140043139457703,0.6554988662131519
848,0.39027518033981323,0.780852084423513,0.614686131477356,0.6467326324469181
849,0.3862576186656952,0.7862633398347685,0.6145219802856445,0.6467326324469181
850,0.3852286636829376,0.7862633398347685,0.6134430766105652,0.6467326324469181
851,0.38451215624809265,0.7862633398347685,0.6128402948379517,0.6467326324469181
852,0.3837164044380188,0.7862633398347685,0.6127854585647583,0.7300659657802514
853,0.37847915291786194,0.7862633398347685,0.6115944981575012,0.7300659657802514
854,0.37797871232032776,0.7862633398347685,0.6110771894454956,0.7300659657802514
855,0.3817332684993744,0.7862633398347685,0.5978525876998901,0.7300659657802514
856,0.3838898837566376,0.792673596245025,0.5951348543167114,0.6467326324469181
857,0.40442371368408203,0.7872623408337694,0.6174344420433044,0.633807462378891
858,0.4046156108379364,0.792673596245025,0.6201339960098267,0.6529684601113173
859,0.394010066986084,0.7872623408337694,0.5977134704589844,0.6529684601113173
860,0.3957955539226532,0.7872623408337694,0.5999086499214172,0.6637909709338281
861,0.39282697439193726,0.7872623408337694,0.6084362864494324,0.6637909709338281
862,0.3893430531024933,0.792673596245025,0.5987710356712341,0.6637909709338281
863,0.38786348700523376,0.7872623408337694,0.5959309935569763,0.6637909709338281
864,0.38641366362571716,0.7872623408337694,0.6016692519187927,0.6507088149945294
865,0.3995404839515686,0.7846237096237098,0.6314250230789185,0.6398863041720185
866,0.3854493498802185,0.8760069295783584,0.5791093111038208,0.7672621029763886
867,0.3959205448627472,0.7982600732600733,0.6138636469841003,0.6550378193235337
868,0.37986961007118225,0.792673596245025,0.5937108397483826,0.6637909709338281
869,0.38144922256469727,0.7982600732600733,0.5855867266654968,0.7009871081299652
870,0.38599827885627747,0.8655590441304727,0.6148996949195862,0.6455552384123813
871,0.39828476309776306,0.797827172827173,0.6550564765930176,0.6291153291153292
872,0.39086252450942993,0.8760069295783584,0.6186800003051758,0.6627190270047414
873,0.3858383297920227,0.8036713286713288,0.6082082390785217,0.6736394557823129
874,0.3779790699481964,0.7982600732600733,0.6069502830505371,0.6550378193235337
875,0.36787962913513184,0.8815934065934066,0.58013516664505,0.7734979306407878
876,0.5584370493888855,0.757544043258329,0.7151605486869812,0.6768913626056483
877,0.4875224232673645,0.7106920856920856,0.6457869410514832,0.7253341896199039
878,0.5502535104751587,0.7748033712319425,0.5937662720680237,0.6887394351680066
879,0.46893471479415894,0.7869392512249656,0.64070063829422,0.6116748331034046
880,0.48025330901145935,0.746040467469039,0.6291447877883911,0.6949229342086485
881,0.5228620767593384,0.7215593929879643,0.7186965942382812,0.6732683982683982
882,0.47551947832107544,0.7080843759415189,0.6572286486625671,0.606536717251003
883,0.4807915687561035,0.7584245119959405,0.6694898009300232,0.5894371501514358
884,0.5178446769714355,0.7283962069676354,0.6129140853881836,0.6205128205128206
885,0.4603228271007538,0.7234432234432234,0.6353570818901062,0.6186757686757688
886,0.5531631112098694,0.7244196279910565,0.7430939674377441,0.5679879644165358
887,0.5047241449356079,0.7401011686725975,0.6485352516174316,0.5759657009657009
888,0.5106006264686584,0.711865515436944,0.629485011100769,0.6949229342086485
889,0.4824965298175812,0.6962537462537464,0.7404096722602844,0.5820861678004535
890,0.5412262678146362,0.6713924963924963,0.6460532546043396,0.5965233179518894
891,0.4797854423522949,0.7578088578088579,0.6681389212608337,0.5813686313686314
892,0.4888920783996582,0.7387275422989708,0.6127049326896667,0.6208386851243995
893,0.47013425827026367,0.785627071341357,0.6076669692993164,0.5541292041292042
894,0.4637576639652252,0.74002664002664,0.5604850053787231,0.7396765932480218
895,0.5020132064819336,0.6910946196660481,0.6589241027832031,0.5908956123241839
896,0.5202744007110596,0.7066558441558443,0.6102646589279175,0.6049133406276264
897,0.48530149459838867,0.7446053946053947,0.6355935335159302,0.5736763236763237
898,0.453498512506485,0.7401011686725975,0.6370750069618225,0.6130068344354059
899,0.5329848527908325,0.7343485879200163,0.7261425852775574,0.5912087912087912
900,0.4997393786907196,0.711973740545169,0.6992717385292053,0.5443722943722944
901,0.5199223160743713,0.7198408734123021,0.6403631567955017,0.5786332714904143
902,0.45430928468704224,0.777646956218385,0.6597273945808411,0.593558029272315
903,0.46462753415107727,0.7372873158587446,0.6816113591194153,0.6241437134294278
904,0.5289703011512756,0.712466501752216,0.6463418006896973,0.6236525379382523
905,0.465291291475296,0.7291121576835863,0.6469259858131409,0.552156177156177
906,0.4978897273540497,0.7108054643768931,0.6398085951805115,0.6191990549133406
907,0.4625535011291504,0.7334332334332334,0.6477094292640686,0.5908020550877693
908,0.4814080595970154,0.7317765567765567,0.6474943161010742,0.5912087912087912
909,0.45367780327796936,0.7593319379033664,0.6114331483840942,0.5965233179518894
910,0.44707733392715454,0.7462450248164535,0.6021082997322083,0.6136391386391387
911,0.4437834322452545,0.7462450248164535,0.59980708360672,0.633807462378891
912,0.43528804183006287,0.7639106924821212,0.6132104992866516,0.6281797567511854
913,0.4346100986003876,0.7639106924821212,0.6134514808654785,0.6281797567511854
914,0.4329726994037628,0.7639106924821212,0.6242937445640564,0.633807462378891
915,0.4299216866493225,0.7639106924821212,0.6224498748779297,0.633807462378891
916,0.4315825402736664,0.7639106924821212,0.6236153244972229,0.633807462378891
917,0.43027132749557495,0.7639106924821212,0.6219614744186401,0.633807462378891
918,0.42921990156173706,0.7639106924821212,0.6212739944458008,0.633807462378891
919,0.42779478430747986,0.7639106924821212,0.6192212700843811,0.633807462378891
920,0.4276956617832184,0.7639106924821212,0.614276111125946,0.633807462378891
921,0.42677804827690125,0.7639106924821212,0.6216996908187866,0.633807462378891
922,0.42676836252212524,0.7639106924821212,0.6101575493812561,0.633807462378891
923,0.4251836836338043,0.7639106924821212,0.6094363331794739,0.633807462378891
924,0.4267164170742035,0.7575004360718646,0.6124808192253113,0.633807462378891
925,0.42447516322135925,0.7639106924821212,0.6109475493431091,0.633807462378891
926,0.43457356095314026,0.7533878819593107,0.6089749932289124,0.633807462378891
927,0.42292264103889465,0.7639106924821212,0.5987268686294556,0.633807462378891
928,0.4289383590221405,0.7533878819593107,0.5966129899024963,0.633807462378891
929,0.42196938395500183,0.7639106924821212,0.6033163070678711,0.633807462378891
930,0.429071843624115,0.7533878819593107,0.5976565480232239,0.633807462378891
931,0.42119622230529785,0.7639106924821212,0.6044816374778748,0.633807462378891
932,0.42824819684028625,0.7533878819593107,0.5977446436882019,0.633807462378891
933,0.4200650155544281,0.7639106924821212,0.5989198088645935,0.633807462378891
934,0.42696020007133484,0.7533878819593107,0.5974221229553223,0.633807462378891
935,0.42534035444259644,0.7639106924821212,0.5978918671607971,0.6425736961451248
936,0.4250297546386719,0.7575004360718646,0.5979130864143372,0.6425736961451248
937,0.4235663414001465,0.7639106924821212,0.5983514785766602,0.6425736961451248
938,0.4237169623374939,0.7575004360718646,0.5978134274482727,0.6425736961451248
939,0.4229755699634552,0.7575004360718646,0.5982341170310974,0.6425736961451248
940,0.4226866364479065,0.7575004360718646,0.5971705317497253,0.6425736961451248
941,0.4218534827232361,0.7575004360718646,0.5974014401435852,0.6425736961451248
942,0.4216386377811432,0.7575004360718646,0.5969058275222778,0.6425736961451248
943,0.4209813177585602,0.7575004360718646,0.5969237089157104,0.6425736961451248
944,0.42069000005722046,0.7575004360718646,0.5966099500656128,0.6425736961451248
945,0.42002132534980774,0.7575004360718646,0.596341609954834,0.6425736961451248
946,0.38942858576774597,0.836721215292644,0.597409188747406,0.6425736961451248
947,0.3857942521572113,0.8472440258154544,0.572363555431366,0.7259070294784581
948,0.3842611312866211,0.8655590441304727,0.5710218548774719,0.7259070294784581
949,0.3774052560329437,0.8655590441304727,0.567459762096405,0.7391854177568463
950,0.37560415267944336,0.8472440258154544,0.5657975673675537,0.7391854177568463
951,0.3742637634277344,0.8472440258154544,0.5657399892807007,0.7391854177568463
952,0.37246090173721313,0.8472440258154544,0.5658170580863953,0.7391854177568463
953,0.37089672684669495,0.8472440258154544,0.5657008290290833,0.7391854177568463
954,0.36975306272506714,0.8472440258154544,0.5651265978813171,0.7391854177568463
955,0.36891108751296997,0.8472440258154544,0.5657901763916016,0.7391854177568463
956,0.3678101599216461,0.8472440258154544,0.6037807464599609,0.6666230594802024
957,0.36718514561653137,0.8472440258154544,0.558978259563446,0.7554072911215768
958,0.3660658299922943,0.8472440258154544,0.618543803691864,0.6666230594802024
959,0.41718584299087524,0.7639106924821212,0.6150225400924683,0.6666230594802024
960,0.41077086329460144,0.7533878819593107,0.6093974113464355,0.6603872318158033
961,0.37814879417419434,0.8472440258154544,0.5560813546180725,0.7483211233211234
962,0.3868909180164337,0.8500457875457875,0.5871009826660156,0.7376984126984126
963,0.37929099798202515,0.8655590441304727,0.5764933824539185,0.752718709861567
964,0.3623719811439514,0.8778562707134135,0.5752843618392944,0.7188906331763475
965,0.37612980604171753,0.8500457875457875,0.5812463760375977,0.7413213770356627
966,0.37822437286376953,0.8472440258154544,0.5722013711929321,0.7637973137973137
967,0.4969426691532135,0.7762079190650619,0.7062299847602844,0.5260925582354153
968,0.46656060218811035,0.8168498168498167,0.9264265298843384,0.3833333333333333
969,0.5915015339851379,0.5753633271490415,0.6822649836540222,0.5252289377289378
970,0.5659765601158142,0.6534358498644214,0.6161242127418518,0.7151360544217686
971,0.4894939064979553,0.6658860980289553,0.6235337853431702,0.7494763173334602
972,0.48986414074897766,0.7232775161346591,0.607162356376648,0.6086504765076193
973,0.4678456485271454,0.7288053216624645,0.6000000834465027,0.5823335394763968
974,0.45558008551597595,0.760635396349682,0.5935936570167542,0.6291153291153292
975,0.44996172189712524,0.7317547531833247,0.6065383553504944,0.6276980955552384
976,0.45311349630355835,0.7483381697667413,0.610373318195343,0.6193080728795015
977,0.4510590732097626,0.75265528122671,0.6049508452415466,0.6193080728795015
978,0.442761093378067,0.75265528122671,0.605213463306427,0.6193080728795015
979,0.44107431173324585,0.75265528122671,0.6033883094787598,0.6193080728795015
980,0.4422328472137451,0.75265528122671,0.6016834378242493,0.644181612038755
981,0.44195103645324707,0.7241361812790384,0.6010830998420715,0.644181612038755
982,0.44001340866088867,0.7087682159110731,0.601068377494812,0.644181612038755
983,0.4383646547794342,0.7087682159110731,0.6007369160652161,0.644181612038755
984,0.43834033608436584,0.7087682159110731,0.5999740958213806,0.644181612038755
985,0.4373033046722412,0.7087682159110731,0.5990847945213318,0.644181612038755
986,0.4362161457538605,0.7087682159110731,0.5979739427566528,0.6567357245928674
987,0.435119092464447,0.713804845947703,0.5967245697975159,0.6567357245928674
988,0.4341081976890564,0.713804845947703,0.5954931378364563,0.6567357245928674
989,0.4331926703453064,0.713804845947703,0.5943673253059387,0.6567357245928674
990,0.43232235312461853,0.713804845947703,0.5933355689048767,0.7344001236858378
991,0.43148282170295715,0.713804845947703,0.5923535227775574,0.7344001236858378
992,0.43069759011268616,0.713804845947703,0.5914021730422974,0.7344001236858378
993,0.4299745261669159,0.713804845947703,0.5904930830001831,0.7582096474953618
994,0.42932364344596863,0.713804845947703,0.5898100137710571,0.7582096474953618
995,0.42853111028671265,0.713804845947703,0.5891874432563782,0.7582096474953618
996,0.4278417229652405,0.713804845947703,0.5885010361671448,0.7582096474953618
997,0.4272729754447937,0.713804845947703,0.5914767384529114,0.7582096474953618
998,0.4267159104347229,0.713804845947703,0.5908671617507935,0.7582096474953618
999,0.4261247515678406,0.713804845947703,0.5903319120407104,0.7582096474953618
