,loss,recall,val_loss,val_recall
0,0.9410718679428101,0.3400000035762787,0.8326713442802429,0.36000001430511475
1,0.9002718329429626,0.3700000047683716,0.8234678506851196,0.36000001430511475
2,0.9292567372322083,0.3499999940395355,0.8148970007896423,0.36000001430511475
3,0.9065663814544678,0.30000001192092896,0.8065429925918579,0.36000001430511475
4,0.8837764263153076,0.3700000047683716,0.7988308072090149,0.3499999940395355
5,0.8815751671791077,0.33000001311302185,0.7905771732330322,0.3499999940395355
6,0.8675510883331299,0.3799999952316284,0.7832239270210266,0.3499999940395355
7,0.8448554873466492,0.36000001430511475,0.7757478952407837,0.3499999940395355
8,0.869435727596283,0.3700000047683716,0.7683922648429871,0.3499999940395355
9,0.9389085173606873,0.28999999165534973,0.7610846757888794,0.3400000035762787
10,0.8238537311553955,0.4099999964237213,0.7544765472412109,0.3400000035762787
11,0.8409404754638672,0.38999998569488525,0.7481240034103394,0.3400000035762787
12,0.8337610363960266,0.3700000047683716,0.7421135902404785,0.3400000035762787
13,0.8177621364593506,0.4300000071525574,0.7360876202583313,0.3400000035762787
14,0.8052675127983093,0.3799999952316284,0.7299820780754089,0.3499999940395355
15,0.7819464206695557,0.4000000059604645,0.7243611216545105,0.3499999940395355
16,0.7984092831611633,0.38999998569488525,0.7187290191650391,0.36000001430511475
17,0.7744475603103638,0.44999998807907104,0.7135025262832642,0.3700000047683716
18,0.8039052486419678,0.4300000071525574,0.7081104516983032,0.3799999952316284
19,0.7440090775489807,0.46000000834465027,0.7033407092094421,0.4000000059604645
20,0.7638756632804871,0.3799999952316284,0.6983286142349243,0.46000000834465027
21,0.7685042023658752,0.49000000953674316,0.6937083601951599,0.47999998927116394
22,0.7401308417320251,0.4300000071525574,0.6893934011459351,0.5099999904632568
23,0.789412260055542,0.4000000059604645,0.6846705079078674,0.5400000214576721
24,0.7118328809738159,0.5099999904632568,0.680387556552887,0.5600000023841858
25,0.7514675855636597,0.46000000834465027,0.6761082410812378,0.5799999833106995
26,0.7605258822441101,0.44999998807907104,0.6718395948410034,0.6299999952316284
27,0.7484506964683533,0.46000000834465027,0.667514979839325,0.6499999761581421
28,0.6844093203544617,0.550000011920929,0.6635640859603882,0.6399999856948853
29,0.7457984089851379,0.49000000953674316,0.6597052812576294,0.6899999976158142
30,0.712638258934021,0.5099999904632568,0.6560412049293518,0.6899999976158142
31,0.7287663817405701,0.46000000834465027,0.6523445248603821,0.7400000095367432
32,0.696407675743103,0.5099999904632568,0.6488825082778931,0.7400000095367432
33,0.6404104828834534,0.6299999952316284,0.6456511616706848,0.7599999904632568
34,0.7371952533721924,0.46000000834465027,0.6422886848449707,0.75
35,0.6959490180015564,0.5400000214576721,0.6389781832695007,0.7799999713897705
36,0.7200199961662292,0.5099999904632568,0.6358048319816589,0.7900000214576721
37,0.6628783345222473,0.6000000238418579,0.632895290851593,0.7900000214576721
38,0.7149262428283691,0.5899999737739563,0.6298574805259705,0.7900000214576721
39,0.6838436722755432,0.5600000023841858,0.627098560333252,0.7900000214576721
40,0.654721200466156,0.6100000143051147,0.6243953108787537,0.7799999713897705
41,0.6670966148376465,0.5899999737739563,0.6219353675842285,0.7900000214576721
42,0.6979211568832397,0.5400000214576721,0.6193044185638428,0.7900000214576721
43,0.6515535712242126,0.6100000143051147,0.61678147315979,0.7900000214576721
44,0.6573346853256226,0.6200000047683716,0.6142808794975281,0.800000011920929
45,0.6850003600120544,0.5799999833106995,0.6119036078453064,0.7900000214576721
46,0.6289218068122864,0.699999988079071,0.6098318696022034,0.7799999713897705
47,0.6369621157646179,0.6399999856948853,0.6074634194374084,0.7799999713897705
48,0.6858441233634949,0.5799999833106995,0.6051672101020813,0.7900000214576721
49,0.654656171798706,0.5799999833106995,0.6028072237968445,0.7699999809265137
50,0.6640350818634033,0.6700000166893005,0.6005298495292664,0.7699999809265137
51,0.6393152475357056,0.6200000047683716,0.5986169576644897,0.7699999809265137
52,0.6906678080558777,0.5799999833106995,0.5964282751083374,0.7699999809265137
53,0.6311973333358765,0.6800000071525574,0.594607949256897,0.75
54,0.6856368184089661,0.5400000214576721,0.5928481817245483,0.75
55,0.6422404646873474,0.5899999737739563,0.5908984541893005,0.75
56,0.6286462545394897,0.6399999856948853,0.5891013741493225,0.75
57,0.6422688961029053,0.6399999856948853,0.587195634841919,0.75
58,0.6337827444076538,0.6299999952316284,0.5853803753852844,0.75
59,0.645252525806427,0.6700000166893005,0.5835453271865845,0.7400000095367432
60,0.5970405340194702,0.6600000262260437,0.5820020437240601,0.7400000095367432
61,0.6215835809707642,0.6499999761581421,0.5805232524871826,0.7400000095367432
62,0.6291077136993408,0.6800000071525574,0.5788428783416748,0.7400000095367432
63,0.6052730679512024,0.6700000166893005,0.5773676633834839,0.7400000095367432
64,0.540042519569397,0.7599999904632568,0.575960636138916,0.7400000095367432
65,0.6439569592475891,0.6600000262260437,0.5744405388832092,0.7300000190734863
66,0.5886543393135071,0.7599999904632568,0.5729898810386658,0.7300000190734863
67,0.5808601379394531,0.7099999785423279,0.5717185139656067,0.7300000190734863
68,0.614111065864563,0.6899999976158142,0.5703966617584229,0.7300000190734863
69,0.6086224913597107,0.6700000166893005,0.5690545439720154,0.7300000190734863
70,0.6718498468399048,0.6200000047683716,0.5676869750022888,0.7300000190734863
71,0.6136317253112793,0.6899999976158142,0.5665079355239868,0.7300000190734863
72,0.5948822498321533,0.6899999976158142,0.5652650594711304,0.7300000190734863
73,0.5676071047782898,0.7300000190734863,0.5640475749969482,0.7200000286102295
74,0.6045576333999634,0.7200000286102295,0.5627004504203796,0.7200000286102295
75,0.6465648412704468,0.6200000047683716,0.5615084171295166,0.7200000286102295
76,0.5720155835151672,0.7300000190734863,0.5604190230369568,0.7200000286102295
77,0.6029639840126038,0.6700000166893005,0.5593369007110596,0.7200000286102295
78,0.5900137424468994,0.699999988079071,0.5583014488220215,0.7200000286102295
79,0.6023624539375305,0.6600000262260437,0.5571750998497009,0.7200000286102295
80,0.5489367842674255,0.7099999785423279,0.5560868978500366,0.7200000286102295
81,0.5990808606147766,0.6800000071525574,0.5550517439842224,0.7099999785423279
82,0.5640743374824524,0.7599999904632568,0.5540223121643066,0.7099999785423279
83,0.5945864319801331,0.7200000286102295,0.5529987215995789,0.7099999785423279
84,0.5712849497795105,0.7099999785423279,0.5520688891410828,0.7099999785423279
85,0.6200538873672485,0.6600000262260437,0.5510470867156982,0.7099999785423279
86,0.5653270483016968,0.75,0.5501052141189575,0.7099999785423279
87,0.5657917261123657,0.6899999976158142,0.5493080615997314,0.7099999785423279
88,0.6029483675956726,0.7200000286102295,0.5484485030174255,0.7099999785423279
89,0.6178878545761108,0.6700000166893005,0.5474472045898438,0.7099999785423279
90,0.5893561840057373,0.7400000095367432,0.5465294122695923,0.7099999785423279
91,0.5781779289245605,0.6800000071525574,0.545752763748169,0.7099999785423279
92,0.5642716288566589,0.6899999976158142,0.5448706150054932,0.7099999785423279
93,0.553861141204834,0.75,0.5440736413002014,0.7099999785423279
94,0.5515090227127075,0.7099999785423279,0.5431767702102661,0.7099999785423279
95,0.579861044883728,0.7099999785423279,0.5423233509063721,0.7099999785423279
96,0.5568781495094299,0.7300000190734863,0.541558563709259,0.7099999785423279
97,0.5335115194320679,0.7599999904632568,0.5408210754394531,0.7099999785423279
98,0.576556384563446,0.6800000071525574,0.5401052236557007,0.7099999785423279
99,0.5368730425834656,0.7200000286102295,0.5393573641777039,0.7099999785423279
100,0.5632681846618652,0.6700000166893005,0.5386450290679932,0.7099999785423279
101,0.5769628286361694,0.6800000071525574,0.5379058718681335,0.7099999785423279
102,0.6065549850463867,0.6499999761581421,0.5371505618095398,0.7099999785423279
103,0.5503247976303101,0.7699999809265137,0.5364437699317932,0.7099999785423279
104,0.563662052154541,0.7300000190734863,0.5357255339622498,0.7099999785423279
105,0.5899701118469238,0.6299999952316284,0.5350117683410645,0.7099999785423279
106,0.5452958941459656,0.7300000190734863,0.534301221370697,0.7099999785423279
107,0.5569897890090942,0.75,0.5336351990699768,0.7200000286102295
108,0.5445145964622498,0.75,0.5329021215438843,0.7200000286102295
109,0.5453333854675293,0.7200000286102295,0.5321831703186035,0.7200000286102295
110,0.5790634751319885,0.7099999785423279,0.5314737558364868,0.7200000286102295
111,0.5510249733924866,0.75,0.5308167338371277,0.7200000286102295
112,0.5153496265411377,0.7300000190734863,0.5301843881607056,0.7200000286102295
113,0.5722084641456604,0.699999988079071,0.529477059841156,0.7200000286102295
114,0.5401718616485596,0.7200000286102295,0.5288404226303101,0.7200000286102295
115,0.5446392893791199,0.7400000095367432,0.5282313823699951,0.7200000286102295
116,0.5441340208053589,0.7200000286102295,0.5276415348052979,0.7200000286102295
117,0.5306901335716248,0.7099999785423279,0.527012050151825,0.7200000286102295
118,0.5196142792701721,0.75,0.5263333320617676,0.7200000286102295
119,0.5674525499343872,0.7200000286102295,0.5257632732391357,0.7200000286102295
120,0.5730441212654114,0.7300000190734863,0.5251433849334717,0.7200000286102295
121,0.5368807911872864,0.7599999904632568,0.524447500705719,0.7200000286102295
122,0.5106360912322998,0.7599999904632568,0.523865282535553,0.7200000286102295
123,0.5343039035797119,0.7799999713897705,0.5232645869255066,0.7200000286102295
124,0.5560535192489624,0.6800000071525574,0.5226625204086304,0.7200000286102295
125,0.5313141345977783,0.75,0.5219841599464417,0.7200000286102295
126,0.5636598467826843,0.699999988079071,0.5213930010795593,0.7200000286102295
127,0.5741882920265198,0.6600000262260437,0.520765483379364,0.7200000286102295
128,0.5780218243598938,0.7400000095367432,0.5201351046562195,0.7200000286102295
129,0.5549066662788391,0.699999988079071,0.5195625424385071,0.7200000286102295
130,0.5359877943992615,0.7099999785423279,0.5190051198005676,0.7200000286102295
131,0.5152111649513245,0.7699999809265137,0.5183386206626892,0.7200000286102295
132,0.5206792950630188,0.699999988079071,0.5177202820777893,0.7200000286102295
133,0.539542555809021,0.7599999904632568,0.5171815752983093,0.7200000286102295
134,0.5570326447486877,0.7099999785423279,0.5166435837745667,0.7200000286102295
135,0.5585480332374573,0.75,0.5161293148994446,0.7200000286102295
136,0.5320491194725037,0.7200000286102295,0.5155329704284668,0.7200000286102295
137,0.533393144607544,0.7400000095367432,0.515005886554718,0.7200000286102295
138,0.5408623218536377,0.699999988079071,0.5144388675689697,0.7200000286102295
139,0.5350993871688843,0.6899999976158142,0.5138593316078186,0.7200000286102295
140,0.49754759669303894,0.7599999904632568,0.5133069753646851,0.7200000286102295
141,0.5186346173286438,0.699999988079071,0.5128238201141357,0.7300000190734863
142,0.5081274509429932,0.7599999904632568,0.5122938752174377,0.7300000190734863
143,0.5442752838134766,0.7200000286102295,0.5117369294166565,0.7400000095367432
144,0.5784027576446533,0.7099999785423279,0.51112300157547,0.7400000095367432
145,0.5153225660324097,0.7300000190734863,0.5105454921722412,0.7400000095367432
146,0.5028933882713318,0.7699999809265137,0.5100376009941101,0.7400000095367432
147,0.5439993143081665,0.7200000286102295,0.5094248652458191,0.7400000095367432
148,0.5249555706977844,0.7200000286102295,0.5089167952537537,0.7400000095367432
149,0.5107335448265076,0.7300000190734863,0.508281409740448,0.7400000095367432
150,0.49083849787712097,0.7400000095367432,0.5078426599502563,0.7400000095367432
151,0.5160143375396729,0.7400000095367432,0.5073521733283997,0.7400000095367432
152,0.5331143736839294,0.7699999809265137,0.506874680519104,0.7400000095367432
153,0.5009928345680237,0.7400000095367432,0.5064021944999695,0.7400000095367432
154,0.5155961513519287,0.7099999785423279,0.5059106945991516,0.7400000095367432
155,0.5268188714981079,0.7200000286102295,0.5053174495697021,0.7400000095367432
156,0.5112726092338562,0.75,0.504805862903595,0.7400000095367432
157,0.5313780903816223,0.75,0.5042860507965088,0.7400000095367432
158,0.5172927975654602,0.7400000095367432,0.503792405128479,0.7400000095367432
159,0.5115975737571716,0.7300000190734863,0.5032525062561035,0.7400000095367432
160,0.5398880243301392,0.7300000190734863,0.5027403831481934,0.7400000095367432
161,0.5093013048171997,0.7400000095367432,0.5021383762359619,0.7400000095367432
162,0.511904239654541,0.75,0.5016682147979736,0.7400000095367432
163,0.5050250887870789,0.7699999809265137,0.501132071018219,0.7400000095367432
164,0.509738028049469,0.75,0.5006225109100342,0.7400000095367432
165,0.5008441209793091,0.75,0.5001851916313171,0.7300000190734863
166,0.5278724431991577,0.7300000190734863,0.49977627396583557,0.7400000095367432
167,0.5258783102035522,0.7599999904632568,0.49927660822868347,0.7400000095367432
168,0.559215247631073,0.7200000286102295,0.4987187087535858,0.75
169,0.5508445501327515,0.75,0.49811306595802307,0.7599999904632568
170,0.5445965528488159,0.699999988079071,0.49768951535224915,0.7599999904632568
171,0.538191020488739,0.699999988079071,0.4972176253795624,0.7599999904632568
172,0.5494358539581299,0.6700000166893005,0.49666595458984375,0.7599999904632568
173,0.5278117060661316,0.7400000095367432,0.4960877299308777,0.7599999904632568
174,0.5166065692901611,0.7300000190734863,0.4956313669681549,0.7599999904632568
175,0.4944668710231781,0.7400000095367432,0.49514639377593994,0.7599999904632568
176,0.5188187956809998,0.75,0.494510293006897,0.7699999809265137
177,0.5364865660667419,0.7300000190734863,0.4939892292022705,0.7699999809265137
178,0.4980466365814209,0.75,0.49350258708000183,0.7699999809265137
179,0.5247002840042114,0.7200000286102295,0.4929881989955902,0.7699999809265137
180,0.5276128649711609,0.7099999785423279,0.4924924075603485,0.7799999713897705
181,0.5413235425949097,0.6899999976158142,0.49200326204299927,0.7799999713897705
182,0.5113903880119324,0.7300000190734863,0.4915890097618103,0.7799999713897705
183,0.4945564568042755,0.7300000190734863,0.491187185049057,0.7799999713897705
184,0.48291337490081787,0.7400000095367432,0.49077704548835754,0.7799999713897705
185,0.503146767616272,0.7599999904632568,0.49024707078933716,0.7900000214576721
186,0.508476197719574,0.7200000286102295,0.4896855652332306,0.7900000214576721
187,0.47456082701683044,0.7400000095367432,0.4892471730709076,0.800000011920929
188,0.4936627447605133,0.7699999809265137,0.48894408345222473,0.800000011920929
189,0.4952167272567749,0.75,0.4884292185306549,0.800000011920929
190,0.4851178824901581,0.7300000190734863,0.48793455958366394,0.8100000023841858
191,0.49165838956832886,0.7699999809265137,0.4874722957611084,0.8100000023841858
192,0.4936128854751587,0.7599999904632568,0.48696234822273254,0.8100000023841858
193,0.4897579848766327,0.7400000095367432,0.4865247309207916,0.8100000023841858
194,0.49428901076316833,0.75,0.48611438274383545,0.8100000023841858
195,0.48499298095703125,0.7799999713897705,0.4856877028942108,0.8100000023841858
196,0.4869364798069,0.7400000095367432,0.48522230982780457,0.8100000023841858
197,0.4884229898452759,0.75,0.48485779762268066,0.8100000023841858
198,0.46325016021728516,0.7599999904632568,0.48440834879875183,0.8100000023841858
199,0.5214123725891113,0.75,0.48403775691986084,0.8100000023841858
200,0.49323949217796326,0.699999988079071,0.4835367500782013,0.8100000023841858
201,0.47431227564811707,0.8100000023841858,0.48320311307907104,0.800000011920929
202,0.4834217131137848,0.7599999904632568,0.48275718092918396,0.800000011920929
203,0.499275803565979,0.7300000190734863,0.48227646946907043,0.800000011920929
204,0.5032305121421814,0.7699999809265137,0.48183342814445496,0.800000011920929
205,0.5171784162521362,0.7799999713897705,0.481405109167099,0.800000011920929
206,0.48333755135536194,0.7300000190734863,0.48093873262405396,0.800000011920929
207,0.4995751976966858,0.7799999713897705,0.48051533102989197,0.800000011920929
208,0.44220131635665894,0.7900000214576721,0.48018401861190796,0.800000011920929
209,0.48500579595565796,0.75,0.4797576069831848,0.8100000023841858
210,0.4980100989341736,0.75,0.47936829924583435,0.8100000023841858
211,0.48600780963897705,0.7699999809265137,0.47897574305534363,0.8100000023841858
212,0.47819557785987854,0.7799999713897705,0.4786536395549774,0.8100000023841858
213,0.4897019863128662,0.7400000095367432,0.4782176613807678,0.8100000023841858
214,0.4561726748943329,0.7699999809265137,0.4777713119983673,0.8100000023841858
215,0.4791833162307739,0.75,0.47737589478492737,0.8100000023841858
216,0.4981531500816345,0.7200000286102295,0.47690513730049133,0.8100000023841858
217,0.48553696274757385,0.7699999809265137,0.47650146484375,0.8100000023841858
218,0.4952433705329895,0.7400000095367432,0.4760676622390747,0.8100000023841858
219,0.5034025311470032,0.7699999809265137,0.4757166802883148,0.8100000023841858
220,0.47156471014022827,0.7099999785423279,0.47527870535850525,0.8100000023841858
221,0.4663268029689789,0.7799999713897705,0.47491100430488586,0.8100000023841858
222,0.4725014567375183,0.75,0.4745381474494934,0.8100000023841858
223,0.48229584097862244,0.7699999809265137,0.4741252064704895,0.8100000023841858
224,0.49448829889297485,0.75,0.4738086462020874,0.8100000023841858
225,0.4865752160549164,0.75,0.4733952283859253,0.8100000023841858
226,0.49648600816726685,0.7699999809265137,0.47294333577156067,0.8100000023841858
227,0.49426865577697754,0.75,0.4725930094718933,0.8100000023841858
228,0.5217230916023254,0.75,0.4722164273262024,0.8100000023841858
229,0.5000415444374084,0.7699999809265137,0.47176051139831543,0.8100000023841858
230,0.47325170040130615,0.7699999809265137,0.4714198708534241,0.8100000023841858
231,0.481942743062973,0.7300000190734863,0.47110000252723694,0.8100000023841858
232,0.44504791498184204,0.7699999809265137,0.47076666355133057,0.8100000023841858
233,0.4686730206012726,0.7400000095367432,0.47038403153419495,0.8100000023841858
234,0.47123923897743225,0.7900000214576721,0.47005459666252136,0.8100000023841858
235,0.5031822323799133,0.7599999904632568,0.46976715326309204,0.8100000023841858
236,0.4886605143547058,0.6700000166893005,0.469369500875473,0.8100000023841858
237,0.48900219798088074,0.7200000286102295,0.46894019842147827,0.8100000023841858
238,0.48536938428878784,0.7699999809265137,0.4685138463973999,0.8100000023841858
239,0.46119993925094604,0.7699999809265137,0.46809613704681396,0.8100000023841858
240,0.44773051142692566,0.7799999713897705,0.4677416980266571,0.8100000023841858
241,0.47789421677589417,0.7599999904632568,0.46739661693573,0.8100000023841858
242,0.502407968044281,0.75,0.4669252634048462,0.8100000023841858
243,0.460927814245224,0.7300000190734863,0.46651947498321533,0.8100000023841858
244,0.4982467591762543,0.7699999809265137,0.4662525951862335,0.8100000023841858
245,0.4515877068042755,0.7900000214576721,0.4659620225429535,0.8100000023841858
246,0.47558486461639404,0.7599999904632568,0.4654982388019562,0.8100000023841858
247,0.48146116733551025,0.7900000214576721,0.4651124179363251,0.8100000023841858
248,0.481814980506897,0.7699999809265137,0.46472811698913574,0.8100000023841858
249,0.4859747290611267,0.7400000095367432,0.46431946754455566,0.8100000023841858
250,0.4528024196624756,0.7799999713897705,0.4639746844768524,0.8100000023841858
251,0.4782322943210602,0.7799999713897705,0.46362853050231934,0.8100000023841858
252,0.49160751700401306,0.7699999809265137,0.4632245600223541,0.8100000023841858
253,0.48336490988731384,0.7400000095367432,0.4628317654132843,0.8100000023841858
254,0.4863056242465973,0.7300000190734863,0.46243685483932495,0.8100000023841858
255,0.4573743939399719,0.800000011920929,0.4620800018310547,0.8100000023841858
256,0.47355878353118896,0.7599999904632568,0.46172472834587097,0.8100000023841858
257,0.46937957406044006,0.800000011920929,0.4613955616950989,0.8100000023841858
258,0.4629398584365845,0.7900000214576721,0.4610593318939209,0.8100000023841858
259,0.4740327000617981,0.7900000214576721,0.46065232157707214,0.8100000023841858
260,0.46043556928634644,0.7799999713897705,0.4603632092475891,0.8100000023841858
261,0.49735814332962036,0.7599999904632568,0.46008560061454773,0.8100000023841858
262,0.42955416440963745,0.8100000023841858,0.4596557915210724,0.8100000023841858
263,0.4506639540195465,0.7900000214576721,0.4591890275478363,0.8100000023841858
264,0.43220558762550354,0.8199999928474426,0.45893383026123047,0.8100000023841858
265,0.46181580424308777,0.800000011920929,0.4586629867553711,0.8100000023841858
266,0.47245150804519653,0.7799999713897705,0.4583776891231537,0.800000011920929
267,0.4496893286705017,0.7699999809265137,0.45799100399017334,0.800000011920929
268,0.4384015202522278,0.800000011920929,0.4576847553253174,0.800000011920929
269,0.46085911989212036,0.7799999713897705,0.4573753774166107,0.800000011920929
270,0.4363294541835785,0.8100000023841858,0.45699259638786316,0.800000011920929
271,0.4600070118904114,0.7900000214576721,0.456583708524704,0.800000011920929
272,0.4444524347782135,0.8299999833106995,0.45629197359085083,0.800000011920929
273,0.47747108340263367,0.7099999785423279,0.45589524507522583,0.800000011920929
274,0.48019832372665405,0.75,0.4555542469024658,0.800000011920929
275,0.4410662055015564,0.8100000023841858,0.45517680048942566,0.800000011920929
276,0.46651703119277954,0.75,0.4548037052154541,0.800000011920929
277,0.4113598167896271,0.7900000214576721,0.45450180768966675,0.800000011920929
278,0.45905640721321106,0.7900000214576721,0.4542135000228882,0.800000011920929
279,0.4635776877403259,0.7799999713897705,0.45390188694000244,0.800000011920929
280,0.44575196504592896,0.7699999809265137,0.45359233021736145,0.800000011920929
281,0.44459182024002075,0.7799999713897705,0.4532816410064697,0.800000011920929
282,0.44669589400291443,0.8100000023841858,0.452920138835907,0.800000011920929
283,0.4744749069213867,0.7799999713897705,0.4525611102581024,0.800000011920929
284,0.46961653232574463,0.75,0.4522383213043213,0.800000011920929
285,0.41613635420799255,0.8199999928474426,0.45199161767959595,0.800000011920929
286,0.43311482667922974,0.8199999928474426,0.4517246186733246,0.800000011920929
287,0.4755169749259949,0.7699999809265137,0.4514087736606598,0.800000011920929
288,0.4551982879638672,0.7900000214576721,0.45108047127723694,0.800000011920929
289,0.44382596015930176,0.7699999809265137,0.450740247964859,0.800000011920929
290,0.4309627413749695,0.8199999928474426,0.4503765404224396,0.800000011920929
291,0.4552086591720581,0.7900000214576721,0.4501122534275055,0.800000011920929
292,0.43795835971832275,0.8199999928474426,0.44976451992988586,0.800000011920929
293,0.42808037996292114,0.7699999809265137,0.44955283403396606,0.800000011920929
294,0.44275420904159546,0.75,0.4492332339286804,0.800000011920929
295,0.4495546221733093,0.8199999928474426,0.44894084334373474,0.800000011920929
296,0.4610685110092163,0.7599999904632568,0.4485706686973572,0.800000011920929
297,0.4923863112926483,0.7300000190734863,0.4482589364051819,0.800000011920929
298,0.4355878531932831,0.8100000023841858,0.44802215695381165,0.800000011920929
299,0.4570085108280182,0.7900000214576721,0.4476715922355652,0.800000011920929
300,0.48476773500442505,0.7599999904632568,0.4473772346973419,0.800000011920929
301,0.45061495900154114,0.7900000214576721,0.4471248686313629,0.800000011920929
302,0.45790785551071167,0.7699999809265137,0.4467860162258148,0.800000011920929
303,0.44573578238487244,0.800000011920929,0.4464997351169586,0.800000011920929
304,0.4773593842983246,0.7599999904632568,0.4463139772415161,0.800000011920929
305,0.45360779762268066,0.8100000023841858,0.44608214497566223,0.800000011920929
306,0.4229677617549896,0.8299999833106995,0.4457937180995941,0.800000011920929
307,0.4349118173122406,0.7900000214576721,0.4455164968967438,0.800000011920929
308,0.4975123107433319,0.7300000190734863,0.445170521736145,0.800000011920929
309,0.4121772050857544,0.800000011920929,0.4448867440223694,0.800000011920929
310,0.44524189829826355,0.7599999904632568,0.4445890784263611,0.8100000023841858
311,0.42137467861175537,0.800000011920929,0.4443201720714569,0.8100000023841858
312,0.4552997648715973,0.7400000095367432,0.4440267086029053,0.8100000023841858
313,0.4532102942466736,0.7900000214576721,0.4437844753265381,0.8100000023841858
314,0.46839281916618347,0.7900000214576721,0.44362199306488037,0.8100000023841858
315,0.4444146752357483,0.8100000023841858,0.443378210067749,0.8100000023841858
316,0.4340084195137024,0.8100000023841858,0.4429616928100586,0.8100000023841858
317,0.4861672520637512,0.75,0.44262489676475525,0.8100000023841858
318,0.45545846223831177,0.7599999904632568,0.44242194294929504,0.8199999928474426
319,0.45226654410362244,0.7599999904632568,0.44222310185432434,0.8100000023841858
320,0.4114590585231781,0.8199999928474426,0.44196832180023193,0.8199999928474426
321,0.48006734251976013,0.7900000214576721,0.4417846202850342,0.8199999928474426
322,0.4158504009246826,0.800000011920929,0.4416433572769165,0.8199999928474426
323,0.42902058362960815,0.7799999713897705,0.4413538873195648,0.8199999928474426
324,0.4131486117839813,0.8199999928474426,0.44105178117752075,0.8199999928474426
325,0.4479115307331085,0.7799999713897705,0.4406808912754059,0.8199999928474426
326,0.46587973833084106,0.7699999809265137,0.4404105842113495,0.8199999928474426
327,0.4568738639354706,0.75,0.4402048885822296,0.8199999928474426
328,0.4665277898311615,0.7699999809265137,0.439965158700943,0.8199999928474426
329,0.45169079303741455,0.800000011920929,0.4397321045398712,0.8199999928474426
330,0.407990425825119,0.7799999713897705,0.43951454758644104,0.8199999928474426
331,0.43192794919013977,0.800000011920929,0.4391847252845764,0.8199999928474426
332,0.4367387890815735,0.800000011920929,0.43895065784454346,0.8199999928474426
333,0.42946556210517883,0.7900000214576721,0.43873539566993713,0.8199999928474426
334,0.45260635018348694,0.8299999833106995,0.4384825825691223,0.8199999928474426
335,0.4502028524875641,0.8199999928474426,0.4382154047489166,0.8199999928474426
336,0.44524726271629333,0.7900000214576721,0.4379228353500366,0.8199999928474426
337,0.4667576551437378,0.800000011920929,0.43778470158576965,0.8199999928474426
338,0.46178779006004333,0.800000011920929,0.4374377429485321,0.8199999928474426
339,0.44099652767181396,0.7900000214576721,0.43727409839630127,0.8199999928474426
340,0.43717271089553833,0.7900000214576721,0.43703269958496094,0.8199999928474426
341,0.46427369117736816,0.7400000095367432,0.43673941493034363,0.8199999928474426
342,0.46131813526153564,0.7599999904632568,0.4365100860595703,0.8199999928474426
343,0.41434726119041443,0.8399999737739563,0.4362781047821045,0.8199999928474426
344,0.43172523379325867,0.8199999928474426,0.4360054135322571,0.8199999928474426
345,0.4412628412246704,0.7799999713897705,0.4356628656387329,0.8199999928474426
346,0.437837153673172,0.7699999809265137,0.43532809615135193,0.8199999928474426
347,0.47174888849258423,0.7200000286102295,0.43504780530929565,0.8199999928474426
348,0.4359267055988312,0.8199999928474426,0.4347912669181824,0.8199999928474426
349,0.4419495761394501,0.8100000023841858,0.43456512689590454,0.8199999928474426
350,0.4280346632003784,0.7900000214576721,0.4343419373035431,0.8199999928474426
351,0.41561999917030334,0.7900000214576721,0.43413135409355164,0.8199999928474426
352,0.4448813498020172,0.7799999713897705,0.4339815378189087,0.8199999928474426
353,0.4168238341808319,0.8100000023841858,0.43376269936561584,0.8199999928474426
354,0.446212500333786,0.7799999713897705,0.4335901141166687,0.8199999928474426
355,0.4553438127040863,0.7799999713897705,0.43342098593711853,0.8199999928474426
356,0.44257092475891113,0.800000011920929,0.4332488179206848,0.8199999928474426
357,0.4679979085922241,0.7400000095367432,0.4331185817718506,0.8199999928474426
358,0.44011780619621277,0.8299999833106995,0.4329264461994171,0.8199999928474426
359,0.4065192937850952,0.800000011920929,0.43266531825065613,0.8199999928474426
360,0.44194385409355164,0.7699999809265137,0.4324495792388916,0.8199999928474426
361,0.46513915061950684,0.7699999809265137,0.43223655223846436,0.8199999928474426
362,0.4131890535354614,0.8100000023841858,0.43192002177238464,0.8199999928474426
363,0.4183562994003296,0.800000011920929,0.4317096471786499,0.8199999928474426
364,0.41760241985321045,0.7900000214576721,0.43154698610305786,0.8199999928474426
365,0.41891419887542725,0.8100000023841858,0.4314963221549988,0.8199999928474426
366,0.3904123604297638,0.8399999737739563,0.43135884404182434,0.8199999928474426
367,0.4342871606349945,0.8100000023841858,0.4311888813972473,0.8199999928474426
368,0.4416433572769165,0.7799999713897705,0.43091869354248047,0.8199999928474426
369,0.43059128522872925,0.7699999809265137,0.43070802092552185,0.8199999928474426
370,0.4209429919719696,0.7799999713897705,0.43046340346336365,0.8199999928474426
371,0.44425511360168457,0.7699999809265137,0.43030020594596863,0.8199999928474426
372,0.40616166591644287,0.800000011920929,0.43012240529060364,0.8199999928474426
373,0.41646286845207214,0.8199999928474426,0.4299292266368866,0.8199999928474426
374,0.4169033169746399,0.8199999928474426,0.4297529458999634,0.8199999928474426
375,0.4328944683074951,0.8199999928474426,0.4295828938484192,0.8199999928474426
376,0.4103318452835083,0.800000011920929,0.4293646216392517,0.8199999928474426
377,0.4074357748031616,0.8199999928474426,0.42919525504112244,0.8199999928474426
378,0.4179043471813202,0.800000011920929,0.4288734495639801,0.8199999928474426
379,0.4244411587715149,0.800000011920929,0.4286840558052063,0.8199999928474426
380,0.39472687244415283,0.8299999833106995,0.42847833037376404,0.8199999928474426
381,0.43203914165496826,0.7799999713897705,0.42839109897613525,0.8199999928474426
382,0.41071444749832153,0.7699999809265137,0.4281911551952362,0.8199999928474426
383,0.4466521143913269,0.75,0.4278811514377594,0.8199999928474426
384,0.4196244180202484,0.8199999928474426,0.42769038677215576,0.8199999928474426
385,0.3971692621707916,0.8199999928474426,0.4276063144207001,0.8199999928474426
386,0.4016789197921753,0.8399999737739563,0.42742252349853516,0.8199999928474426
387,0.39937853813171387,0.8100000023841858,0.4272906184196472,0.8199999928474426
388,0.43491485714912415,0.7900000214576721,0.42709147930145264,0.8199999928474426
389,0.4177851974964142,0.800000011920929,0.4269191026687622,0.8199999928474426
390,0.42180392146110535,0.7799999713897705,0.42665576934814453,0.8199999928474426
391,0.43396857380867004,0.8100000023841858,0.4265144467353821,0.8199999928474426
392,0.4098252058029175,0.8100000023841858,0.4262182116508484,0.8199999928474426
393,0.44766151905059814,0.7900000214576721,0.42596450448036194,0.8199999928474426
394,0.4343382716178894,0.7699999809265137,0.4257482588291168,0.8199999928474426
395,0.4205477237701416,0.7799999713897705,0.42558208107948303,0.8199999928474426
396,0.4089750051498413,0.7799999713897705,0.4254540205001831,0.8199999928474426
397,0.4335070848464966,0.8199999928474426,0.4252244532108307,0.8199999928474426
398,0.41791194677352905,0.8199999928474426,0.424993634223938,0.8199999928474426
399,0.42037224769592285,0.8100000023841858,0.42475029826164246,0.8199999928474426
400,0.4124225974082947,0.7900000214576721,0.4245050549507141,0.8199999928474426
401,0.3956618010997772,0.8199999928474426,0.42436325550079346,0.8199999928474426
402,0.44352245330810547,0.7699999809265137,0.42407894134521484,0.8199999928474426
403,0.4277718663215637,0.800000011920929,0.423980176448822,0.8199999928474426
404,0.4269678592681885,0.7900000214576721,0.4238632619380951,0.8100000023841858
405,0.39751335978507996,0.8500000238418579,0.42376092076301575,0.8100000023841858
406,0.428432822227478,0.8299999833106995,0.42355623841285706,0.8100000023841858
407,0.3944858908653259,0.7900000214576721,0.4233824908733368,0.8100000023841858
408,0.38422736525535583,0.8399999737739563,0.42327770590782166,0.8100000023841858
409,0.42304736375808716,0.7900000214576721,0.4230303168296814,0.8100000023841858
410,0.4540361762046814,0.8199999928474426,0.4228522479534149,0.8100000023841858
411,0.3696214258670807,0.8399999737739563,0.4227476119995117,0.8100000023841858
412,0.44114792346954346,0.7200000286102295,0.422599196434021,0.8100000023841858
413,0.46302223205566406,0.7699999809265137,0.4224213659763336,0.8100000023841858
414,0.4288100004196167,0.800000011920929,0.4222131371498108,0.8100000023841858
415,0.3897821009159088,0.8500000238418579,0.4220724105834961,0.8100000023841858
416,0.4210788607597351,0.800000011920929,0.4219556450843811,0.8100000023841858
417,0.4023304283618927,0.8199999928474426,0.4218996465206146,0.8100000023841858
418,0.4198221266269684,0.8100000023841858,0.42169299721717834,0.8100000023841858
419,0.40215569734573364,0.8500000238418579,0.42154061794281006,0.8100000023841858
420,0.43118035793304443,0.7900000214576721,0.42144492268562317,0.8100000023841858
421,0.4210798740386963,0.8299999833106995,0.42135563492774963,0.8100000023841858
422,0.3918980062007904,0.8199999928474426,0.42124104499816895,0.8100000023841858
423,0.39044609665870667,0.8100000023841858,0.42098453640937805,0.8100000023841858
424,0.41294142603874207,0.7799999713897705,0.420829176902771,0.8100000023841858
425,0.43104225397109985,0.75,0.4206334054470062,0.8100000023841858
426,0.42551425099372864,0.7799999713897705,0.4203647971153259,0.8100000023841858
427,0.4210861623287201,0.7799999713897705,0.42018797993659973,0.8100000023841858
428,0.3831084370613098,0.800000011920929,0.42001068592071533,0.8100000023841858
429,0.4278946816921234,0.7699999809265137,0.4198521077632904,0.8100000023841858
430,0.39179110527038574,0.8500000238418579,0.41971999406814575,0.8100000023841858
431,0.41631606221199036,0.8100000023841858,0.41957223415374756,0.8100000023841858
432,0.39657413959503174,0.8100000023841858,0.4194554388523102,0.8100000023841858
433,0.4210699498653412,0.8199999928474426,0.4193897545337677,0.8100000023841858
434,0.425150066614151,0.7699999809265137,0.41916972398757935,0.8100000023841858
435,0.40326249599456787,0.8100000023841858,0.419094055891037,0.8100000023841858
436,0.4448777735233307,0.8100000023841858,0.4189832806587219,0.8100000023841858
437,0.42874962091445923,0.800000011920929,0.4188671112060547,0.8100000023841858
438,0.4078708589076996,0.8399999737739563,0.4187009334564209,0.8100000023841858
439,0.39981216192245483,0.800000011920929,0.4185439646244049,0.8100000023841858
440,0.38725385069847107,0.8299999833106995,0.4184092581272125,0.8100000023841858
441,0.4036439061164856,0.8600000143051147,0.41818767786026,0.8199999928474426
442,0.4104174077510834,0.7799999713897705,0.41799208521842957,0.8199999928474426
443,0.41777265071868896,0.800000011920929,0.41787850856781006,0.8199999928474426
444,0.4010663628578186,0.8199999928474426,0.4178047180175781,0.8199999928474426
445,0.4196441173553467,0.7799999713897705,0.41773712635040283,0.8199999928474426
446,0.41177645325660706,0.8199999928474426,0.41761326789855957,0.8199999928474426
447,0.4274198114871979,0.7900000214576721,0.417567640542984,0.8199999928474426
448,0.38010871410369873,0.8600000143051147,0.4173964560031891,0.8199999928474426
449,0.39989230036735535,0.7799999713897705,0.4172106683254242,0.8199999928474426
450,0.400685578584671,0.8199999928474426,0.41713786125183105,0.8199999928474426
451,0.39797142148017883,0.8600000143051147,0.41703441739082336,0.8199999928474426
452,0.4249030351638794,0.7900000214576721,0.41687309741973877,0.8199999928474426
453,0.39183929562568665,0.8100000023841858,0.41672828793525696,0.8199999928474426
454,0.3933686316013336,0.8299999833106995,0.41663509607315063,0.8199999928474426
455,0.39940524101257324,0.8500000238418579,0.41644057631492615,0.8199999928474426
456,0.4355024993419647,0.7900000214576721,0.41631054878234863,0.8199999928474426
457,0.39983487129211426,0.8299999833106995,0.41614651679992676,0.8199999928474426
458,0.3887662887573242,0.8199999928474426,0.41610175371170044,0.8199999928474426
459,0.40031513571739197,0.8299999833106995,0.4159190356731415,0.8199999928474426
460,0.39877849817276,0.8199999928474426,0.4157620370388031,0.8199999928474426
461,0.4675918519496918,0.7599999904632568,0.41562601923942566,0.8199999928474426
462,0.3676028549671173,0.8700000047683716,0.41556042432785034,0.8199999928474426
463,0.44507843255996704,0.7900000214576721,0.41550692915916443,0.8199999928474426
464,0.4071744680404663,0.800000011920929,0.41535940766334534,0.8199999928474426
465,0.401615172624588,0.800000011920929,0.41529059410095215,0.8199999928474426
466,0.40477779507637024,0.8100000023841858,0.4151332378387451,0.8199999928474426
467,0.4099874198436737,0.7900000214576721,0.4149235785007477,0.8199999928474426
468,0.4378974437713623,0.8299999833106995,0.4148310124874115,0.8199999928474426
469,0.4016216993331909,0.8399999737739563,0.41477927565574646,0.8199999928474426
470,0.40411463379859924,0.8199999928474426,0.41453781723976135,0.8199999928474426
471,0.429670512676239,0.7699999809265137,0.41444969177246094,0.8199999928474426
472,0.40633633732795715,0.7799999713897705,0.41437476873397827,0.8199999928474426
473,0.3966226875782013,0.8100000023841858,0.41419312357902527,0.8199999928474426
474,0.3671177327632904,0.8199999928474426,0.4140373170375824,0.8199999928474426
475,0.3956202566623688,0.8199999928474426,0.41390013694763184,0.8199999928474426
476,0.38022857904434204,0.8299999833106995,0.41388610005378723,0.8199999928474426
477,0.39381229877471924,0.800000011920929,0.41378501057624817,0.8199999928474426
478,0.40133702754974365,0.800000011920929,0.41371944546699524,0.8199999928474426
479,0.40702325105667114,0.8399999737739563,0.41373303532600403,0.8199999928474426
480,0.3950151801109314,0.7900000214576721,0.4135929048061371,0.8199999928474426
481,0.41897812485694885,0.800000011920929,0.41348251700401306,0.8199999928474426
482,0.38486626744270325,0.8399999737739563,0.41335010528564453,0.8199999928474426
483,0.3747934103012085,0.8199999928474426,0.41321858763694763,0.8199999928474426
484,0.41438576579093933,0.7900000214576721,0.4131637215614319,0.8199999928474426
485,0.3761490285396576,0.8500000238418579,0.4130186438560486,0.8199999928474426
486,0.36318787932395935,0.8299999833106995,0.4128722846508026,0.8199999928474426
487,0.36434805393218994,0.8199999928474426,0.4126203656196594,0.8100000023841858
488,0.38382625579833984,0.8199999928474426,0.41250741481781006,0.8100000023841858
489,0.38650181889533997,0.8399999737739563,0.41240477561950684,0.8100000023841858
490,0.41910186409950256,0.8399999737739563,0.4122729003429413,0.8100000023841858
491,0.4050593674182892,0.7900000214576721,0.4121781885623932,0.8100000023841858
492,0.4189697206020355,0.8299999833106995,0.41217041015625,0.8100000023841858
493,0.38117295503616333,0.8100000023841858,0.4120919108390808,0.8100000023841858
494,0.4112442433834076,0.7900000214576721,0.41190749406814575,0.8100000023841858
495,0.36942043900489807,0.8399999737739563,0.41175973415374756,0.8100000023841858
496,0.38494426012039185,0.7799999713897705,0.4116939306259155,0.8100000023841858
497,0.39456766843795776,0.8199999928474426,0.4116707742214203,0.8100000023841858
498,0.32620346546173096,0.8600000143051147,0.4115638732910156,0.8100000023841858
499,0.42328259348869324,0.8299999833106995,0.41146138310432434,0.8100000023841858
500,0.382259726524353,0.8100000023841858,0.41132426261901855,0.8100000023841858
501,0.3648543059825897,0.8199999928474426,0.4112387001514435,0.8100000023841858
502,0.39805448055267334,0.8199999928474426,0.41106364130973816,0.8100000023841858
503,0.37101295590400696,0.8600000143051147,0.4109593629837036,0.8100000023841858
504,0.3584102690219879,0.8399999737739563,0.41086649894714355,0.8100000023841858
505,0.4028933346271515,0.8299999833106995,0.4108264446258545,0.8100000023841858
506,0.3964903652667999,0.8199999928474426,0.4106784164905548,0.8100000023841858
507,0.4108577072620392,0.800000011920929,0.4105527997016907,0.8100000023841858
508,0.36043521761894226,0.8399999737739563,0.41044291853904724,0.8100000023841858
509,0.406872034072876,0.8100000023841858,0.4103102385997772,0.8100000023841858
510,0.3936708867549896,0.7900000214576721,0.4100829064846039,0.8100000023841858
511,0.3786788582801819,0.8299999833106995,0.40994933247566223,0.8100000023841858
512,0.3694917559623718,0.8199999928474426,0.4098111689090729,0.8100000023841858
513,0.3527192175388336,0.8700000047683716,0.4097162187099457,0.8100000023841858
514,0.4131728708744049,0.7799999713897705,0.40960070490837097,0.8100000023841858
515,0.3826378583908081,0.8299999833106995,0.4095315933227539,0.8100000023841858
516,0.40936508774757385,0.800000011920929,0.40942928194999695,0.8100000023841858
517,0.37820595502853394,0.8299999833106995,0.4093051850795746,0.8100000023841858
518,0.3714543879032135,0.8199999928474426,0.4091469645500183,0.8100000023841858
519,0.40695109963417053,0.800000011920929,0.40898674726486206,0.8100000023841858
520,0.3814601004123688,0.8600000143051147,0.40891239047050476,0.8100000023841858
521,0.39547064900398254,0.8199999928474426,0.40869495272636414,0.8100000023841858
522,0.36570441722869873,0.8299999833106995,0.4085543155670166,0.8100000023841858
523,0.44357597827911377,0.800000011920929,0.4084566533565521,0.8100000023841858
524,0.3724917471408844,0.8299999833106995,0.40845397114753723,0.8100000023841858
525,0.4142668843269348,0.800000011920929,0.408296138048172,0.8100000023841858
526,0.3675135672092438,0.8399999737739563,0.4081849157810211,0.8100000023841858
527,0.38889971375465393,0.8199999928474426,0.40811172127723694,0.8100000023841858
528,0.3817504644393921,0.8500000238418579,0.4080817699432373,0.8100000023841858
529,0.413662314414978,0.800000011920929,0.4079626798629761,0.8100000023841858
530,0.38544097542762756,0.8100000023841858,0.40783756971359253,0.8100000023841858
531,0.3738751709461212,0.8500000238418579,0.40767332911491394,0.8100000023841858
532,0.4071688950061798,0.8100000023841858,0.40752890706062317,0.8100000023841858
533,0.4126136898994446,0.8100000023841858,0.4074437618255615,0.8100000023841858
534,0.3761465549468994,0.8100000023841858,0.40732958912849426,0.8100000023841858
535,0.37669169902801514,0.8500000238418579,0.4072737991809845,0.8100000023841858
536,0.36703696846961975,0.8199999928474426,0.4071749746799469,0.8100000023841858
537,0.4492993950843811,0.7900000214576721,0.40692535042762756,0.8100000023841858
538,0.4179694354534149,0.8100000023841858,0.4068179726600647,0.8100000023841858
539,0.4067250192165375,0.7799999713897705,0.40669935941696167,0.8100000023841858
540,0.39624202251434326,0.8299999833106995,0.40663155913352966,0.8100000023841858
541,0.41332316398620605,0.8199999928474426,0.4065501093864441,0.8100000023841858
542,0.38129565119743347,0.8399999737739563,0.40644457936286926,0.8100000023841858
543,0.37707245349884033,0.800000011920929,0.4063335359096527,0.8100000023841858
544,0.4238257110118866,0.8299999833106995,0.4060729146003723,0.8100000023841858
545,0.3960273265838623,0.800000011920929,0.40605640411376953,0.8100000023841858
546,0.38310471177101135,0.8100000023841858,0.4059488773345947,0.8100000023841858
547,0.3691764771938324,0.8500000238418579,0.40589576959609985,0.8100000023841858
548,0.35830479860305786,0.8700000047683716,0.40585002303123474,0.8100000023841858
549,0.36404600739479065,0.8399999737739563,0.40573737025260925,0.8100000023841858
550,0.37145936489105225,0.8399999737739563,0.4056239724159241,0.8100000023841858
551,0.39534395933151245,0.8100000023841858,0.40553855895996094,0.8100000023841858
552,0.3851625919342041,0.8399999737739563,0.40546664595603943,0.8100000023841858
553,0.3725011348724365,0.8399999737739563,0.4053502678871155,0.8100000023841858
554,0.38752636313438416,0.7799999713897705,0.405239075422287,0.8100000023841858
555,0.37799590826034546,0.8500000238418579,0.4052239954471588,0.8100000023841858
556,0.366692453622818,0.8199999928474426,0.4050980806350708,0.8100000023841858
557,0.3681291937828064,0.8399999737739563,0.40510275959968567,0.8100000023841858
558,0.4152848720550537,0.8299999833106995,0.4050496220588684,0.8100000023841858
559,0.3641658127307892,0.8199999928474426,0.4050019383430481,0.8100000023841858
560,0.36641350388526917,0.8100000023841858,0.40494370460510254,0.8100000023841858
561,0.3640691637992859,0.8399999737739563,0.40491339564323425,0.8100000023841858
562,0.3657900094985962,0.8399999737739563,0.4048685133457184,0.8100000023841858
563,0.37478092312812805,0.8299999833106995,0.4047040641307831,0.8199999928474426
564,0.35604017972946167,0.8500000238418579,0.40460285544395447,0.8100000023841858
565,0.38772526383399963,0.8100000023841858,0.40450385212898254,0.8100000023841858
566,0.3750440180301666,0.8199999928474426,0.40449202060699463,0.8100000023841858
567,0.387323796749115,0.8399999737739563,0.4043770134449005,0.8100000023841858
568,0.35204875469207764,0.8399999737739563,0.4042274057865143,0.8100000023841858
569,0.3555127680301666,0.8600000143051147,0.40405967831611633,0.8100000023841858
570,0.3560558259487152,0.8700000047683716,0.40401947498321533,0.8100000023841858
571,0.36772918701171875,0.8299999833106995,0.40396785736083984,0.8100000023841858
572,0.38284510374069214,0.8100000023841858,0.40390220284461975,0.8100000023841858
573,0.3730345070362091,0.8500000238418579,0.40383198857307434,0.8100000023841858
574,0.40734273195266724,0.8399999737739563,0.403647780418396,0.8100000023841858
575,0.4218566119670868,0.8100000023841858,0.4035017490386963,0.8100000023841858
576,0.35837242007255554,0.8500000238418579,0.4035073518753052,0.8100000023841858
577,0.3937026858329773,0.8199999928474426,0.4034210443496704,0.8100000023841858
578,0.37795430421829224,0.8199999928474426,0.4034351110458374,0.8100000023841858
579,0.36060631275177,0.8100000023841858,0.40335047245025635,0.8100000023841858
580,0.38816511631011963,0.800000011920929,0.4032180905342102,0.8100000023841858
581,0.36454105377197266,0.8399999737739563,0.4031248092651367,0.8100000023841858
582,0.38019466400146484,0.8399999737739563,0.4030880630016327,0.8100000023841858
583,0.35443785786628723,0.8399999737739563,0.403035432100296,0.8100000023841858
584,0.34904420375823975,0.8500000238418579,0.4029881954193115,0.8100000023841858
585,0.39224639534950256,0.8100000023841858,0.4028633236885071,0.8100000023841858
586,0.39520272612571716,0.800000011920929,0.4027377665042877,0.8100000023841858
587,0.35870838165283203,0.8600000143051147,0.4026966989040375,0.8100000023841858
588,0.35624927282333374,0.8299999833106995,0.4026535749435425,0.8100000023841858
589,0.3802213966846466,0.8399999737739563,0.4025973379611969,0.8100000023841858
590,0.38710159063339233,0.800000011920929,0.4025406539440155,0.8100000023841858
591,0.37874341011047363,0.8299999833106995,0.40242576599121094,0.8100000023841858
592,0.382175087928772,0.8500000238418579,0.4023319184780121,0.8100000023841858
593,0.40872493386268616,0.8100000023841858,0.4022965729236603,0.8100000023841858
594,0.3989715576171875,0.800000011920929,0.40234869718551636,0.8100000023841858
595,0.3450561463832855,0.8500000238418579,0.40226879715919495,0.8100000023841858
596,0.36109939217567444,0.8399999737739563,0.4021722674369812,0.8100000023841858
597,0.367371529340744,0.8500000238418579,0.4020916223526001,0.8100000023841858
598,0.3678057789802551,0.8299999833106995,0.40203163027763367,0.8100000023841858
599,0.36186492443084717,0.8299999833106995,0.40196487307548523,0.8100000023841858
600,0.3639998733997345,0.8299999833106995,0.40185490250587463,0.8100000023841858
601,0.3499743640422821,0.8700000047683716,0.40186214447021484,0.8100000023841858
602,0.3611324429512024,0.8500000238418579,0.4018012285232544,0.8100000023841858
603,0.3499850332736969,0.8600000143051147,0.40177279710769653,0.8100000023841858
604,0.36522576212882996,0.8500000238418579,0.4017249345779419,0.8100000023841858
605,0.36782482266426086,0.8199999928474426,0.4016589820384979,0.8100000023841858
606,0.3627234995365143,0.8199999928474426,0.40163180232048035,0.8100000023841858
607,0.3839111328125,0.800000011920929,0.4016294479370117,0.8100000023841858
608,0.3786237835884094,0.8399999737739563,0.4015268087387085,0.8100000023841858
609,0.3393404483795166,0.8500000238418579,0.40147513151168823,0.8100000023841858
610,0.36141303181648254,0.8399999737739563,0.40135911107063293,0.8100000023841858
611,0.3402864336967468,0.8700000047683716,0.401168555021286,0.8100000023841858
612,0.367405503988266,0.8399999737739563,0.40115028619766235,0.8100000023841858
613,0.3392329812049866,0.8600000143051147,0.40110042691230774,0.8100000023841858
614,0.35313576459884644,0.8199999928474426,0.40103259682655334,0.8100000023841858
615,0.33018380403518677,0.8799999952316284,0.4009675681591034,0.8100000023841858
616,0.37757864594459534,0.8299999833106995,0.4009299576282501,0.8100000023841858
617,0.32412654161453247,0.8600000143051147,0.4009091258049011,0.8100000023841858
618,0.3599872589111328,0.8700000047683716,0.4007752537727356,0.8100000023841858
619,0.3598461151123047,0.8299999833106995,0.4007014334201813,0.8100000023841858
620,0.382254421710968,0.800000011920929,0.40064752101898193,0.8100000023841858
621,0.35496222972869873,0.8600000143051147,0.4005086421966553,0.8100000023841858
622,0.3813454806804657,0.8199999928474426,0.40038344264030457,0.8100000023841858
623,0.39255404472351074,0.8399999737739563,0.40024054050445557,0.8100000023841858
624,0.3950636386871338,0.8199999928474426,0.40015551447868347,0.8100000023841858
625,0.3773970901966095,0.8100000023841858,0.4000910222530365,0.8100000023841858
626,0.35914531350135803,0.8700000047683716,0.40004679560661316,0.8100000023841858
627,0.37300747632980347,0.8500000238418579,0.3999377191066742,0.8100000023841858
628,0.3886525332927704,0.7799999713897705,0.3998938500881195,0.8100000023841858
629,0.3692503273487091,0.8500000238418579,0.39972907304763794,0.8100000023841858
630,0.38032427430152893,0.8299999833106995,0.3996136486530304,0.8100000023841858
631,0.38378188014030457,0.8199999928474426,0.39947888255119324,0.8100000023841858
632,0.34923768043518066,0.8500000238418579,0.39951327443122864,0.8100000023841858
633,0.37631481885910034,0.7900000214576721,0.39960911870002747,0.8100000023841858
634,0.37154248356819153,0.8399999737739563,0.39951446652412415,0.8100000023841858
635,0.3646646738052368,0.8199999928474426,0.39944252371788025,0.8100000023841858
636,0.3679446876049042,0.8199999928474426,0.399459570646286,0.8100000023841858
637,0.35886794328689575,0.8600000143051147,0.39936718344688416,0.8100000023841858
638,0.3899127244949341,0.8299999833106995,0.3993443250656128,0.8100000023841858
639,0.3771611750125885,0.8399999737739563,0.3993195593357086,0.8100000023841858
640,0.4142346680164337,0.7799999713897705,0.39920851588249207,0.8100000023841858
641,0.37556564807891846,0.8399999737739563,0.39905455708503723,0.8100000023841858
642,0.3501391112804413,0.8500000238418579,0.39891281723976135,0.8100000023841858
643,0.3685470223426819,0.8399999737739563,0.3988860249519348,0.8100000023841858
644,0.3706851601600647,0.8399999737739563,0.39884597063064575,0.8100000023841858
645,0.3710710406303406,0.8100000023841858,0.39877793192863464,0.8100000023841858
646,0.36846110224723816,0.8600000143051147,0.39872077107429504,0.8100000023841858
647,0.3833801746368408,0.8500000238418579,0.398673415184021,0.8100000023841858
648,0.37042754888534546,0.8299999833106995,0.3986508548259735,0.8100000023841858
649,0.35001179575920105,0.8399999737739563,0.39855071902275085,0.8100000023841858
650,0.36143770813941956,0.8399999737739563,0.39840489625930786,0.8100000023841858
651,0.35439708828926086,0.8399999737739563,0.3982371389865875,0.8100000023841858
652,0.375060498714447,0.800000011920929,0.3982182741165161,0.8100000023841858
653,0.3331364691257477,0.8799999952316284,0.3981778025627136,0.8100000023841858
654,0.3522908687591553,0.8199999928474426,0.39815956354141235,0.8100000023841858
655,0.3578261137008667,0.8299999833106995,0.39814597368240356,0.8100000023841858
656,0.3690212368965149,0.8299999833106995,0.39813435077667236,0.8100000023841858
657,0.35171714425086975,0.8500000238418579,0.39811134338378906,0.8100000023841858
658,0.36597052216529846,0.8199999928474426,0.3980925381183624,0.8100000023841858
659,0.38505128026008606,0.8299999833106995,0.3980364203453064,0.8100000023841858
660,0.37175843119621277,0.800000011920929,0.3979320824146271,0.8100000023841858
661,0.343545526266098,0.8500000238418579,0.3978428244590759,0.8100000023841858
662,0.32192423939704895,0.8700000047683716,0.3978346288204193,0.8100000023841858
663,0.36758533120155334,0.8199999928474426,0.39773833751678467,0.8100000023841858
664,0.3616660237312317,0.8100000023841858,0.3976404666900635,0.8100000023841858
665,0.3564958870410919,0.8600000143051147,0.39754948019981384,0.8100000023841858
666,0.34779348969459534,0.8600000143051147,0.3975726068019867,0.8100000023841858
667,0.3600457012653351,0.8199999928474426,0.3974788784980774,0.8100000023841858
668,0.3930971622467041,0.7900000214576721,0.39744606614112854,0.8100000023841858
669,0.3983391523361206,0.8199999928474426,0.3973405063152313,0.8100000023841858
670,0.3447158932685852,0.8100000023841858,0.3972708582878113,0.8100000023841858
671,0.38305366039276123,0.8399999737739563,0.39716750383377075,0.8100000023841858
672,0.32932767271995544,0.8700000047683716,0.3971863090991974,0.8100000023841858
673,0.3359811305999756,0.8700000047683716,0.39702555537223816,0.8100000023841858
674,0.3251979351043701,0.8600000143051147,0.3969322443008423,0.8100000023841858
675,0.33020779490470886,0.8299999833106995,0.3969076871871948,0.8100000023841858
676,0.324008584022522,0.8500000238418579,0.39690980315208435,0.8100000023841858
677,0.4042856991291046,0.800000011920929,0.3968055248260498,0.8100000023841858
678,0.41954898834228516,0.7900000214576721,0.3967222571372986,0.8199999928474426
679,0.3470499515533447,0.8199999928474426,0.3966578543186188,0.8199999928474426
680,0.35901808738708496,0.8500000238418579,0.3965855836868286,0.8199999928474426
681,0.35084259510040283,0.8199999928474426,0.396584689617157,0.8199999928474426
682,0.3290134370326996,0.8399999737739563,0.3965386152267456,0.8199999928474426
683,0.3844466507434845,0.8299999833106995,0.3964420557022095,0.8199999928474426
684,0.37826794385910034,0.8500000238418579,0.39623531699180603,0.8199999928474426
685,0.38641655445098877,0.8100000023841858,0.3961900472640991,0.8199999928474426
686,0.3561679720878601,0.8199999928474426,0.3961023986339569,0.8199999928474426
687,0.3325146734714508,0.8399999737739563,0.3960346281528473,0.8199999928474426
688,0.34137943387031555,0.8700000047683716,0.3959316909313202,0.8199999928474426
689,0.3573349714279175,0.8100000023841858,0.39578452706336975,0.8199999928474426
690,0.343253493309021,0.8399999737739563,0.3957451581954956,0.8199999928474426
691,0.35075777769088745,0.8799999952316284,0.39571869373321533,0.8199999928474426
692,0.37705597281455994,0.8299999833106995,0.3956303298473358,0.8199999928474426
693,0.346151202917099,0.8399999737739563,0.39554286003112793,0.8199999928474426
694,0.3518970012664795,0.8299999833106995,0.3955386281013489,0.8199999928474426
695,0.38647621870040894,0.7799999713897705,0.39533984661102295,0.8199999928474426
696,0.38361263275146484,0.8399999737739563,0.3952670395374298,0.8199999928474426
697,0.3466637134552002,0.8399999737739563,0.39521342515945435,0.8199999928474426
698,0.32280272245407104,0.8500000238418579,0.3951988220214844,0.8199999928474426
699,0.34824812412261963,0.8500000238418579,0.3952091336250305,0.8199999928474426
700,0.34611964225769043,0.8500000238418579,0.395269513130188,0.8199999928474426
701,0.3545319437980652,0.8500000238418579,0.3952295780181885,0.8199999928474426
702,0.36597496271133423,0.8299999833106995,0.39511778950691223,0.8199999928474426
703,0.3859170973300934,0.8399999737739563,0.39509809017181396,0.8199999928474426
704,0.3608781695365906,0.8500000238418579,0.3950488567352295,0.8199999928474426
705,0.3516291677951813,0.8799999952316284,0.3949480354785919,0.8199999928474426
706,0.35426416993141174,0.8299999833106995,0.3949114680290222,0.8199999928474426
707,0.3191401958465576,0.8700000047683716,0.3949096202850342,0.8199999928474426
708,0.32728880643844604,0.8899999856948853,0.3947851061820984,0.8199999928474426
709,0.3300960659980774,0.8899999856948853,0.39471396803855896,0.8199999928474426
710,0.36325451731681824,0.800000011920929,0.3945489525794983,0.8199999928474426
711,0.33140799403190613,0.8700000047683716,0.39450332522392273,0.8199999928474426
712,0.3357752561569214,0.8399999737739563,0.3944786489009857,0.8199999928474426
713,0.4046231806278229,0.7699999809265137,0.39439430832862854,0.8199999928474426
714,0.3803332448005676,0.8299999833106995,0.39443451166152954,0.8199999928474426
715,0.34731924533843994,0.800000011920929,0.39435455203056335,0.8199999928474426
716,0.3579477071762085,0.800000011920929,0.39429014921188354,0.8199999928474426
717,0.35962578654289246,0.8399999737739563,0.39423230290412903,0.8199999928474426
718,0.3548116683959961,0.8500000238418579,0.39420464634895325,0.8199999928474426
719,0.36026057600975037,0.8600000143051147,0.39417970180511475,0.8199999928474426
720,0.37011536955833435,0.8100000023841858,0.3941330015659332,0.8199999928474426
721,0.3572801947593689,0.8399999737739563,0.39407339692115784,0.8199999928474426
722,0.3575538396835327,0.8299999833106995,0.39403706789016724,0.8199999928474426
723,0.3540172874927521,0.8600000143051147,0.394008994102478,0.8199999928474426
724,0.3581760823726654,0.8399999737739563,0.39403313398361206,0.8199999928474426
725,0.4090505838394165,0.8199999928474426,0.3939128816127777,0.8199999928474426
726,0.33427172899246216,0.8799999952316284,0.3937355875968933,0.8199999928474426
727,0.3307438790798187,0.8500000238418579,0.3936832547187805,0.8199999928474426
728,0.3577045798301697,0.7900000214576721,0.39362120628356934,0.8199999928474426
729,0.37110692262649536,0.8199999928474426,0.39353400468826294,0.8199999928474426
730,0.36815136671066284,0.8399999737739563,0.3934859037399292,0.8199999928474426
731,0.3539782762527466,0.8399999737739563,0.3934040069580078,0.8199999928474426
732,0.3633071780204773,0.8299999833106995,0.3934241831302643,0.8199999928474426
733,0.3680524528026581,0.8399999737739563,0.393335223197937,0.8199999928474426
734,0.36331817507743835,0.8500000238418579,0.39321839809417725,0.8199999928474426
735,0.33677083253860474,0.8199999928474426,0.39318332076072693,0.8199999928474426
736,0.3641715943813324,0.800000011920929,0.39311113953590393,0.8199999928474426
737,0.35079413652420044,0.8600000143051147,0.3929360508918762,0.8100000023841858
738,0.35591593384742737,0.8199999928474426,0.3929508626461029,0.8100000023841858
739,0.35636529326438904,0.8500000238418579,0.392913281917572,0.8100000023841858
740,0.34651774168014526,0.8600000143051147,0.39286476373672485,0.8100000023841858
741,0.3634273111820221,0.8100000023841858,0.39275944232940674,0.800000011920929
742,0.3234959542751312,0.8799999952316284,0.39275047183036804,0.800000011920929
743,0.38075050711631775,0.8299999833106995,0.39272892475128174,0.800000011920929
744,0.35331153869628906,0.8500000238418579,0.3926892578601837,0.800000011920929
745,0.33115261793136597,0.8600000143051147,0.3926723599433899,0.800000011920929
746,0.3761112093925476,0.8399999737739563,0.39263489842414856,0.800000011920929
747,0.3383241593837738,0.8500000238418579,0.39257872104644775,0.800000011920929
748,0.35359352827072144,0.8600000143051147,0.3926062285900116,0.8100000023841858
749,0.35458487272262573,0.8500000238418579,0.39263489842414856,0.8100000023841858
750,0.3857450485229492,0.8299999833106995,0.3926597535610199,0.8199999928474426
751,0.37355726957321167,0.7900000214576721,0.3927552402019501,0.8199999928474426
752,0.33111995458602905,0.8500000238418579,0.3927065134048462,0.8199999928474426
753,0.3646030128002167,0.8299999833106995,0.39274758100509644,0.8199999928474426
754,0.330242395401001,0.8700000047683716,0.39264705777168274,0.8199999928474426
755,0.319311261177063,0.8700000047683716,0.3926200866699219,0.8199999928474426
756,0.3437983989715576,0.8600000143051147,0.3925729990005493,0.8199999928474426
757,0.3700253665447235,0.8500000238418579,0.39253273606300354,0.8199999928474426
758,0.36514368653297424,0.8399999737739563,0.39259007573127747,0.8199999928474426
759,0.3455929160118103,0.8500000238418579,0.3925715982913971,0.8199999928474426
760,0.3453865945339203,0.8700000047683716,0.3925130069255829,0.8199999928474426
761,0.3763953149318695,0.8399999737739563,0.3924230635166168,0.8199999928474426
762,0.33253559470176697,0.8600000143051147,0.39238056540489197,0.8199999928474426
763,0.35884854197502136,0.8299999833106995,0.3923238515853882,0.8199999928474426
764,0.36387088894844055,0.8299999833106995,0.392235666513443,0.8199999928474426
765,0.36213648319244385,0.8299999833106995,0.39213666319847107,0.8199999928474426
766,0.30144238471984863,0.8899999856948853,0.3920665681362152,0.8199999928474426
767,0.33321502804756165,0.8199999928474426,0.39196261763572693,0.8100000023841858
768,0.3475108742713928,0.8700000047683716,0.39192652702331543,0.8199999928474426
769,0.3819468319416046,0.7799999713897705,0.39185798168182373,0.8199999928474426
770,0.35228100419044495,0.8500000238418579,0.39177843928337097,0.8100000023841858
771,0.3397412598133087,0.8600000143051147,0.3917292654514313,0.8100000023841858
772,0.3479008078575134,0.8399999737739563,0.39167195558547974,0.8100000023841858
773,0.3730936348438263,0.8399999737739563,0.3916376829147339,0.8100000023841858
774,0.3670785129070282,0.8399999737739563,0.39149928092956543,0.800000011920929
775,0.3612593710422516,0.8500000238418579,0.3913819193840027,0.800000011920929
776,0.33939918875694275,0.8600000143051147,0.39143162965774536,0.800000011920929
777,0.32804569602012634,0.8799999952316284,0.39144232869148254,0.800000011920929
778,0.32844847440719604,0.8700000047683716,0.3914705514907837,0.800000011920929
779,0.37741807103157043,0.8199999928474426,0.39143431186676025,0.8100000023841858
780,0.3628746271133423,0.8399999737739563,0.3913804590702057,0.8100000023841858
781,0.3732713758945465,0.8100000023841858,0.39138373732566833,0.8100000023841858
782,0.3540849983692169,0.8299999833106995,0.39139121770858765,0.8100000023841858
783,0.3260003924369812,0.8199999928474426,0.3913107216358185,0.8100000023841858
784,0.3502486050128937,0.8299999833106995,0.3912958800792694,0.8100000023841858
785,0.34329384565353394,0.8399999737739563,0.39123594760894775,0.8100000023841858
786,0.32652369141578674,0.8399999737739563,0.3911101222038269,0.800000011920929
787,0.3506264090538025,0.8100000023841858,0.39108067750930786,0.800000011920929
788,0.39512550830841064,0.800000011920929,0.39107224345207214,0.800000011920929
789,0.34856143593788147,0.8299999833106995,0.39097967743873596,0.800000011920929
790,0.3464905619621277,0.8399999737739563,0.3909010589122772,0.800000011920929
791,0.3727183938026428,0.8100000023841858,0.3907855153083801,0.800000011920929
792,0.3217887580394745,0.8199999928474426,0.3907390236854553,0.800000011920929
793,0.34035995602607727,0.8500000238418579,0.39078661799430847,0.800000011920929
794,0.37610191106796265,0.8600000143051147,0.3907378315925598,0.800000011920929
795,0.348990261554718,0.8399999737739563,0.39076918363571167,0.800000011920929
796,0.3489895761013031,0.800000011920929,0.3906940221786499,0.800000011920929
797,0.36670517921447754,0.800000011920929,0.3906594514846802,0.800000011920929
798,0.374564528465271,0.8199999928474426,0.3905983865261078,0.800000011920929
799,0.3574868440628052,0.7900000214576721,0.39049193263053894,0.800000011920929
800,0.3406757414340973,0.8399999737739563,0.39039742946624756,0.800000011920929
801,0.3230278491973877,0.8799999952316284,0.3903428912162781,0.800000011920929
802,0.3408759832382202,0.8399999737739563,0.3903762102127075,0.800000011920929
803,0.3414742648601532,0.8899999856948853,0.3903474509716034,0.800000011920929
804,0.35282716155052185,0.8299999833106995,0.3903903067111969,0.800000011920929
805,0.3185027837753296,0.8600000143051147,0.39026808738708496,0.800000011920929
806,0.3284260630607605,0.8500000238418579,0.39023730158805847,0.800000011920929
807,0.35858872532844543,0.8399999737739563,0.39026814699172974,0.800000011920929
808,0.3419995605945587,0.8600000143051147,0.3902689218521118,0.800000011920929
809,0.36970603466033936,0.8500000238418579,0.3901672065258026,0.800000011920929
810,0.33979442715644836,0.8100000023841858,0.3901439607143402,0.800000011920929
811,0.32970234751701355,0.8399999737739563,0.39016449451446533,0.800000011920929
812,0.3244948983192444,0.8500000238418579,0.3902253806591034,0.800000011920929
813,0.3419661223888397,0.8500000238418579,0.3901981711387634,0.800000011920929
814,0.3312874734401703,0.8500000238418579,0.3901868462562561,0.800000011920929
815,0.3373608887195587,0.8500000238418579,0.3901348412036896,0.800000011920929
816,0.34961968660354614,0.8100000023841858,0.39015528559684753,0.800000011920929
817,0.3465495705604553,0.8399999737739563,0.39010679721832275,0.800000011920929
818,0.3432729244232178,0.8199999928474426,0.3900156021118164,0.800000011920929
819,0.31841421127319336,0.8600000143051147,0.3900470435619354,0.800000011920929
820,0.35177916288375854,0.8500000238418579,0.39001259207725525,0.800000011920929
821,0.35750335454940796,0.8600000143051147,0.3898681700229645,0.800000011920929
822,0.309980571269989,0.8399999737739563,0.38984405994415283,0.800000011920929
823,0.37017926573753357,0.8199999928474426,0.38971665501594543,0.800000011920929
824,0.3559713661670685,0.8299999833106995,0.3895935118198395,0.8100000023841858
825,0.3536906838417053,0.8500000238418579,0.38958340883255005,0.8100000023841858
826,0.33927685022354126,0.8500000238418579,0.3895359933376312,0.8100000023841858
827,0.33059415221214294,0.8799999952316284,0.38944417238235474,0.8100000023841858
828,0.33501777052879333,0.8600000143051147,0.3894515633583069,0.8100000023841858
829,0.3171866536140442,0.8700000047683716,0.38942745327949524,0.8100000023841858
830,0.34143880009651184,0.8600000143051147,0.38932567834854126,0.8100000023841858
831,0.33362677693367004,0.8700000047683716,0.38921427726745605,0.8100000023841858
832,0.36686477065086365,0.8299999833106995,0.3892565965652466,0.8100000023841858
833,0.32029515504837036,0.8500000238418579,0.38913315534591675,0.8100000023841858
834,0.33808955550193787,0.8299999833106995,0.3890548050403595,0.8100000023841858
835,0.3991728127002716,0.7900000214576721,0.38889357447624207,0.8100000023841858
836,0.3399728834629059,0.8500000238418579,0.3888893127441406,0.8100000023841858
837,0.3700452446937561,0.8299999833106995,0.38876816630363464,0.8100000023841858
838,0.32363730669021606,0.8500000238418579,0.38878509402275085,0.8100000023841858
839,0.3307250738143921,0.8500000238418579,0.3887511193752289,0.8100000023841858
840,0.3453854024410248,0.8500000238418579,0.388660728931427,0.8100000023841858
841,0.3290257751941681,0.8700000047683716,0.38855552673339844,0.8100000023841858
842,0.34340137243270874,0.8299999833106995,0.3885321319103241,0.8100000023841858
843,0.3606216311454773,0.8199999928474426,0.3885768949985504,0.8100000023841858
844,0.33336976170539856,0.8299999833106995,0.38846760988235474,0.8199999928474426
845,0.3483213782310486,0.8299999833106995,0.38841715455055237,0.8199999928474426
846,0.3536677658557892,0.8299999833106995,0.38838574290275574,0.8199999928474426
847,0.3415297567844391,0.8600000143051147,0.38830283284187317,0.8199999928474426
848,0.3441246449947357,0.8399999737739563,0.38828179240226746,0.8199999928474426
849,0.33070793747901917,0.8399999737739563,0.3883638083934784,0.8199999928474426
850,0.3630466163158417,0.8500000238418579,0.3882136046886444,0.8199999928474426
851,0.35199788212776184,0.8600000143051147,0.3881211578845978,0.8199999928474426
852,0.37740352749824524,0.8199999928474426,0.3881032466888428,0.8199999928474426
853,0.3429776430130005,0.8399999737739563,0.3881109654903412,0.8199999928474426
854,0.3149147927761078,0.8399999737739563,0.3881206512451172,0.8199999928474426
855,0.33756354451179504,0.8299999833106995,0.3880515694618225,0.8199999928474426
856,0.34565889835357666,0.8299999833106995,0.3880413770675659,0.8199999928474426
857,0.3572622239589691,0.8600000143051147,0.3879982829093933,0.8199999928474426
858,0.33146652579307556,0.8399999737739563,0.38800209760665894,0.8199999928474426
859,0.32770711183547974,0.8199999928474426,0.3879822790622711,0.8199999928474426
860,0.30511772632598877,0.8899999856948853,0.38802337646484375,0.8199999928474426
861,0.32852500677108765,0.8600000143051147,0.38802871108055115,0.8199999928474426
862,0.34076935052871704,0.8700000047683716,0.38798439502716064,0.8199999928474426
863,0.350737988948822,0.8600000143051147,0.38784581422805786,0.8199999928474426
864,0.35939285159111023,0.8500000238418579,0.38776877522468567,0.8199999928474426
865,0.33339443802833557,0.8899999856948853,0.38775113224983215,0.8199999928474426
866,0.3294023871421814,0.8199999928474426,0.3876757025718689,0.8199999928474426
867,0.34044119715690613,0.8500000238418579,0.3876146674156189,0.8199999928474426
868,0.35493847727775574,0.8500000238418579,0.3875468969345093,0.8199999928474426
869,0.335443377494812,0.8600000143051147,0.38747677206993103,0.8199999928474426
870,0.33094465732574463,0.8600000143051147,0.38744521141052246,0.8199999928474426
871,0.31606629490852356,0.8600000143051147,0.3874704837799072,0.8199999928474426
872,0.33707350492477417,0.8500000238418579,0.3873854875564575,0.8199999928474426
873,0.37647631764411926,0.8600000143051147,0.3874642550945282,0.8199999928474426
874,0.3533053696155548,0.8299999833106995,0.38742852210998535,0.8199999928474426
875,0.3388097286224365,0.8399999737739563,0.38744693994522095,0.8199999928474426
876,0.33158889412879944,0.8399999737739563,0.38740989565849304,0.8199999928474426
877,0.34873446822166443,0.8600000143051147,0.38734936714172363,0.8199999928474426
878,0.3552927076816559,0.8199999928474426,0.38731488585472107,0.8199999928474426
879,0.3348601162433624,0.8500000238418579,0.38740456104278564,0.8199999928474426
880,0.32524704933166504,0.8399999737739563,0.3874049782752991,0.8199999928474426
881,0.34454354643821716,0.8199999928474426,0.38739916682243347,0.8199999928474426
882,0.3523625135421753,0.7900000214576721,0.38736891746520996,0.8199999928474426
883,0.35471951961517334,0.8299999833106995,0.38726726174354553,0.8199999928474426
884,0.3700902462005615,0.8199999928474426,0.38721558451652527,0.8199999928474426
885,0.32418668270111084,0.8799999952316284,0.38707688450813293,0.8199999928474426
886,0.36109763383865356,0.8199999928474426,0.38700488209724426,0.8199999928474426
887,0.3556789457798004,0.8600000143051147,0.3869006335735321,0.8199999928474426
888,0.32676297426223755,0.8500000238418579,0.386886328458786,0.8199999928474426
889,0.31621482968330383,0.8600000143051147,0.3868328928947449,0.8199999928474426
890,0.3349098563194275,0.8500000238418579,0.3868383467197418,0.8199999928474426
891,0.323405921459198,0.8799999952316284,0.3868594765663147,0.8199999928474426
892,0.34765198826789856,0.8399999737739563,0.38682374358177185,0.8199999928474426
893,0.3517451584339142,0.8500000238418579,0.3867819905281067,0.8199999928474426
894,0.3234061300754547,0.8600000143051147,0.3866746127605438,0.8199999928474426
895,0.3242894113063812,0.8500000238418579,0.38671666383743286,0.8199999928474426
896,0.3450809419155121,0.8600000143051147,0.3867206871509552,0.8199999928474426
897,0.3743092715740204,0.8199999928474426,0.38663536310195923,0.8199999928474426
898,0.372537761926651,0.8299999833106995,0.3866666853427887,0.8199999928474426
899,0.3447210192680359,0.8399999737739563,0.38666683435440063,0.8199999928474426
900,0.33499401807785034,0.8399999737739563,0.3866626024246216,0.8199999928474426
901,0.2954552173614502,0.8700000047683716,0.38675254583358765,0.8199999928474426
902,0.3291558027267456,0.8500000238418579,0.3868738114833832,0.8199999928474426
903,0.3371674418449402,0.8600000143051147,0.38681185245513916,0.8199999928474426
904,0.31708768010139465,0.8299999833106995,0.38686108589172363,0.8199999928474426
905,0.3323354721069336,0.8500000238418579,0.3867904543876648,0.8199999928474426
906,0.3550012707710266,0.8299999833106995,0.3867374360561371,0.8199999928474426
907,0.31257790327072144,0.8199999928474426,0.38669976592063904,0.8199999928474426
908,0.33438628911972046,0.8399999737739563,0.38664281368255615,0.8199999928474426
909,0.3521074652671814,0.8500000238418579,0.38665488362312317,0.8199999928474426
910,0.36162304878234863,0.8399999737739563,0.3866942524909973,0.8199999928474426
911,0.3442751169204712,0.8399999737739563,0.3867008686065674,0.8299999833106995
912,0.3092122972011566,0.8500000238418579,0.38661903142929077,0.8199999928474426
913,0.30347970128059387,0.8600000143051147,0.3866451382637024,0.8299999833106995
914,0.33875831961631775,0.8399999737739563,0.38650980591773987,0.8199999928474426
915,0.34071364998817444,0.8500000238418579,0.38650283217430115,0.8299999833106995
916,0.3663252592086792,0.8399999737739563,0.38644203543663025,0.8199999928474426
917,0.3464451730251312,0.8399999737739563,0.38632476329803467,0.8199999928474426
918,0.3598357141017914,0.8500000238418579,0.3862600326538086,0.8199999928474426
919,0.32755234837532043,0.8700000047683716,0.3862505853176117,0.8199999928474426
920,0.3330782353878021,0.8799999952316284,0.38627132773399353,0.8199999928474426
921,0.3312898576259613,0.8500000238418579,0.3862837553024292,0.8299999833106995
922,0.3592430353164673,0.8399999737739563,0.3861534595489502,0.8199999928474426
923,0.3311183452606201,0.8399999737739563,0.38611114025115967,0.8199999928474426
924,0.33500489592552185,0.8500000238418579,0.3860081136226654,0.8199999928474426
925,0.3549371361732483,0.8199999928474426,0.385883092880249,0.8199999928474426
926,0.31778308749198914,0.8700000047683716,0.3858538866043091,0.8199999928474426
927,0.3856578469276428,0.8399999737739563,0.385774701833725,0.8199999928474426
928,0.31096184253692627,0.8299999833106995,0.3857875168323517,0.8199999928474426
929,0.3321913182735443,0.8199999928474426,0.38576358556747437,0.8199999928474426
930,0.3467097878456116,0.8399999737739563,0.3857279121875763,0.8199999928474426
931,0.3128809332847595,0.8700000047683716,0.38571885228157043,0.8199999928474426
932,0.3399181365966797,0.8399999737739563,0.38565611839294434,0.8199999928474426
933,0.29875466227531433,0.8700000047683716,0.38570788502693176,0.8199999928474426
934,0.31215447187423706,0.8399999737739563,0.3856738805770874,0.8199999928474426
935,0.35798609256744385,0.8299999833106995,0.3855714499950409,0.8199999928474426
936,0.3369932174682617,0.8100000023841858,0.3853447437286377,0.8199999928474426
937,0.3335200846195221,0.8600000143051147,0.38535067439079285,0.8199999928474426
938,0.3347628116607666,0.8700000047683716,0.38523757457733154,0.8199999928474426
939,0.33112847805023193,0.8399999737739563,0.38528943061828613,0.8199999928474426
940,0.337677925825119,0.8600000143051147,0.38517093658447266,0.8199999928474426
941,0.3242449164390564,0.8799999952316284,0.3852141499519348,0.8199999928474426
942,0.3181289732456207,0.8799999952316284,0.385236918926239,0.8199999928474426
943,0.3228549659252167,0.8500000238418579,0.3851920962333679,0.8199999928474426
944,0.31342658400535583,0.8600000143051147,0.38511353731155396,0.8199999928474426
945,0.32982176542282104,0.8600000143051147,0.38505250215530396,0.8199999928474426
946,0.3142368197441101,0.8399999737739563,0.3850187659263611,0.8199999928474426
947,0.34897759556770325,0.8700000047683716,0.3849644064903259,0.8199999928474426
948,0.3532351553440094,0.8500000238418579,0.38491469621658325,0.8199999928474426
949,0.363098680973053,0.8199999928474426,0.38489410281181335,0.8199999928474426
950,0.3319525122642517,0.8299999833106995,0.38488274812698364,0.8199999928474426
951,0.3389238715171814,0.8799999952316284,0.3849179744720459,0.8199999928474426
952,0.32888489961624146,0.8500000238418579,0.38482415676116943,0.8199999928474426
953,0.32793471217155457,0.8500000238418579,0.3848161995410919,0.8199999928474426
954,0.34381037950515747,0.8600000143051147,0.3847463130950928,0.8199999928474426
955,0.3382704257965088,0.8399999737739563,0.3847525715827942,0.8199999928474426
956,0.31279414892196655,0.8700000047683716,0.38475608825683594,0.8199999928474426
957,0.33435171842575073,0.8700000047683716,0.3846738040447235,0.8199999928474426
958,0.30988770723342896,0.8399999737739563,0.38466203212738037,0.8199999928474426
959,0.32034632563591003,0.8500000238418579,0.38462379574775696,0.8199999928474426
960,0.35675469040870667,0.8100000023841858,0.3845387399196625,0.8199999928474426
961,0.33039677143096924,0.8700000047683716,0.38444939255714417,0.8199999928474426
962,0.3409462869167328,0.8600000143051147,0.3844028413295746,0.8199999928474426
963,0.3199039399623871,0.8399999737739563,0.3844112455844879,0.8199999928474426
964,0.3488328158855438,0.8199999928474426,0.38434508442878723,0.8199999928474426
965,0.2949589788913727,0.8600000143051147,0.3843676745891571,0.8199999928474426
966,0.30390042066574097,0.8700000047683716,0.38436123728752136,0.8199999928474426
967,0.33054980635643005,0.8399999737739563,0.38430359959602356,0.8199999928474426
968,0.32678744196891785,0.8500000238418579,0.38431400060653687,0.8199999928474426
969,0.2997407615184784,0.8899999856948853,0.38441145420074463,0.8199999928474426
970,0.3555736243724823,0.8399999737739563,0.3842984437942505,0.8199999928474426
971,0.34442901611328125,0.8199999928474426,0.38420769572257996,0.8199999928474426
972,0.33664971590042114,0.8600000143051147,0.38417258858680725,0.8199999928474426
973,0.33785301446914673,0.8500000238418579,0.38413575291633606,0.8199999928474426
974,0.33523795008659363,0.8399999737739563,0.38411426544189453,0.8199999928474426
975,0.330803781747818,0.8799999952316284,0.38412532210350037,0.8199999928474426
976,0.3003776967525482,0.8700000047683716,0.3840591013431549,0.8199999928474426
977,0.3164518177509308,0.8600000143051147,0.3840469717979431,0.8199999928474426
978,0.3023456335067749,0.8399999737739563,0.38400474190711975,0.8199999928474426
979,0.34248706698417664,0.8600000143051147,0.3840567469596863,0.8199999928474426
980,0.30271437764167786,0.8399999737739563,0.3840310275554657,0.8199999928474426
981,0.34916388988494873,0.8399999737739563,0.38400620222091675,0.8199999928474426
982,0.33743491768836975,0.8899999856948853,0.38399502635002136,0.8199999928474426
983,0.35157474875450134,0.8399999737739563,0.38399696350097656,0.8199999928474426
984,0.3397270143032074,0.8299999833106995,0.38387367129325867,0.8199999928474426
985,0.3293009102344513,0.8500000238418579,0.38384169340133667,0.8199999928474426
986,0.32989615201950073,0.8700000047683716,0.3838375508785248,0.8199999928474426
987,0.36906716227531433,0.8500000238418579,0.38376209139823914,0.8199999928474426
988,0.3076757490634918,0.8799999952316284,0.3837144374847412,0.8199999928474426
989,0.3389036953449249,0.8299999833106995,0.3836517333984375,0.8199999928474426
990,0.35612839460372925,0.8100000023841858,0.3836556375026703,0.8199999928474426
991,0.3642621338367462,0.8199999928474426,0.3835068643093109,0.8199999928474426
992,0.3273630142211914,0.8700000047683716,0.3835647702217102,0.8199999928474426
993,0.3060729205608368,0.8799999952316284,0.38361045718193054,0.8199999928474426
994,0.4030635952949524,0.8100000023841858,0.3834438621997833,0.8199999928474426
995,0.32907843589782715,0.8700000047683716,0.3834698498249054,0.8199999928474426
996,0.347360223531723,0.8299999833106995,0.3834693133831024,0.8199999928474426
997,0.30530843138694763,0.8299999833106995,0.38349467515945435,0.8199999928474426
998,0.36172133684158325,0.8299999833106995,0.3835286796092987,0.8199999928474426
999,0.32424789667129517,0.8299999833106995,0.38347405195236206,0.8199999928474426
1000,0.3280565142631531,0.8299999833106995,0.38347408175468445,0.8199999928474426
1001,0.28435513377189636,0.8700000047683716,0.383521169424057,0.8199999928474426
1002,0.3240010440349579,0.8500000238418579,0.3834664225578308,0.8199999928474426
1003,0.3193216025829315,0.8700000047683716,0.38344693183898926,0.8199999928474426
1004,0.29916831851005554,0.8500000238418579,0.3834483325481415,0.8199999928474426
1005,0.3396296799182892,0.8600000143051147,0.3834269642829895,0.8199999928474426
1006,0.33721429109573364,0.8199999928474426,0.38336485624313354,0.8199999928474426
1007,0.3214223384857178,0.8500000238418579,0.3832924962043762,0.8199999928474426
1008,0.32030341029167175,0.8299999833106995,0.3833094537258148,0.8199999928474426
1009,0.2889764904975891,0.8700000047683716,0.3832746148109436,0.8199999928474426
1010,0.33287692070007324,0.8500000238418579,0.38313740491867065,0.8199999928474426
1011,0.2904265522956848,0.8899999856948853,0.3830716609954834,0.8199999928474426
1012,0.34575966000556946,0.8299999833106995,0.3830106258392334,0.8199999928474426
1013,0.34554943442344666,0.8399999737739563,0.3829420208930969,0.8199999928474426
1014,0.34425023198127747,0.8500000238418579,0.3829280436038971,0.8199999928474426
1015,0.31378695368766785,0.8500000238418579,0.38288208842277527,0.8199999928474426
1016,0.3712845742702484,0.8600000143051147,0.382893443107605,0.8199999928474426
1017,0.33491820096969604,0.8600000143051147,0.38291823863983154,0.8199999928474426
1018,0.3197880983352661,0.8899999856948853,0.38285285234451294,0.8199999928474426
1019,0.3506133556365967,0.8299999833106995,0.3828256130218506,0.8199999928474426
1020,0.3075839579105377,0.8700000047683716,0.3827711343765259,0.8199999928474426
1021,0.3200792670249939,0.8500000238418579,0.38274863362312317,0.8199999928474426
1022,0.34652483463287354,0.8199999928474426,0.38277146220207214,0.8199999928474426
1023,0.30949726700782776,0.8600000143051147,0.3827733099460602,0.8199999928474426
1024,0.34602099657058716,0.8299999833106995,0.38274967670440674,0.8199999928474426
1025,0.31585776805877686,0.8700000047683716,0.3826983571052551,0.8199999928474426
1026,0.32243287563323975,0.8600000143051147,0.3825525939464569,0.8199999928474426
1027,0.3366614282131195,0.8700000047683716,0.38256600499153137,0.8199999928474426
1028,0.3012573719024658,0.8600000143051147,0.38252338767051697,0.8199999928474426
1029,0.3136399984359741,0.8500000238418579,0.382461279630661,0.8199999928474426
1030,0.34246310591697693,0.8600000143051147,0.38242679834365845,0.8199999928474426
1031,0.34279242157936096,0.8600000143051147,0.38236889243125916,0.8199999928474426
1032,0.3522329032421112,0.8299999833106995,0.3823104202747345,0.8199999928474426
1033,0.30960845947265625,0.8600000143051147,0.38233911991119385,0.8199999928474426
1034,0.3158378005027771,0.8600000143051147,0.38228827714920044,0.8199999928474426
1035,0.3340218663215637,0.8299999833106995,0.3822045624256134,0.8199999928474426
1036,0.28715598583221436,0.8799999952316284,0.38221967220306396,0.8199999928474426
1037,0.32684585452079773,0.8700000047683716,0.38222256302833557,0.8199999928474426
1038,0.29656895995140076,0.8600000143051147,0.3821568191051483,0.8199999928474426
1039,0.2867896854877472,0.8799999952316284,0.3821471929550171,0.8199999928474426
1040,0.34852808713912964,0.8399999737739563,0.3821108937263489,0.8199999928474426
1041,0.31205153465270996,0.8999999761581421,0.38205015659332275,0.8199999928474426
1042,0.34022054076194763,0.8199999928474426,0.38207054138183594,0.8199999928474426
1043,0.29103270173072815,0.8700000047683716,0.3820399045944214,0.8199999928474426
1044,0.3421996831893921,0.8500000238418579,0.3819984197616577,0.8199999928474426
1045,0.3500126302242279,0.8600000143051147,0.38196003437042236,0.8299999833106995
1046,0.3097863793373108,0.8899999856948853,0.38198742270469666,0.8199999928474426
1047,0.3402961790561676,0.8500000238418579,0.38183462619781494,0.8299999833106995
1048,0.3335166573524475,0.8100000023841858,0.3817974030971527,0.8299999833106995
1049,0.37329256534576416,0.8299999833106995,0.38178756833076477,0.8299999833106995
1050,0.31242382526397705,0.8700000047683716,0.3818126618862152,0.8299999833106995
1051,0.3585549294948578,0.8500000238418579,0.38178786635398865,0.8299999833106995
1052,0.3482648432254791,0.8299999833106995,0.3817732334136963,0.8299999833106995
1053,0.3270573318004608,0.8600000143051147,0.3818875253200531,0.8299999833106995
1054,0.3144868314266205,0.8600000143051147,0.38195574283599854,0.8199999928474426
1055,0.32929378747940063,0.8299999833106995,0.3819972276687622,0.8199999928474426
1056,0.33584877848625183,0.8500000238418579,0.3820764422416687,0.8299999833106995
1057,0.3076602518558502,0.8600000143051147,0.3820773959159851,0.8299999833106995
1058,0.32201245427131653,0.8799999952316284,0.38195934891700745,0.8299999833106995
1059,0.32146891951560974,0.8700000047683716,0.3819589614868164,0.8299999833106995
1060,0.29497459530830383,0.8600000143051147,0.3818730115890503,0.8299999833106995
1061,0.33402329683303833,0.8500000238418579,0.3818606436252594,0.8299999833106995
1062,0.33309268951416016,0.8700000047683716,0.38176947832107544,0.8299999833106995
1063,0.3497656583786011,0.8299999833106995,0.3817216455936432,0.8299999833106995
1064,0.3077389597892761,0.8700000047683716,0.3815528154373169,0.8299999833106995
1065,0.3102930784225464,0.8500000238418579,0.3815670311450958,0.8299999833106995
1066,0.3236861824989319,0.8500000238418579,0.3816123902797699,0.8299999833106995
1067,0.3157443702220917,0.8600000143051147,0.38165101408958435,0.8399999737739563
1068,0.3371557593345642,0.8299999833106995,0.3815079629421234,0.8299999833106995
1069,0.30573996901512146,0.8700000047683716,0.3814270794391632,0.8299999833106995
1070,0.33924075961112976,0.8299999833106995,0.3813386559486389,0.8299999833106995
1071,0.29321518540382385,0.8600000143051147,0.3812359571456909,0.8299999833106995
1072,0.32316306233406067,0.8600000143051147,0.38116538524627686,0.8299999833106995
1073,0.2766657769680023,0.8799999952316284,0.38109755516052246,0.8299999833106995
1074,0.33107468485832214,0.8399999737739563,0.38113734126091003,0.8299999833106995
1075,0.3043268620967865,0.8799999952316284,0.38109058141708374,0.8299999833106995
1076,0.30324020981788635,0.8700000047683716,0.3811076879501343,0.8299999833106995
1077,0.3045884370803833,0.8600000143051147,0.38107192516326904,0.8299999833106995
1078,0.32208946347236633,0.8399999737739563,0.381082683801651,0.8299999833106995
1079,0.32023003697395325,0.8500000238418579,0.38103148341178894,0.8299999833106995
1080,0.26647278666496277,0.8799999952316284,0.38109055161476135,0.8299999833106995
1081,0.30949485301971436,0.8700000047683716,0.3810529410839081,0.8299999833106995
1082,0.3547605276107788,0.8299999833106995,0.3809710741043091,0.8299999833106995
1083,0.35831382870674133,0.8199999928474426,0.3809545934200287,0.8299999833106995
1084,0.3265002965927124,0.8299999833106995,0.3809419870376587,0.8299999833106995
1085,0.2735375165939331,0.8600000143051147,0.38096144795417786,0.8299999833106995
1086,0.3494340479373932,0.8199999928474426,0.3810478150844574,0.8299999833106995
1087,0.3224303126335144,0.8299999833106995,0.3810288906097412,0.8299999833106995
1088,0.33079585433006287,0.8500000238418579,0.3810897469520569,0.8399999737739563
1089,0.31882521510124207,0.8799999952316284,0.3811267912387848,0.8399999737739563
1090,0.34213265776634216,0.8500000238418579,0.3811336159706116,0.8399999737739563
1091,0.2970961332321167,0.8799999952316284,0.38108208775520325,0.8399999737739563
1092,0.31613844633102417,0.8700000047683716,0.38091179728507996,0.8299999833106995
1093,0.3212423026561737,0.8500000238418579,0.3808508813381195,0.8299999833106995
1094,0.329970121383667,0.8399999737739563,0.3807563781738281,0.8299999833106995
1095,0.30159077048301697,0.8700000047683716,0.38068604469299316,0.8299999833106995
1096,0.32523849606513977,0.8500000238418579,0.3806370198726654,0.8299999833106995
1097,0.3340117931365967,0.8700000047683716,0.3806507885456085,0.8299999833106995
1098,0.31564757227897644,0.8500000238418579,0.3805595338344574,0.8299999833106995
1099,0.31170761585235596,0.8799999952316284,0.38058486580848694,0.8299999833106995
1100,0.33140671253204346,0.8500000238418579,0.3805164396762848,0.8299999833106995
1101,0.3411274254322052,0.8600000143051147,0.38051971793174744,0.8299999833106995
1102,0.2922852635383606,0.8700000047683716,0.3804726004600525,0.8299999833106995
1103,0.32140299677848816,0.8500000238418579,0.38042426109313965,0.8299999833106995
1104,0.30500420928001404,0.8600000143051147,0.3803666830062866,0.8299999833106995
1105,0.31309643387794495,0.8500000238418579,0.38033685088157654,0.8299999833106995
1106,0.35252559185028076,0.8399999737739563,0.3803277611732483,0.8299999833106995
1107,0.30930474400520325,0.8899999856948853,0.3803153932094574,0.8299999833106995
1108,0.34619566798210144,0.8500000238418579,0.3802472949028015,0.8299999833106995
1109,0.3589994013309479,0.8199999928474426,0.38024666905403137,0.8299999833106995
1110,0.3454973101615906,0.8399999737739563,0.3801348805427551,0.8299999833106995
1111,0.3234638571739197,0.8600000143051147,0.3800741136074066,0.8299999833106995
1112,0.3437260091304779,0.8399999737739563,0.37998250126838684,0.8299999833106995
1113,0.32619962096214294,0.8199999928474426,0.37987998127937317,0.8299999833106995
1114,0.33254382014274597,0.8299999833106995,0.3798261880874634,0.8299999833106995
1115,0.3080301582813263,0.8600000143051147,0.3798282742500305,0.8299999833106995
1116,0.3219580352306366,0.8399999737739563,0.37981900572776794,0.8299999833106995
1117,0.2993718683719635,0.8799999952316284,0.37975701689720154,0.8299999833106995
1118,0.3184034824371338,0.8399999737739563,0.37973496317863464,0.8299999833106995
1119,0.30169790983200073,0.8399999737739563,0.3797386586666107,0.8299999833106995
1120,0.3243858218193054,0.8600000143051147,0.3797403573989868,0.8299999833106995
1121,0.32024630904197693,0.8799999952316284,0.3796731233596802,0.8299999833106995
1122,0.3337143063545227,0.8500000238418579,0.3796097934246063,0.8299999833106995
1123,0.2754451036453247,0.8999999761581421,0.37956908345222473,0.8299999833106995
1124,0.2965620160102844,0.8600000143051147,0.37958958745002747,0.8299999833106995
1125,0.3260240852832794,0.8399999737739563,0.3794981837272644,0.8299999833106995
1126,0.31949594616889954,0.8700000047683716,0.3794758915901184,0.8299999833106995
1127,0.31706199049949646,0.8600000143051147,0.37943607568740845,0.8299999833106995
1128,0.3237890303134918,0.8700000047683716,0.3793148696422577,0.8299999833106995
1129,0.33876243233680725,0.8100000023841858,0.3793032169342041,0.8299999833106995
1130,0.2951034605503082,0.8700000047683716,0.3793013393878937,0.8299999833106995
1131,0.32181456685066223,0.8500000238418579,0.37928053736686707,0.8299999833106995
1132,0.3050597608089447,0.8500000238418579,0.3793153464794159,0.8299999833106995
1133,0.3126004636287689,0.8600000143051147,0.379296213388443,0.8299999833106995
1134,0.32755592465400696,0.8399999737739563,0.37928640842437744,0.8299999833106995
1135,0.3187798261642456,0.8399999737739563,0.37926316261291504,0.8299999833106995
1136,0.33434024453163147,0.8700000047683716,0.37924593687057495,0.8299999833106995
1137,0.30918991565704346,0.8700000047683716,0.37917572259902954,0.8299999833106995
1138,0.30218741297721863,0.8700000047683716,0.3791845440864563,0.8299999833106995
1139,0.34332388639450073,0.7799999713897705,0.37922903895378113,0.8299999833106995
1140,0.3122692406177521,0.8600000143051147,0.37925243377685547,0.8299999833106995
1141,0.3105088770389557,0.8399999737739563,0.3792896270751953,0.8299999833106995
1142,0.32848602533340454,0.8700000047683716,0.37922585010528564,0.8299999833106995
1143,0.3002813458442688,0.8700000047683716,0.37919676303863525,0.8299999833106995
1144,0.34020301699638367,0.8500000238418579,0.37908419966697693,0.8299999833106995
1145,0.2922663986682892,0.8500000238418579,0.37904512882232666,0.8299999833106995
1146,0.3025895059108734,0.8600000143051147,0.3789399266242981,0.8299999833106995
1147,0.3261117935180664,0.8799999952316284,0.3789510428905487,0.8299999833106995
1148,0.3390241265296936,0.8399999737739563,0.3789305090904236,0.8299999833106995
1149,0.35207676887512207,0.8600000143051147,0.3788225054740906,0.8299999833106995
1150,0.3089059889316559,0.8700000047683716,0.37882179021835327,0.8299999833106995
1151,0.3154466152191162,0.8199999928474426,0.3788481652736664,0.8299999833106995
1152,0.3332255184650421,0.8399999737739563,0.37877875566482544,0.8299999833106995
1153,0.3294890224933624,0.8299999833106995,0.3787577152252197,0.8299999833106995
1154,0.2898304760456085,0.8899999856948853,0.3787858188152313,0.8299999833106995
1155,0.30825522541999817,0.8700000047683716,0.37876003980636597,0.8299999833106995
1156,0.35302409529685974,0.8399999737739563,0.3787301182746887,0.8299999833106995
1157,0.3452284336090088,0.8899999856948853,0.37874549627304077,0.8299999833106995
1158,0.3357113301753998,0.8600000143051147,0.3787122368812561,0.8299999833106995
1159,0.35314860939979553,0.8100000023841858,0.37865424156188965,0.8299999833106995
1160,0.31800344586372375,0.8700000047683716,0.37857165932655334,0.8299999833106995
1161,0.2799610197544098,0.8700000047683716,0.37863072752952576,0.8299999833106995
1162,0.3381194770336151,0.8199999928474426,0.3785947859287262,0.8299999833106995
1163,0.2810589075088501,0.8799999952316284,0.37854862213134766,0.8299999833106995
1164,0.31250089406967163,0.8999999761581421,0.378543496131897,0.8299999833106995
1165,0.31074076890945435,0.8500000238418579,0.37859007716178894,0.8299999833106995
1166,0.33700239658355713,0.8299999833106995,0.37853825092315674,0.8299999833106995
1167,0.2926202118396759,0.8700000047683716,0.378569096326828,0.8299999833106995
1168,0.2933167517185211,0.8600000143051147,0.3785977065563202,0.8299999833106995
1169,0.3137871026992798,0.8399999737739563,0.37865474820137024,0.8299999833106995
1170,0.3255704641342163,0.8299999833106995,0.3786194324493408,0.8299999833106995
1171,0.28344598412513733,0.8899999856948853,0.37854209542274475,0.8299999833106995
1172,0.31450802087783813,0.8399999737739563,0.3784421980381012,0.8299999833106995
1173,0.3196777403354645,0.8600000143051147,0.37838485836982727,0.8299999833106995
1174,0.2798169255256653,0.8700000047683716,0.37835875153541565,0.8299999833106995
1175,0.28318509459495544,0.9100000262260437,0.3783450722694397,0.8299999833106995
1176,0.30327361822128296,0.8700000047683716,0.37825024127960205,0.8299999833106995
1177,0.28210821747779846,0.8700000047683716,0.3783124089241028,0.8299999833106995
1178,0.30191221833229065,0.8600000143051147,0.3783586025238037,0.8299999833106995
1179,0.30819985270500183,0.8799999952316284,0.3783694803714752,0.8299999833106995
1180,0.3211492598056793,0.8700000047683716,0.3783520460128784,0.8299999833106995
1181,0.31833958625793457,0.8600000143051147,0.3783726394176483,0.8299999833106995
1182,0.34360283613204956,0.8700000047683716,0.3783291280269623,0.8299999833106995
1183,0.3217846155166626,0.8399999737739563,0.37829551100730896,0.8299999833106995
1184,0.29770427942276,0.8500000238418579,0.3783641457557678,0.8299999833106995
1185,0.2962346374988556,0.8600000143051147,0.37830960750579834,0.8299999833106995
1186,0.3005734980106354,0.8700000047683716,0.3783695697784424,0.8299999833106995
1187,0.3052942752838135,0.8799999952316284,0.378330260515213,0.8299999833106995
1188,0.32271671295166016,0.8600000143051147,0.37834328413009644,0.8399999737739563
1189,0.32532986998558044,0.8399999737739563,0.3784090280532837,0.8399999737739563
1190,0.30563899874687195,0.8500000238418579,0.3784031569957733,0.8399999737739563
1191,0.28798210620880127,0.8700000047683716,0.3783451318740845,0.8399999737739563
1192,0.3427761197090149,0.800000011920929,0.3784257769584656,0.8399999737739563
1193,0.3519206941127777,0.8299999833106995,0.3784421682357788,0.8399999737739563
1194,0.30024757981300354,0.8700000047683716,0.3784254789352417,0.8399999737739563
1195,0.3173275887966156,0.8600000143051147,0.3783930838108063,0.8399999737739563
1196,0.3105485141277313,0.8700000047683716,0.37835928797721863,0.8399999737739563
1197,0.2890225648880005,0.8700000047683716,0.3783162832260132,0.8399999737739563
1198,0.30363407731056213,0.8500000238418579,0.37828677892684937,0.8399999737739563
1199,0.3031924068927765,0.8700000047683716,0.378286749124527,0.8399999737739563
1200,0.2915685176849365,0.8500000238418579,0.3782910108566284,0.8399999737739563
1201,0.29983410239219666,0.8700000047683716,0.3783668279647827,0.8399999737739563
1202,0.32066890597343445,0.8700000047683716,0.37834036350250244,0.8399999737739563
1203,0.3230239152908325,0.8399999737739563,0.3783358633518219,0.8399999737739563
1204,0.29440581798553467,0.8799999952316284,0.37840327620506287,0.8399999737739563
1205,0.32717764377593994,0.8700000047683716,0.3782636225223541,0.8399999737739563
1206,0.36425742506980896,0.8199999928474426,0.37818121910095215,0.8399999737739563
1207,0.3199588656425476,0.8500000238418579,0.37819138169288635,0.8399999737739563
1208,0.3356117010116577,0.8500000238418579,0.37809425592422485,0.8399999737739563
1209,0.3222579061985016,0.8399999737739563,0.37799084186553955,0.8399999737739563
1210,0.2953657805919647,0.8600000143051147,0.3780073821544647,0.8399999737739563
1211,0.32840439677238464,0.8700000047683716,0.3780075013637543,0.8399999737739563
1212,0.2859942317008972,0.8999999761581421,0.37802383303642273,0.8399999737739563
1213,0.3117949366569519,0.8799999952316284,0.37802278995513916,0.8399999737739563
1214,0.29136544466018677,0.8899999856948853,0.3780097961425781,0.8399999737739563
1215,0.3375929892063141,0.8299999833106995,0.37796732783317566,0.8399999737739563
1216,0.3292473256587982,0.8299999833106995,0.3779367208480835,0.8399999737739563
1217,0.27719125151634216,0.8799999952316284,0.3779221475124359,0.8399999737739563
1218,0.31169766187667847,0.8600000143051147,0.3778952360153198,0.8399999737739563
1219,0.28224727511405945,0.8700000047683716,0.37787720561027527,0.8399999737739563
1220,0.35552987456321716,0.8100000023841858,0.3777766525745392,0.8399999737739563
1221,0.3019452393054962,0.8700000047683716,0.3777439594268799,0.8399999737739563
1222,0.336191326379776,0.8399999737739563,0.3776690363883972,0.8399999737739563
1223,0.3027729094028473,0.9100000262260437,0.3776610493659973,0.8399999737739563
1224,0.29167404770851135,0.8899999856948853,0.37762191891670227,0.8399999737739563
1225,0.31588074564933777,0.8199999928474426,0.37754955887794495,0.8399999737739563
1226,0.3096638023853302,0.8399999737739563,0.37748101353645325,0.8399999737739563
1227,0.28808459639549255,0.8999999761581421,0.3775090277194977,0.8399999737739563
1228,0.3608775734901428,0.8199999928474426,0.37747305631637573,0.8399999737739563
1229,0.3368975818157196,0.8199999928474426,0.3774223327636719,0.8399999737739563
1230,0.29349303245544434,0.8399999737739563,0.37741005420684814,0.8399999737739563
1231,0.38835516571998596,0.8199999928474426,0.37737926840782166,0.8399999737739563
1232,0.3134506642818451,0.8799999952316284,0.3773189187049866,0.8399999737739563
1233,0.3161422610282898,0.8700000047683716,0.3771919012069702,0.8399999737739563
1234,0.3150053322315216,0.8399999737739563,0.37714117765426636,0.8399999737739563
1235,0.2765040695667267,0.8999999761581421,0.37714308500289917,0.8399999737739563
1236,0.30147913098335266,0.8799999952316284,0.3771231174468994,0.8399999737739563
1237,0.2934006452560425,0.8799999952316284,0.3771064877510071,0.8399999737739563
1238,0.2970952093601227,0.8899999856948853,0.3769911825656891,0.8399999737739563
1239,0.319023072719574,0.8600000143051147,0.376837819814682,0.8399999737739563
1240,0.3131221830844879,0.8799999952316284,0.37677517533302307,0.8399999737739563
1241,0.3184904456138611,0.8399999737739563,0.376771479845047,0.8399999737739563
1242,0.3152187466621399,0.8500000238418579,0.37668758630752563,0.8399999737739563
1243,0.29572194814682007,0.8899999856948853,0.3766360580921173,0.8399999737739563
1244,0.29270631074905396,0.8399999737739563,0.3766065835952759,0.8399999737739563
1245,0.35509324073791504,0.8600000143051147,0.3765348494052887,0.8399999737739563
1246,0.3191675543785095,0.8500000238418579,0.3764977753162384,0.8399999737739563
1247,0.28583523631095886,0.8700000047683716,0.37644749879837036,0.8399999737739563
1248,0.2746911942958832,0.8500000238418579,0.3764829933643341,0.8399999737739563
1249,0.33998626470565796,0.8299999833106995,0.37640219926834106,0.8399999737739563
1250,0.283904105424881,0.8700000047683716,0.37646380066871643,0.8399999737739563
1251,0.31556978821754456,0.8399999737739563,0.37650734186172485,0.8399999737739563
1252,0.30989542603492737,0.8600000143051147,0.37645840644836426,0.8399999737739563
1253,0.27301082015037537,0.8799999952316284,0.37649330496788025,0.8399999737739563
1254,0.29285237193107605,0.8600000143051147,0.3764602541923523,0.8399999737739563
1255,0.2794894874095917,0.8700000047683716,0.3764331042766571,0.8399999737739563
1256,0.3064415454864502,0.8799999952316284,0.3764374554157257,0.8399999737739563
1257,0.26513436436653137,0.8700000047683716,0.3764514625072479,0.8399999737739563
1258,0.31709712743759155,0.8700000047683716,0.37639519572257996,0.8399999737739563
1259,0.33858543634414673,0.8500000238418579,0.37634044885635376,0.8399999737739563
1260,0.3072035312652588,0.8899999856948853,0.37635672092437744,0.8399999737739563
1261,0.28971150517463684,0.8799999952316284,0.37641242146492004,0.8399999737739563
1262,0.2897355556488037,0.8700000047683716,0.37633734941482544,0.8399999737739563
1263,0.31992217898368835,0.8600000143051147,0.37626850605010986,0.8399999737739563
1264,0.313999742269516,0.8700000047683716,0.37622272968292236,0.8399999737739563
1265,0.2940883934497833,0.8799999952316284,0.376270592212677,0.8399999737739563
1266,0.33725014328956604,0.8899999856948853,0.3762359321117401,0.8399999737739563
1267,0.30486997961997986,0.8500000238418579,0.37612488865852356,0.8399999737739563
1268,0.2982318103313446,0.8799999952316284,0.3761431574821472,0.8399999737739563
1269,0.32858726382255554,0.8500000238418579,0.37613245844841003,0.8399999737739563
1270,0.32191088795661926,0.8600000143051147,0.3760450482368469,0.8399999737739563
1271,0.2664192318916321,0.8899999856948853,0.37600791454315186,0.8399999737739563
1272,0.31039950251579285,0.8600000143051147,0.37600913643836975,0.8399999737739563
1273,0.2984120547771454,0.8600000143051147,0.37592291831970215,0.8399999737739563
1274,0.30442991852760315,0.8799999952316284,0.3758242726325989,0.8399999737739563
1275,0.2724168300628662,0.8899999856948853,0.37582170963287354,0.8399999737739563
1276,0.3174503743648529,0.8399999737739563,0.3757549226284027,0.8399999737739563
1277,0.33435192704200745,0.8500000238418579,0.3756667673587799,0.8399999737739563
1278,0.3008776307106018,0.8500000238418579,0.37563151121139526,0.8399999737739563
1279,0.30988362431526184,0.8399999737739563,0.3756578862667084,0.8399999737739563
1280,0.3378778100013733,0.8299999833106995,0.3756016194820404,0.8399999737739563
1281,0.2570372521877289,0.8899999856948853,0.3755839467048645,0.8399999737739563
1282,0.31748226284980774,0.8700000047683716,0.375497043132782,0.8399999737739563
1283,0.291556179523468,0.8899999856948853,0.37555110454559326,0.8399999737739563
1284,0.2987922430038452,0.8700000047683716,0.3755663335323334,0.8399999737739563
1285,0.29352062940597534,0.8600000143051147,0.37554165720939636,0.8399999737739563
1286,0.28312787413597107,0.8899999856948853,0.3754904866218567,0.8399999737739563
1287,0.28886792063713074,0.9200000166893005,0.3755035400390625,0.8399999737739563
1288,0.2803322672843933,0.8700000047683716,0.3754608929157257,0.8399999737739563
1289,0.324347585439682,0.8700000047683716,0.37547311186790466,0.8399999737739563
1290,0.3089533746242523,0.8600000143051147,0.3753552734851837,0.8399999737739563
1291,0.3232841491699219,0.8399999737739563,0.3752676248550415,0.8399999737739563
1292,0.2871790826320648,0.8600000143051147,0.3752437233924866,0.8399999737739563
1293,0.27924948930740356,0.8799999952316284,0.37527695298194885,0.8399999737739563
1294,0.3149299621582031,0.8100000023841858,0.37527573108673096,0.8399999737739563
1295,0.2873178720474243,0.8799999952316284,0.3752956688404083,0.8399999737739563
1296,0.3143294155597687,0.8799999952316284,0.37529030442237854,0.8399999737739563
1297,0.3128032684326172,0.8700000047683716,0.3752996325492859,0.8399999737739563
1298,0.2805502116680145,0.8600000143051147,0.3752242922782898,0.8399999737739563
1299,0.31800907850265503,0.8700000047683716,0.37528732419013977,0.8399999737739563
1300,0.2781364917755127,0.8899999856948853,0.3752925395965576,0.8399999737739563
1301,0.3171663284301758,0.8700000047683716,0.37518954277038574,0.8399999737739563
1302,0.31087157130241394,0.8600000143051147,0.3751245141029358,0.8399999737739563
1303,0.2941460609436035,0.8399999737739563,0.3751395046710968,0.8399999737739563
1304,0.32919642329216003,0.8500000238418579,0.3751295208930969,0.8399999737739563
1305,0.306828111410141,0.8899999856948853,0.37520644068717957,0.8399999737739563
1306,0.29593873023986816,0.8700000047683716,0.3751761317253113,0.8399999737739563
1307,0.28813332319259644,0.8799999952316284,0.3751606047153473,0.8399999737739563
1308,0.34452301263809204,0.8500000238418579,0.37516334652900696,0.8399999737739563
1309,0.28438881039619446,0.8899999856948853,0.3750958740711212,0.8399999737739563
1310,0.3368084728717804,0.8399999737739563,0.3750252425670624,0.8399999737739563
1311,0.3236742317676544,0.8600000143051147,0.375054270029068,0.8399999737739563
1312,0.3306680917739868,0.8199999928474426,0.3750765919685364,0.8399999737739563
1313,0.29673853516578674,0.8700000047683716,0.37497657537460327,0.8399999737739563
1314,0.30745065212249756,0.8399999737739563,0.37492260336875916,0.8399999737739563
1315,0.29772576689720154,0.8700000047683716,0.3749445080757141,0.8399999737739563
1316,0.31161344051361084,0.8600000143051147,0.3749304711818695,0.8399999737739563
1317,0.3177875578403473,0.8500000238418579,0.3748466372489929,0.8399999737739563
1318,0.332901269197464,0.8600000143051147,0.37492260336875916,0.8399999737739563
1319,0.3064514100551605,0.8700000047683716,0.3749588131904602,0.8399999737739563
1320,0.2810453474521637,0.8600000143051147,0.3749745190143585,0.8399999737739563
1321,0.30329734086990356,0.8399999737739563,0.37501898407936096,0.8399999737739563
1322,0.2907467782497406,0.8700000047683716,0.37493354082107544,0.8399999737739563
1323,0.32285183668136597,0.8700000047683716,0.3749102056026459,0.8399999737739563
1324,0.3082887530326843,0.8600000143051147,0.37482166290283203,0.8399999737739563
1325,0.2919212281703949,0.8799999952316284,0.37475907802581787,0.8399999737739563
1326,0.30824100971221924,0.8399999737739563,0.3747338056564331,0.8399999737739563
1327,0.3076704740524292,0.8500000238418579,0.3746965825557709,0.8399999737739563
1328,0.27277740836143494,0.8899999856948853,0.37461426854133606,0.8399999737739563
1329,0.27229589223861694,0.8799999952316284,0.3745909631252289,0.8399999737739563
1330,0.2550106942653656,0.8999999761581421,0.37460482120513916,0.8399999737739563
1331,0.3148840367794037,0.8700000047683716,0.3745424747467041,0.8399999737739563
1332,0.3219758868217468,0.8399999737739563,0.3745974600315094,0.8399999737739563
1333,0.29960179328918457,0.8700000047683716,0.374577134847641,0.8399999737739563
1334,0.30334925651550293,0.8299999833106995,0.3745995759963989,0.8399999737739563
1335,0.2994364798069,0.8700000047683716,0.37458130717277527,0.8399999737739563
1336,0.2653712332248688,0.8799999952316284,0.3745676875114441,0.8399999737739563
1337,0.33790478110313416,0.8199999928474426,0.37443602085113525,0.8399999737739563
1338,0.28029268980026245,0.8700000047683716,0.37437838315963745,0.8399999737739563
1339,0.27070915699005127,0.8899999856948853,0.37430691719055176,0.8399999737739563
1340,0.30628228187561035,0.8700000047683716,0.37422239780426025,0.8399999737739563
1341,0.3212568759918213,0.8600000143051147,0.3741806745529175,0.8399999737739563
1342,0.27271440625190735,0.8299999833106995,0.3741934895515442,0.8399999737739563
1343,0.29688331484794617,0.8500000238418579,0.37419211864471436,0.8399999737739563
1344,0.30361199378967285,0.8899999856948853,0.37416666746139526,0.8399999737739563
1345,0.28319671750068665,0.8899999856948853,0.3741694986820221,0.8399999737739563
1346,0.31172066926956177,0.8600000143051147,0.37428975105285645,0.8399999737739563
1347,0.2928405702114105,0.8999999761581421,0.3742837905883789,0.8399999737739563
1348,0.31795650720596313,0.8600000143051147,0.3742843568325043,0.8399999737739563
1349,0.28822430968284607,0.8799999952316284,0.3743247091770172,0.8399999737739563
1350,0.3370444178581238,0.8399999737739563,0.37428975105285645,0.8399999737739563
1351,0.292129784822464,0.8899999856948853,0.374227911233902,0.8399999737739563
1352,0.2914070785045624,0.8600000143051147,0.37414851784706116,0.8399999737739563
1353,0.3141874372959137,0.8299999833106995,0.37405717372894287,0.8399999737739563
1354,0.2963942289352417,0.8600000143051147,0.37396514415740967,0.8399999737739563
1355,0.33321601152420044,0.8299999833106995,0.37384718656539917,0.8399999737739563
1356,0.3143681585788727,0.8299999833106995,0.3737863302230835,0.8399999737739563
1357,0.2818094491958618,0.8899999856948853,0.37375351786613464,0.8399999737739563
1358,0.2743279039859772,0.9100000262260437,0.3737691044807434,0.8399999737739563
1359,0.29781535267829895,0.8799999952316284,0.3737167716026306,0.8399999737739563
1360,0.27249303460121155,0.9100000262260437,0.373688668012619,0.8399999737739563
1361,0.3011738955974579,0.8799999952316284,0.3736498951911926,0.8399999737739563
1362,0.2859143316745758,0.8600000143051147,0.37367188930511475,0.8399999737739563
1363,0.30297255516052246,0.8700000047683716,0.373640239238739,0.8399999737739563
1364,0.34632575511932373,0.8500000238418579,0.3735756278038025,0.8399999737739563
1365,0.2969418168067932,0.8799999952316284,0.37360119819641113,0.8399999737739563
1366,0.32663804292678833,0.8600000143051147,0.37358787655830383,0.8399999737739563
1367,0.31692513823509216,0.8700000047683716,0.37352874875068665,0.8399999737739563
1368,0.29810431599617004,0.8600000143051147,0.37351512908935547,0.8399999737739563
1369,0.3078700602054596,0.8700000047683716,0.3734945058822632,0.8399999737739563
1370,0.3266584277153015,0.8600000143051147,0.3734202980995178,0.8399999737739563
1371,0.30624428391456604,0.8500000238418579,0.3733259439468384,0.8399999737739563
1372,0.3096369802951813,0.8600000143051147,0.37329065799713135,0.8399999737739563
1373,0.31417474150657654,0.8700000047683716,0.3732885718345642,0.8399999737739563
1374,0.303353488445282,0.8700000047683716,0.3733043372631073,0.8399999737739563
1375,0.2993343472480774,0.8700000047683716,0.3732149600982666,0.8399999737739563
1376,0.3015129566192627,0.8700000047683716,0.3731541931629181,0.8399999737739563
1377,0.2928675413131714,0.8700000047683716,0.3731362223625183,0.8399999737739563
1378,0.2952808737754822,0.8399999737739563,0.3731415867805481,0.8399999737739563
1379,0.2954951524734497,0.8799999952316284,0.37306496500968933,0.8399999737739563
1380,0.27683374285697937,0.8799999952316284,0.37301576137542725,0.8399999737739563
1381,0.323765367269516,0.8399999737739563,0.37298092246055603,0.8399999737739563
1382,0.2918902039527893,0.8600000143051147,0.37293750047683716,0.8399999737739563
1383,0.32418522238731384,0.8600000143051147,0.3729502558708191,0.8399999737739563
1384,0.29162344336509705,0.8799999952316284,0.37293991446495056,0.8399999737739563
1385,0.32705989480018616,0.8299999833106995,0.373026043176651,0.8399999737739563
1386,0.27240487933158875,0.8999999761581421,0.37305617332458496,0.8399999737739563
1387,0.29285770654678345,0.9100000262260437,0.3730023205280304,0.8399999737739563
1388,0.2915187478065491,0.8899999856948853,0.3730486035346985,0.8399999737739563
1389,0.32872894406318665,0.8399999737739563,0.37295666337013245,0.8399999737739563
1390,0.29498451948165894,0.8799999952316284,0.37303295731544495,0.8399999737739563
1391,0.327367901802063,0.8299999833106995,0.372970312833786,0.8399999737739563
1392,0.302768349647522,0.8700000047683716,0.3729150891304016,0.8399999737739563
1393,0.2851007282733917,0.8600000143051147,0.37282130122184753,0.8399999737739563
1394,0.30157652497291565,0.8700000047683716,0.37273797392845154,0.8399999737739563
1395,0.3225215673446655,0.8700000047683716,0.37263545393943787,0.8399999737739563
1396,0.3017151653766632,0.8500000238418579,0.37257084250450134,0.8399999737739563
1397,0.3056904375553131,0.8799999952316284,0.3725306987762451,0.8399999737739563
1398,0.3444441258907318,0.8399999737739563,0.37249088287353516,0.8399999737739563
1399,0.3065052926540375,0.8799999952316284,0.3725055754184723,0.8399999737739563
1400,0.2909488379955292,0.8600000143051147,0.37252601981163025,0.8399999737739563
1401,0.2759348452091217,0.8799999952316284,0.3724948465824127,0.8399999737739563
1402,0.31412145495414734,0.8399999737739563,0.37256908416748047,0.8399999737739563
1403,0.25979477167129517,0.8899999856948853,0.3725523054599762,0.8399999737739563
1404,0.320659339427948,0.8899999856948853,0.3725361227989197,0.8399999737739563
1405,0.3182755708694458,0.8399999737739563,0.3725975453853607,0.8399999737739563
1406,0.27499866485595703,0.8500000238418579,0.37265631556510925,0.8399999737739563
1407,0.30762556195259094,0.8199999928474426,0.372595876455307,0.8399999737739563
1408,0.2984079122543335,0.8899999856948853,0.3724692165851593,0.8399999737739563
1409,0.3169098198413849,0.8100000023841858,0.37243637442588806,0.8399999737739563
1410,0.28460732102394104,0.8600000143051147,0.3723485469818115,0.8399999737739563
1411,0.28044450283050537,0.8600000143051147,0.372307687997818,0.8399999737739563
1412,0.28016406297683716,0.8500000238418579,0.3722141981124878,0.8399999737739563
1413,0.27237895131111145,0.8999999761581421,0.3722226321697235,0.8399999737739563
1414,0.30305588245391846,0.8500000238418579,0.37217941880226135,0.8399999737739563
1415,0.2913554012775421,0.8700000047683716,0.37218743562698364,0.8399999737739563
1416,0.30096161365509033,0.8700000047683716,0.3722114562988281,0.8399999737739563
1417,0.30703678727149963,0.8600000143051147,0.37222054600715637,0.8399999737739563
1418,0.2982899248600006,0.8500000238418579,0.3722410500049591,0.8399999737739563
1419,0.2961783707141876,0.8799999952316284,0.3722417950630188,0.8399999737739563
1420,0.2952488958835602,0.8799999952316284,0.37213000655174255,0.8399999737739563
1421,0.3084507882595062,0.8700000047683716,0.37212440371513367,0.8399999737739563
1422,0.27894869446754456,0.8600000143051147,0.37208884954452515,0.8399999737739563
1423,0.26813626289367676,0.9399999976158142,0.3720099627971649,0.8399999737739563
1424,0.3039872646331787,0.9200000166893005,0.37192413210868835,0.8399999737739563
1425,0.2763373851776123,0.8700000047683716,0.37194520235061646,0.8399999737739563
1426,0.28527405858039856,0.8799999952316284,0.3720254898071289,0.8399999737739563
1427,0.29363539814949036,0.8500000238418579,0.37199562788009644,0.8399999737739563
1428,0.3161647319793701,0.8399999737739563,0.37192288041114807,0.8399999737739563
1429,0.2776377499103546,0.8600000143051147,0.37188777327537537,0.8399999737739563
1430,0.30114132165908813,0.8799999952316284,0.37190520763397217,0.8399999737739563
1431,0.2932126820087433,0.8600000143051147,0.3719155490398407,0.8399999737739563
1432,0.30027684569358826,0.8500000238418579,0.37193992733955383,0.8399999737739563
1433,0.285454660654068,0.8299999833106995,0.37192273139953613,0.8399999737739563
1434,0.29295480251312256,0.8500000238418579,0.3719397485256195,0.8399999737739563
1435,0.3073054254055023,0.8600000143051147,0.3719058632850647,0.8399999737739563
1436,0.30523407459259033,0.8500000238418579,0.37191346287727356,0.8399999737739563
1437,0.28238844871520996,0.8899999856948853,0.37184515595436096,0.8399999737739563
1438,0.2983551323413849,0.8500000238418579,0.37179237604141235,0.8399999737739563
1439,0.2812381088733673,0.8500000238418579,0.3717343211174011,0.8399999737739563
1440,0.2862660586833954,0.8600000143051147,0.3716714084148407,0.8399999737739563
1441,0.29264697432518005,0.8600000143051147,0.37165191769599915,0.8399999737739563
1442,0.2872525453567505,0.8899999856948853,0.3716159164905548,0.8399999737739563
1443,0.2759256064891815,0.8500000238418579,0.3716558516025543,0.8399999737739563
1444,0.2912271022796631,0.8600000143051147,0.37171661853790283,0.8399999737739563
1445,0.26011526584625244,0.9100000262260437,0.3716968297958374,0.8399999737739563
1446,0.29709601402282715,0.8399999737739563,0.37160301208496094,0.8399999737739563
1447,0.3016854226589203,0.8500000238418579,0.3715471625328064,0.8399999737739563
1448,0.3207441568374634,0.8600000143051147,0.3714769780635834,0.8399999737739563
1449,0.2640731632709503,0.9200000166893005,0.37148338556289673,0.8399999737739563
1450,0.30229246616363525,0.8399999737739563,0.37144240736961365,0.8399999737739563
1451,0.3227684497833252,0.8399999737739563,0.37144461274147034,0.8399999737739563
1452,0.26888972520828247,0.8799999952316284,0.3713805079460144,0.8399999737739563
1453,0.3456178903579712,0.8700000047683716,0.3713277578353882,0.8399999737739563
1454,0.25938117504119873,0.8700000047683716,0.3713916838169098,0.8399999737739563
1455,0.30578577518463135,0.8600000143051147,0.37133777141571045,0.8399999737739563
1456,0.3100740313529968,0.8500000238418579,0.37129145860671997,0.8399999737739563
1457,0.30363160371780396,0.8299999833106995,0.371280312538147,0.8399999737739563
1458,0.2680518329143524,0.9100000262260437,0.3712969124317169,0.8399999737739563
1459,0.30713793635368347,0.8399999737739563,0.3712776303291321,0.8399999737739563
1460,0.3054497241973877,0.8299999833106995,0.371282696723938,0.8399999737739563
1461,0.2832767963409424,0.8899999856948853,0.37128451466560364,0.8399999737739563
1462,0.2970646917819977,0.8500000238418579,0.3712075352668762,0.8399999737739563
1463,0.26906418800354004,0.8700000047683716,0.37126028537750244,0.8399999737739563
1464,0.26363396644592285,0.8999999761581421,0.37121686339378357,0.8399999737739563
1465,0.2985556423664093,0.8999999761581421,0.37116795778274536,0.8399999737739563
1466,0.29306164383888245,0.8700000047683716,0.3711588382720947,0.8399999737739563
1467,0.2817676365375519,0.8700000047683716,0.37111973762512207,0.8399999737739563
1468,0.2952682375907898,0.8600000143051147,0.37108147144317627,0.8399999737739563
1469,0.3077821135520935,0.8799999952316284,0.37108153104782104,0.8399999737739563
1470,0.3059770464897156,0.8600000143051147,0.37098732590675354,0.8399999737739563
1471,0.30681294202804565,0.8799999952316284,0.37089547514915466,0.8399999737739563
1472,0.28280821442604065,0.9100000262260437,0.37093037366867065,0.8399999737739563
1473,0.29404395818710327,0.8600000143051147,0.3708694577217102,0.8399999737739563
1474,0.2850922644138336,0.8899999856948853,0.37083858251571655,0.8399999737739563
1475,0.3033459782600403,0.8600000143051147,0.3708384037017822,0.8399999737739563
1476,0.2813560366630554,0.8799999952316284,0.37089240550994873,0.8399999737739563
1477,0.30811843276023865,0.8799999952316284,0.3707994818687439,0.8399999737739563
1478,0.28021079301834106,0.8700000047683716,0.3707646429538727,0.8399999737739563
1479,0.28358903527259827,0.8600000143051147,0.3707449436187744,0.8399999737739563
1480,0.2825387120246887,0.8600000143051147,0.37071648240089417,0.8399999737739563
1481,0.2832660377025604,0.8799999952316284,0.3706890046596527,0.8399999737739563
1482,0.2912818491458893,0.8600000143051147,0.3706611692905426,0.8399999737739563
1483,0.29489123821258545,0.8600000143051147,0.37058213353157043,0.8399999737739563
1484,0.28273192048072815,0.8600000143051147,0.37058600783348083,0.8399999737739563
1485,0.2981588840484619,0.8600000143051147,0.37053990364074707,0.8399999737739563
1486,0.28553348779678345,0.8600000143051147,0.37055855989456177,0.8399999737739563
1487,0.28006449341773987,0.8700000047683716,0.3704295754432678,0.8399999737739563
1488,0.29108068346977234,0.8899999856948853,0.37042057514190674,0.8399999737739563
1489,0.269138365983963,0.8700000047683716,0.37041962146759033,0.8399999737739563
1490,0.2735884189605713,0.8600000143051147,0.3704409897327423,0.8399999737739563
