,loss,recall,val_loss,val_recall
0,0.5206474661827087,0.5890879953379954,0.658536434173584,0.38195346320346324
1,0.4824865758419037,0.7442351299494155,0.6993263959884644,0.6392595499738356
2,0.37368956208229065,0.8317016317016316,0.5675908327102661,0.693382807668522
3,0.28292936086654663,0.867511853226139,0.8196325302124023,0.6671245421245422
4,0.25169530510902405,0.8942099567099567,0.3461886942386627,0.859981684981685
5,0.19915053248405457,0.9135745207173779,0.3622296452522278,0.8326814058956915
6,0.1706775277853012,0.9458874458874459,0.3597683012485504,0.8316326530612246
7,0.12828673422336578,0.9577922077922078,0.4289029538631439,0.7857117089259946
8,0.10469229519367218,0.9696969696969697,0.44972798228263855,0.8062641723356009
9,0.08510372787714005,0.9761904761904762,0.34353306889533997,0.8696755625327055
10,0.06894733011722565,0.980952380952381,1.4304863214492798,0.5822278911564626
11,0.11048860102891922,0.9642857142857143,0.6841074824333191,0.745475159760874
12,0.10959649085998535,0.9438775510204083,1.264704942703247,0.6928571428571428
13,0.071897491812706,0.9887445887445887,0.8660230040550232,0.7562532705389848
14,0.08622219413518906,0.9761904761904762,0.3231925666332245,0.8895124716553288
15,0.04644134268164635,1.0,0.4694439470767975,0.8370902906617194
16,0.0364534966647625,1.0,0.6655212044715881,0.8448646591503735
17,0.04002116993069649,0.9880952380952381,0.437061607837677,0.8502267573696144
18,0.024467708542943,1.0,0.3423607051372528,0.9049577406720264
19,0.03423987701535225,1.0,0.36456042528152466,0.8848072562358277
20,0.11204186826944351,0.9570596070596071,0.6579505205154419,0.8540396111824683
21,0.12673629820346832,0.9333333333333333,0.48315268754959106,0.8927738927738929
22,0.05815877765417099,0.9659863945578231,0.5937516093254089,0.8657271300128444
23,0.0364968441426754,1.0,0.49958309531211853,0.8519789734075448
24,0.08127104490995407,0.969047619047619,0.3940287232398987,0.8863636363636364
25,0.038384247571229935,0.9642857142857143,0.6872533559799194,0.8354849515563803
26,0.03220536559820175,0.994047619047619,0.718230664730072,0.8530897673754817
27,0.029375344514846802,0.9935064935064936,0.681361734867096,0.90004995004995
28,0.012872753664851189,1.0,0.38501623272895813,0.8833024118738404
29,0.008993595838546753,1.0,0.36509013175964355,0.8964285714285715
30,0.00666865473613143,1.0,0.3598966598510742,0.9023809523809524
31,0.005091555416584015,1.0,0.380808025598526,0.9028388278388279
32,0.00415388960391283,1.0,0.4024635851383209,0.8923512994941566
33,0.003660468617454171,1.0,0.41197749972343445,0.9057299843014128
34,0.00322728487662971,1.0,0.4151760935783386,0.9057299843014128
35,0.002906141569837928,1.0,0.4189925193786621,0.9057299843014128
36,0.0026611131615936756,1.0,0.42335745692253113,0.9057299843014128
37,0.0024626522790640593,1.0,0.42627349495887756,0.9057299843014128
38,0.002295828890055418,1.0,0.42803508043289185,0.9057299843014128
39,0.0021534000989049673,1.0,0.42976686358451843,0.9116823652537939
40,0.002028724644333124,1.0,0.4318523108959198,0.9057299843014128
41,0.0019178815418854356,1.0,0.43407773971557617,0.9057299843014128
42,0.0018178558675572276,1.0,0.4362195134162903,0.9057299843014128
43,0.0017263767076656222,1.0,0.43820327520370483,0.9162742019884876
44,0.0016423930646851659,1.0,0.4400903880596161,0.9162742019884876
45,0.0015653029549866915,1.0,0.4418918788433075,0.9162742019884876
46,0.0014942759880796075,1.0,0.44363412261009216,0.9162742019884876
47,0.0014285424258559942,1.0,0.44528499245643616,0.9162742019884876
48,0.001367429387755692,1.0,0.4468628466129303,0.9162742019884876
49,0.0013108119601383805,1.0,0.44838422536849976,0.9162742019884876
50,0.001258233212865889,1.0,0.449903279542923,0.9162742019884876
51,0.0012091028038412333,1.0,0.4514063000679016,0.9162742019884876
52,0.001163351465947926,1.0,0.45291730761528015,0.9162742019884876
53,0.001120511326007545,1.0,0.4543631076812744,0.9162742019884876
54,0.001080388086847961,1.0,0.45576170086860657,0.9162742019884876
55,0.0010426674271002412,1.0,0.45712798833847046,0.9222265829408686
56,0.001007070648483932,1.0,0.4584319591522217,0.9222265829408686
57,0.0009735596249811351,1.0,0.4596460163593292,0.9222265829408686
58,0.0009418934932909906,1.0,0.46079927682876587,0.9222265829408686
59,0.0009119142778217793,1.0,0.46197766065597534,0.9222265829408686
60,0.0008835484040901065,1.0,0.4631805419921875,0.9222265829408686
61,0.0008566176402382553,1.0,0.46437594294548035,0.9222265829408686
62,0.0008310000994242728,1.0,0.4655191898345947,0.9222265829408686
63,0.0008066057926043868,1.0,0.4666087031364441,0.9222265829408686
64,0.0007833553245291114,1.0,0.46765002608299255,0.9222265829408686
65,0.0007611574837937951,1.0,0.4686751663684845,0.9222265829408686
66,0.0007399635505862534,1.0,0.46969491243362427,0.9222265829408686
67,0.0007197194499894977,1.0,0.4707159399986267,0.9222265829408686
68,0.0007003509672358632,1.0,0.4716918468475342,0.9222265829408686
69,0.0006818083929829299,1.0,0.4726142883300781,0.9222265829408686
70,0.000664122577290982,1.0,0.4735264778137207,0.9222265829408686
71,0.0006471640081144869,1.0,0.4744327962398529,0.9222265829408686
72,0.0006308998563326895,1.0,0.4753251075744629,0.9222265829408686
73,0.0006152930436655879,1.0,0.4762081205844879,0.9222265829408686
74,0.0006002904265187681,1.0,0.4770635962486267,0.9222265829408686
75,0.0005858665099367499,1.0,0.4778934121131897,0.9222265829408686
76,0.0005720108165405691,1.0,0.478705495595932,0.9222265829408686
77,0.0005586458137258887,1.0,0.47951334714889526,0.9222265829408686
78,0.0005458065425045788,1.0,0.48032626509666443,0.9222265829408686
79,0.0005334240267984569,1.0,0.4811302721500397,0.9222265829408686
80,0.0005214802222326398,1.0,0.48191961646080017,0.9222265829408686
81,0.0005099697737023234,1.0,0.4827078878879547,0.9222265829408686
82,0.0004988767905160785,1.0,0.4834969639778137,0.9222265829408686
83,0.00048818657523952425,1.0,0.4842732548713684,0.9222265829408686
84,0.0004778830334544182,1.0,0.48504847288131714,0.9222265829408686
85,0.0004679311823565513,1.0,0.485823392868042,0.9222265829408686
86,0.00045827782014384866,1.0,0.4865982234477997,0.9222265829408686
87,0.0004489390121307224,1.0,0.4873588979244232,0.9222265829408686
88,0.0004399094614200294,1.0,0.4881074130535126,0.9222265829408686
89,0.0004311625671107322,1.0,0.4888540208339691,0.9222265829408686
90,0.0004227015015203506,1.0,0.4895853102207184,0.9222265829408686
91,0.00041449867421761155,1.0,0.4903019368648529,0.9222265829408686
92,0.000406548788305372,1.0,0.491021066904068,0.9222265829408686
93,0.000398844393203035,1.0,0.49173426628112793,0.9222265829408686
94,0.00039134614053182304,1.0,0.4924420416355133,0.9222265829408686
95,0.0003840817662421614,1.0,0.4931493401527405,0.9222265829408686
96,0.00037702996633015573,1.0,0.4938530921936035,0.9222265829408686
97,0.00037016303394921124,1.0,0.49453625082969666,0.9222265829408686
98,0.00036349176662042737,1.0,0.4952150285243988,0.9222265829408686
99,0.0003570213739294559,1.0,0.49588847160339355,0.9222265829408686
100,0.0003507359360810369,1.0,0.4965616762638092,0.9222265829408686
101,0.00034461842733435333,1.0,0.49723440408706665,0.9222265829408686
102,0.0003386551106814295,1.0,0.49788764119148254,0.9222265829408686
103,0.0003328522725496441,1.0,0.4985334873199463,0.9222265829408686
104,0.00032720781746320426,1.0,0.4991722106933594,0.9222265829408686
105,0.00032171112252399325,1.0,0.49980977177619934,0.9222265829408686
106,0.00031636437051929533,1.0,0.5004436373710632,0.9222265829408686
107,0.00031112920260056853,1.0,0.5010815858840942,0.9222265829408686
108,0.000306041823932901,1.0,0.5017203688621521,0.9222265829408686
109,0.00030108095961622894,1.0,0.5023460388183594,0.9222265829408686
110,0.00029623808222822845,1.0,0.5029512643814087,0.9222265829408686
111,0.0002915100776590407,1.0,0.5035431981086731,0.9222265829408686
112,0.00028690110775642097,1.0,0.5041382908821106,0.9222265829408686
113,0.00028238361119292676,1.0,0.5047264695167542,0.9222265829408686
114,0.00027798200608231127,1.0,0.5053086280822754,0.9222265829408686
115,0.0002736824390012771,1.0,0.5058807134628296,0.9222265829408686
116,0.0002694913710001856,1.0,0.5064584612846375,0.9222265829408686
117,0.0002653970441315323,1.0,0.5070369839668274,0.9222265829408686
118,0.0002613899123389274,1.0,0.5076076984405518,0.9222265829408686
119,0.00025748382904566824,1.0,0.5081698298454285,0.9222265829408686
120,0.00025365425972267985,1.0,0.5087335705757141,0.9222265829408686
121,0.00024991825921460986,1.0,0.5092869997024536,0.9222265829408686
122,0.0002462663105688989,1.0,0.5098289251327515,0.9222265829408686
123,0.00024269407731480896,1.0,0.510356605052948,0.9222265829408686
124,0.000239194167079404,1.0,0.5108699202537537,0.9222265829408686
125,0.0002357719058636576,1.0,0.5113679766654968,0.9222265829408686
126,0.0002324230008525774,1.0,0.5118507742881775,0.9222265829408686
127,0.00022914430883247405,1.0,0.5123267769813538,0.9222265829408686
128,0.00022594215988647193,1.0,0.5128104090690613,0.9222265829408686
129,0.00022280171106103808,1.0,0.5132989883422852,0.9222265829408686
130,0.0002197335852542892,1.0,0.5137965679168701,0.9222265829408686
131,0.00021672288130503148,1.0,0.5143095254898071,0.9222265829408686
132,0.00021379195095505565,1.0,0.5148162841796875,0.9222265829408686
133,0.00021089713845867664,1.0,0.5153050422668457,0.9222265829408686
134,0.0002080736157950014,1.0,0.5157898664474487,0.9222265829408686
135,0.0002052990166703239,1.0,0.5162712931632996,0.9222265829408686
136,0.0002025765279540792,1.0,0.5167428851127625,0.9222265829408686
137,0.00019991571025457233,1.0,0.5172168612480164,0.9222265829408686
138,0.0001972985191969201,1.0,0.5176892876625061,0.9222265829408686
139,0.0001947430137079209,1.0,0.518150269985199,0.9222265829408686
140,0.00019223747949581593,1.0,0.5186091065406799,0.9222265829408686
141,0.0001897681358968839,1.0,0.519062876701355,0.9222265829408686
142,0.00018736152560450137,1.0,0.5195116400718689,0.9222265829408686
143,0.00018498684221412987,1.0,0.5199551582336426,0.9222265829408686
144,0.0001826621446525678,1.0,0.5204008221626282,0.9222265829408686
145,0.00018038212147075683,1.0,0.5208470225334167,0.9222265829408686
146,0.00017813612066674978,1.0,0.5212774872779846,0.9222265829408686
147,0.00017593482334632427,1.0,0.5217061638832092,0.9222265829408686
148,0.00017378349730279297,1.0,0.5221248865127563,0.9222265829408686
149,0.00017165234021376818,1.0,0.5225447416305542,0.9222265829408686
150,0.00016956485342234373,1.0,0.5229660868644714,0.9222265829408686
151,0.00016752202645875514,1.0,0.5233846306800842,0.9222265829408686
152,0.00016551963926758617,1.0,0.5238009691238403,0.9222265829408686
153,0.0001635395601624623,1.0,0.5242077112197876,0.9222265829408686
154,0.00016160203085746616,1.0,0.5246224403381348,0.9222265829408686
155,0.00015969535161275417,1.0,0.5250447392463684,0.9222265829408686
156,0.0001578174124006182,1.0,0.5254650712013245,0.9222265829408686
157,0.00015597135643474758,1.0,0.5258790850639343,0.9222265829408686
158,0.0001541742676636204,1.0,0.526293158531189,0.9222265829408686
159,0.00015239098866004497,1.0,0.5267009735107422,0.9222265829408686
160,0.00015065343177411705,1.0,0.5271036028862,0.9222265829408686
161,0.0001489435526309535,1.0,0.5274959802627563,0.9222265829408686
162,0.0001472592120990157,1.0,0.5278875827789307,0.9222265829408686
163,0.00014559828559868038,1.0,0.5282779932022095,0.9222265829408686
164,0.00014396818005479872,1.0,0.5286689400672913,0.9222265829408686
165,0.00014237001596484333,1.0,0.5290642976760864,0.9222265829408686
166,0.00014079097309149802,1.0,0.5294517278671265,0.9222265829408686
167,0.00013924385712016374,1.0,0.5298246741294861,0.9222265829408686
168,0.00013771270459983498,1.0,0.5301900506019592,0.9222265829408686
169,0.00013621665129903704,1.0,0.5305622220039368,0.9222265829408686
170,0.00013473656144924462,1.0,0.5309359431266785,0.9222265829408686
171,0.00013329050852917135,1.0,0.5313047766685486,0.9222265829408686
172,0.00013184871932026,1.0,0.5316830277442932,0.9222265829408686
173,0.0001304430770687759,1.0,0.5320621728897095,0.9222265829408686
174,0.00012905553739983588,1.0,0.532437264919281,0.9222265829408686
175,0.00012769034947268665,1.0,0.5328055024147034,0.9222265829408686
176,0.0001263400336029008,1.0,0.5331680178642273,0.9222265829408686
177,0.000125021644635126,1.0,0.5335391759872437,0.9222265829408686
178,0.00012370964395813644,1.0,0.5339105725288391,0.9222265829408686
179,0.00012242635420989245,1.0,0.5342790484428406,0.9222265829408686
180,0.00012117180449422449,1.0,0.5346412062644958,0.9222265829408686
181,0.00011991724750259891,1.0,0.5350026488304138,0.9222265829408686
182,0.00011870417802128941,1.0,0.5353604555130005,0.9222265829408686
183,0.00011749112309189513,1.0,0.5357167720794678,0.9222265829408686
184,0.00011630252265604213,1.0,0.5360704660415649,0.9222265829408686
185,0.00011512881610542536,1.0,0.5364199876785278,0.9222265829408686
186,0.0001139710730058141,1.0,0.5367556810379028,0.9222265829408686
187,0.0001128410076489672,1.0,0.5370871424674988,0.9222265829408686
188,0.00011171092046424747,1.0,0.537418007850647,0.9222265829408686
189,0.00011060637916671112,1.0,0.5377529859542847,0.9222265829408686
190,0.00010952523734886199,1.0,0.5380925536155701,0.9222265829408686
191,0.00010844942153198645,1.0,0.5384325385093689,0.9222265829408686
192,0.0001073980747605674,1.0,0.538770318031311,0.9222265829408686
193,0.00010635098442435265,1.0,0.5391045212745667,0.9222265829408686
194,0.00010533049498917535,1.0,0.5394321084022522,0.9222265829408686
195,0.00010432595445308834,1.0,0.5397612452507019,0.9222265829408686
196,0.00010332460806239396,1.0,0.5400922298431396,0.9222265829408686
197,0.00010234774526907131,1.0,0.5404149889945984,0.9222265829408686
198,0.00010137406206922606,1.0,0.5407325029373169,0.9222265829408686
199,0.00010043124348158017,1.0,0.5410578846931458,0.9222265829408686
200,9.947671060217544e-05,1.0,0.5413910150527954,0.9222265829408686
201,9.85519727692008e-05,1.0,0.5417118668556213,0.9222265829408686
202,9.762936679180712e-05,1.0,0.542024552822113,0.9222265829408686
203,9.673549357103184e-05,1.0,0.5423401594161987,0.9222265829408686
204,9.583734936313704e-05,1.0,0.5426677465438843,0.9222265829408686
205,9.495198173681274e-05,1.0,0.5429981350898743,0.9222265829408686
206,9.408576443092898e-05,1.0,0.5433279275894165,0.9222265829408686
207,9.322699770564213e-05,1.0,0.5436544418334961,0.9222265829408686
208,9.237673657480627e-05,1.0,0.543976902961731,0.9222265829408686
209,9.15392447495833e-05,1.0,0.5442908406257629,0.9222265829408686
210,9.071453678188846e-05,1.0,0.5446012020111084,0.9222265829408686
211,8.990045171231031e-05,1.0,0.5449137091636658,0.9222265829408686
212,8.909167809179053e-05,1.0,0.545224130153656,0.9222265829408686
213,8.830101432977244e-05,1.0,0.5455302000045776,0.9222265829408686
214,8.75124751473777e-05,1.0,0.5458400845527649,0.9222265829408686
215,8.674734272062778e-05,1.0,0.5461508631706238,0.9222265829408686
216,8.597475243732333e-05,1.0,0.5464646816253662,0.9222265829408686
217,8.52266457513906e-05,1.0,0.5467830300331116,0.9222265829408686
218,8.448171865893528e-05,1.0,0.5470940470695496,0.9222265829408686
219,8.374105527764186e-05,1.0,0.547398567199707,0.9222265829408686
220,8.302061178255826e-05,1.0,0.5477023720741272,0.9222265829408686
221,8.230441744672135e-05,1.0,0.5480110049247742,0.9222265829408686
222,8.159355638781562e-05,1.0,0.5483183860778809,0.9222265829408686
223,8.08901313575916e-05,1.0,0.5486211180686951,0.9222265829408686
224,8.019521919777617e-05,1.0,0.5489200949668884,0.9222265829408686
225,7.952372106956318e-05,1.0,0.549217700958252,0.9222265829408686
226,7.883306534495205e-05,1.0,0.5495193600654602,0.9222265829408686
227,7.816688594175503e-05,1.0,0.5498247742652893,0.9222265829408686
228,7.751028897473589e-05,1.0,0.5501300692558289,0.9222265829408686
229,7.686219032621011e-05,1.0,0.5504257678985596,0.9222265829408686
230,7.621836994076148e-05,1.0,0.5507130026817322,0.9222265829408686
231,7.558729703305289e-05,1.0,0.5509952902793884,0.9222265829408686
232,7.49615574022755e-05,1.0,0.5512832403182983,0.9222265829408686
233,7.433367863995954e-05,1.0,0.5515703558921814,0.9222265829408686
234,7.373240805463865e-05,1.0,0.5518611669540405,0.9222265829408686
235,7.311197987291962e-05,1.0,0.5521547198295593,0.9222265829408686
236,7.251496572280303e-05,1.0,0.5524595379829407,0.9222265829408686
237,7.192858902271837e-05,1.0,0.5527679920196533,0.9222265829408686
238,7.134966290323064e-05,1.0,0.5530754327774048,0.9222265829408686
239,7.076967449393123e-05,1.0,0.5533813834190369,0.9222265829408686
240,7.018755422905087e-05,1.0,0.5536800622940063,0.9222265829408686
241,6.962032784940675e-05,1.0,0.5539742112159729,0.9222265829408686
242,6.906800990691409e-05,1.0,0.5542622804641724,0.9222265829408686
243,6.851356010884047e-05,1.0,0.5545476078987122,0.9222265829408686
244,6.797187234042212e-05,1.0,0.5548378825187683,0.9222265829408686
245,6.743126141373068e-05,1.0,0.555126965045929,0.9222265829408686
246,6.689808651572093e-05,1.0,0.5554107427597046,0.9222265829408686
247,6.636811303906143e-05,1.0,0.5556927919387817,0.9222265829408686
248,6.58423887216486e-05,1.0,0.555973470211029,0.9222265829408686
249,6.5328371420037e-05,1.0,0.5562503933906555,0.9222265829408686
250,6.481222953880206e-05,1.0,0.5565303564071655,0.9222265829408686
251,6.430460052797571e-05,1.0,0.5568193793296814,0.9222265829408686
252,6.380547711160034e-05,1.0,0.5571064949035645,0.9222265829408686
253,6.330635369522497e-05,1.0,0.5573940277099609,0.9222265829408686
254,6.28157431492582e-05,1.0,0.5576792359352112,0.9222265829408686
255,6.233046588022262e-05,1.0,0.5579677224159241,0.9222265829408686
256,6.18505000602454e-05,1.0,0.5582564473152161,0.9222265829408686
257,6.138543540146202e-05,1.0,0.5585431456565857,0.9222265829408686
258,6.091292016208172e-05,1.0,0.558832049369812,0.9222265829408686
259,6.043721077730879e-05,1.0,0.5591109395027161,0.9222265829408686
260,5.998065898893401e-05,1.0,0.5593823790550232,0.9222265829408686
261,5.953048821538687e-05,1.0,0.5596646070480347,0.9222265829408686
262,5.90856398048345e-05,1.0,0.559941828250885,0.9222265829408686
263,5.8638663176679984e-05,1.0,0.5602185726165771,0.9222265829408686
264,5.819913712912239e-05,1.0,0.5604894757270813,0.9222265829408686
265,5.776067337137647e-05,1.0,0.5607619881629944,0.9222265829408686
266,5.7327528338646516e-05,1.0,0.5610300302505493,0.9222265829408686
267,5.689757745130919e-05,1.0,0.561296820640564,0.9222265829408686
268,5.648039950756356e-05,1.0,0.5615667700767517,0.9222265829408686
269,5.60600237804465e-05,1.0,0.561833381652832,0.9222265829408686
270,5.564710227190517e-05,1.0,0.5620952248573303,0.9222265829408686
271,5.523205254576169e-05,1.0,0.5623558163642883,0.9222265829408686
272,5.483188942889683e-05,1.0,0.5626140832901001,0.9222265829408686
273,5.442960900836624e-05,1.0,0.5628724694252014,0.9222265829408686
274,5.403477916843258e-05,1.0,0.5631383657455444,0.9222265829408686
275,5.364206663216464e-05,1.0,0.5634030699729919,0.9222265829408686
276,5.325575330061838e-05,1.0,0.5636724233627319,0.9222265829408686
277,5.28694290551357e-05,1.0,0.5639376640319824,0.9222265829408686
278,5.248630259302445e-05,1.0,0.5642024278640747,0.9222265829408686
279,5.210423842072487e-05,1.0,0.564470112323761,0.9222265829408686
280,5.173388126422651e-05,1.0,0.5647502541542053,0.9222265829408686
281,5.135926403454505e-05,1.0,0.565020740032196,0.9222265829408686
282,5.099529153085314e-05,1.0,0.5652804374694824,0.9222265829408686
283,5.063025309937075e-05,1.0,0.56553715467453,0.9222265829408686
284,5.0269471103092656e-05,1.0,0.5657970309257507,0.9222265829408686
285,4.9907623179024085e-05,1.0,0.5660577416419983,0.9222265829408686
286,4.956174598191865e-05,1.0,0.5663131475448608,0.9222265829408686
287,4.92158651468344e-05,1.0,0.5665693879127502,0.9222265829408686
288,4.887423710897565e-05,1.0,0.5668336749076843,0.9222265829408686
289,4.852196798310615e-05,1.0,0.5671020746231079,0.9222265829408686
290,4.818247180082835e-05,1.0,0.5673559308052063,0.9222265829408686
291,4.7842975618550554e-05,1.0,0.56760573387146,0.9222265829408686
292,4.751624874188565e-05,1.0,0.567857563495636,0.9222265829408686
293,4.718100535683334e-05,1.0,0.5681143403053284,0.9222265829408686
294,4.685746898758225e-05,1.0,0.5683668851852417,0.9222265829408686
295,4.653393625630997e-05,1.0,0.568615734577179,0.9222265829408686
296,4.6212524466682225e-05,1.0,0.5688632726669312,0.9222265829408686
297,4.5888991735409945e-05,1.0,0.5691142678260803,0.9222265829408686
298,4.557397187454626e-05,1.0,0.5693705677986145,0.9222265829408686
299,4.526533666648902e-05,1.0,0.569629967212677,0.9222265829408686
300,4.495776738622226e-05,1.0,0.5698723196983337,0.9222265829408686
301,4.4649124902207404e-05,1.0,0.570110023021698,0.9222265829408686
302,4.434581569512375e-05,1.0,0.5703547596931458,0.9222265829408686
303,4.404355786391534e-05,1.0,0.5706038475036621,0.9222265829408686
304,4.3750889744842425e-05,1.0,0.570849597454071,0.9222265829408686
305,4.345502020441927e-05,1.0,0.5711016058921814,0.9222265829408686
306,4.31644766649697e-05,1.0,0.571351945400238,0.9222265829408686
307,4.2873933125520125e-05,1.0,0.5715988278388977,0.9222265829408686
308,4.2583385948091745e-05,1.0,0.571853756904602,0.9222265829408686
309,4.2305611714255065e-05,1.0,0.57210773229599,0.9222265829408686
310,4.201506817480549e-05,1.0,0.5723602175712585,0.9222265829408686
311,4.173942215857096e-05,1.0,0.5726152658462524,0.9222265829408686
312,4.14648384321481e-05,1.0,0.5728694200515747,0.9222265829408686
313,4.118812285014428e-05,1.0,0.573110044002533,0.9222265829408686
314,4.091886876267381e-05,1.0,0.573344886302948,0.9222265829408686
315,4.064109089085832e-05,1.0,0.5735882520675659,0.9222265829408686
316,4.0375020034844056e-05,1.0,0.5738321542739868,0.9222265829408686
317,4.0119597542798147e-05,1.0,0.574070155620575,0.9222265829408686
318,3.985353032476269e-05,1.0,0.5743045210838318,0.9222265829408686
319,3.9592781831743196e-05,1.0,0.5745392441749573,0.9222265829408686
320,3.933735206373967e-05,1.0,0.5747737884521484,0.9222265829408686
321,3.907873178832233e-05,1.0,0.5750096440315247,0.9222265829408686
322,3.882118107867427e-05,1.0,0.5752493739128113,0.9222265829408686
323,3.8572139601456e-05,1.0,0.575484573841095,0.9222265829408686
324,3.832842412521131e-05,1.0,0.5757197141647339,0.9222265829408686
325,3.807725079241209e-05,1.0,0.5759549736976624,0.9222265829408686
326,3.783353167818859e-05,1.0,0.576187789440155,0.9222265829408686
327,3.758874299819581e-05,1.0,0.5764222145080566,0.9222265829408686
328,3.7346089811762795e-05,1.0,0.5766615867614746,0.9222265829408686
329,3.7113008147571236e-05,1.0,0.576903223991394,0.9222265829408686
330,3.686716081574559e-05,1.0,0.5771440267562866,0.9222265829408686
331,3.663727693492547e-05,1.0,0.577379047870636,0.9222265829408686
332,3.640313298092224e-05,1.0,0.5776118636131287,0.9222265829408686
333,3.6181765608489513e-05,1.0,0.5778455138206482,0.9222265829408686
334,3.5945493436884135e-05,1.0,0.5780760049819946,0.9222265829408686
335,3.572092828107998e-05,1.0,0.5783076286315918,0.9222265829408686
336,3.549530083546415e-05,1.0,0.578540027141571,0.9222265829408686
337,3.527073567965999e-05,1.0,0.578770101070404,0.9222265829408686
338,3.505149288685061e-05,1.0,0.5789987444877625,0.9222265829408686
339,3.483118416625075e-05,1.0,0.5792205929756165,0.9222265829408686
340,3.461620144662447e-05,1.0,0.5794383883476257,0.9222265829408686
341,3.439589272602461e-05,1.0,0.5796645879745483,0.9222265829408686
342,3.417984044062905e-05,1.0,0.5798892378807068,0.9222265829408686
343,3.396698593860492e-05,1.0,0.5801114439964294,0.9222265829408686
344,3.37615747412201e-05,1.0,0.5803395509719849,0.9222265829408686
345,3.355723310960457e-05,1.0,0.5805696249008179,0.9222265829408686
346,3.334650318720378e-05,1.0,0.5807941555976868,0.9222265829408686
347,3.3147480280604213e-05,1.0,0.5810136198997498,0.9222265829408686
348,3.2938878575805575e-05,1.0,0.5812321305274963,0.9222265829408686
349,3.273985566920601e-05,1.0,0.5814477801322937,0.9222265829408686
350,3.254189869039692e-05,1.0,0.5816673040390015,0.9222265829408686
351,3.233435927540995e-05,1.0,0.5818846821784973,0.9222265829408686
352,3.213959280401468e-05,1.0,0.5821036696434021,0.9222265829408686
353,3.194482997059822e-05,1.0,0.5823265910148621,0.9222265829408686
354,3.1745807063998654e-05,1.0,0.5825480818748474,0.9222265829408686
355,3.1554231100017205e-05,1.0,0.5827723741531372,0.9222265829408686
356,3.136159648420289e-05,1.0,0.5829979181289673,0.9222265829408686
357,3.117960295639932e-05,1.0,0.5832192301750183,0.9222265829408686
358,3.0996543500805274e-05,1.0,0.5834399461746216,0.9222265829408686
359,3.0799648811807856e-05,1.0,0.5836566686630249,0.9222265829408686
360,3.061339521082118e-05,1.0,0.5838675498962402,0.9222265829408686
361,3.0432465791818686e-05,1.0,0.5840848684310913,0.9222265829408686
362,3.024727811862249e-05,1.0,0.5843020081520081,0.9222265829408686
363,3.0074863389017992e-05,1.0,0.5845192670822144,0.9222265829408686
364,2.9888609788031317e-05,1.0,0.5847371220588684,0.9222265829408686
365,2.9711934985243715e-05,1.0,0.584955632686615,0.9222265829408686
366,2.954165029223077e-05,1.0,0.5851736068725586,0.9222265829408686
367,2.9368165996856987e-05,1.0,0.5853907465934753,0.9222265829408686
368,2.9197881303844042e-05,1.0,0.585599958896637,0.9222265829408686
369,2.9013754101470113e-05,1.0,0.5858071446418762,0.9222265829408686
370,2.8847725843661465e-05,1.0,0.5860138535499573,0.9222265829408686
371,2.8675309295067564e-05,1.0,0.5862168073654175,0.9222265829408686
372,2.8510343327070586e-05,1.0,0.5864273309707642,0.9222265829408686
373,2.8344309612293728e-05,1.0,0.5866398215293884,0.9222265829408686
374,2.817508539010305e-05,1.0,0.5868485569953918,0.9222265829408686
375,2.8006925276713446e-05,1.0,0.5870586633682251,0.9222265829408686
376,2.7848345780512318e-05,1.0,0.5872679352760315,0.9222265829408686
377,2.7683377993525937e-05,1.0,0.5874751210212708,0.9222265829408686
378,2.7517347916727886e-05,1.0,0.5876876711845398,0.9222265829408686
379,2.7361957108951174e-05,1.0,0.5879054665565491,0.9222265829408686
380,2.7201249395147897e-05,1.0,0.5881177186965942,0.9222265829408686
381,2.7043730369769037e-05,1.0,0.5883336067199707,0.9222265829408686
382,2.6885149054578505e-05,1.0,0.5885519981384277,0.9222265829408686
383,2.6729760065791197e-05,1.0,0.5887622833251953,0.9222265829408686
384,2.6576499294606037e-05,1.0,0.5889714360237122,0.9222265829408686
385,2.6417916160426103e-05,1.0,0.5891843438148499,0.9222265829408686
386,2.626359673740808e-05,1.0,0.5893974304199219,0.9222265829408686
387,2.612204298202414e-05,1.0,0.5896112322807312,0.9222265829408686
388,2.5966653993236832e-05,1.0,0.5898191332817078,0.9222265829408686
389,2.581764965725597e-05,1.0,0.5900216698646545,0.9222265829408686
390,2.5671839466667734e-05,1.0,0.5902262926101685,0.9222265829408686
391,2.5529223421472125e-05,1.0,0.5904392600059509,0.9222265829408686
392,2.5382349122082815e-05,1.0,0.5906468033790588,0.9222265829408686
393,2.523015245969873e-05,1.0,0.5908451676368713,0.9222265829408686
394,2.509498517611064e-05,1.0,0.591044545173645,0.9222265829408686
395,2.495449734851718e-05,1.0,0.591242790222168,0.9222265829408686
396,2.4814007701934315e-05,1.0,0.5914357304573059,0.9222265829408686
397,2.4672453946550377e-05,1.0,0.5916266441345215,0.9222265829408686
398,2.452983426337596e-05,1.0,0.5918207168579102,0.9222265829408686
399,2.4396797016379423e-05,1.0,0.5920143127441406,0.9222265829408686
400,2.4252050934592262e-05,1.0,0.5922034978866577,0.9222265829408686
401,2.412433059362229e-05,1.0,0.5923989415168762,0.9222265829408686
402,2.3989165129023604e-05,1.0,0.5926029086112976,0.9222265829408686
403,2.385932020843029e-05,1.0,0.5928030014038086,0.9222265829408686
404,2.3725215214653872e-05,1.0,0.5929990410804749,0.9222265829408686
405,2.3590049750055186e-05,1.0,0.5931915044784546,0.9222265829408686
406,2.3460199372493662e-05,1.0,0.5933828949928284,0.9222265829408686
407,2.3330354451900348e-05,1.0,0.5935798287391663,0.9222265829408686
408,2.3203701857710257e-05,1.0,0.5937820672988892,0.9222265829408686
409,2.307172690052539e-05,1.0,0.5939874053001404,0.9222265829408686
410,2.2945072487345897e-05,1.0,0.5941958427429199,0.9222265829408686
411,2.2815229385741986e-05,1.0,0.5943976044654846,0.9222265829408686
412,2.2692829588777386e-05,1.0,0.5945971608161926,0.9222265829408686
413,2.257681990158744e-05,1.0,0.5947979688644409,0.9222265829408686
414,2.2448040908784606e-05,1.0,0.5949952006340027,0.9222265829408686
415,2.2322448785416782e-05,1.0,0.5951990485191345,0.9222265829408686
416,2.2196860300027765e-05,1.0,0.5953997373580933,0.9222265829408686
417,2.2070207705837674e-05,1.0,0.5955963134765625,0.9222265829408686
418,2.1953132090857252e-05,1.0,0.5957940816879272,0.9222265829408686
419,2.1834992367075756e-05,1.0,0.5959927439689636,0.9222265829408686
420,2.1713660316891037e-05,1.0,0.5961958765983582,0.9222265829408686
421,2.1599777028313838e-05,1.0,0.5963975191116333,0.9222265829408686
422,2.1484831449924968e-05,1.0,0.596601128578186,0.9222265829408686
423,2.1364563508541323e-05,1.0,0.5968104600906372,0.9222265829408686
424,2.1248552002361976e-05,1.0,0.5970205068588257,0.9222265829408686
425,2.1139991076779552e-05,1.0,0.597226083278656,0.9222265829408686
426,2.102185317198746e-05,1.0,0.5974288582801819,0.9222265829408686
427,2.0903713448205963e-05,1.0,0.5976327657699585,0.9222265829408686
428,2.079302430502139e-05,1.0,0.5978379249572754,0.9222265829408686
429,2.0682333342847414e-05,1.0,0.5980401635169983,0.9222265829408686
430,2.0563131329254247e-05,1.0,0.5982430577278137,0.9222265829408686
431,2.0452442186069675e-05,1.0,0.5984495282173157,0.9222265829408686
432,2.0341753042885102e-05,1.0,0.5986471772193909,0.9222265829408686
433,2.023319211730268e-05,1.0,0.5988403558731079,0.9222265829408686
434,2.0134209989919327e-05,1.0,0.599030613899231,0.9222265829408686
435,2.001819848373998e-05,1.0,0.59921795129776,0.9222265829408686
436,1.9918152247555554e-05,1.0,0.5994119048118591,0.9222265829408686
437,1.980959132197313e-05,1.0,0.5996094346046448,0.9222265829408686
438,1.9702096324181184e-05,1.0,0.5998089909553528,0.9222265829408686
439,1.959566361620091e-05,1.0,0.6000070571899414,0.9222265829408686
440,1.9495617380016483e-05,1.0,0.6002055406570435,0.9222265829408686
441,1.9390248780837283e-05,1.0,0.6004026532173157,0.9222265829408686
442,1.928700839926023e-05,1.0,0.6005968451499939,0.9222265829408686
443,1.918802627187688e-05,1.0,0.6007910966873169,0.9222265829408686
444,1.9091172362095676e-05,1.0,0.6009905934333801,0.9222265829408686
445,1.898367736430373e-05,1.0,0.601188600063324,0.9222265829408686
446,1.888256701931823e-05,1.0,0.6013842225074768,0.9222265829408686
447,1.8791035472531803e-05,1.0,0.6015833616256714,0.9222265829408686
448,1.8683538655750453e-05,1.0,0.6017845273017883,0.9222265829408686
449,1.8593069398775697e-05,1.0,0.6019797921180725,0.9222265829408686
450,1.849302316259127e-05,1.0,0.6021699905395508,0.9222265829408686
451,1.8395105144008994e-05,1.0,0.6023586988449097,0.9222265829408686
452,1.8300381270819344e-05,1.0,0.6025433540344238,0.9222265829408686
453,1.8206719687441364e-05,1.0,0.6027317047119141,0.9222265829408686
454,1.810560752346646e-05,1.0,0.6029289960861206,0.9222265829408686
455,1.801620419428218e-05,1.0,0.6031306385993958,0.9222265829408686
456,1.792360853869468e-05,1.0,0.6033295392990112,0.9222265829408686
457,1.7828886484494433e-05,1.0,0.6035212278366089,0.9222265829408686
458,1.7736287190928124e-05,1.0,0.6037195324897766,0.9222265829408686
459,1.764688568073325e-05,1.0,0.6039145588874817,0.9222265829408686
460,1.7556416423758492e-05,1.0,0.6041074991226196,0.9222265829408686
461,1.7460628441767767e-05,1.0,0.6043049097061157,0.9222265829408686
462,1.7374415619997308e-05,1.0,0.6045051217079163,0.9222265829408686
463,1.7281819964409806e-05,1.0,0.6047057509422302,0.9222265829408686
464,1.7191352526424453e-05,1.0,0.6049069762229919,0.9222265829408686
465,1.7106207451433875e-05,1.0,0.6051050424575806,0.9222265829408686
466,1.7022122847265564e-05,1.0,0.6053045988082886,0.9222265829408686
467,1.6936977772274986e-05,1.0,0.6055037379264832,0.9222265829408686
468,1.6847574443090707e-05,1.0,0.60569828748703,0.9222265829408686
469,1.6766685803304426e-05,1.0,0.6058921217918396,0.9222265829408686
470,1.6681538909324445e-05,1.0,0.6060852408409119,0.9222265829408686
471,1.6590007362538017e-05,1.0,0.6062718033790588,0.9222265829408686
472,1.6510181012563407e-05,1.0,0.606458306312561,0.9222265829408686
473,1.6428228263976052e-05,1.0,0.6066403985023499,0.9222265829408686
474,1.6343083188985474e-05,1.0,0.6068315505981445,0.9222265829408686
475,1.626006451260764e-05,1.0,0.6070274114608765,0.9222265829408686
476,1.616746885702014e-05,1.0,0.6072139143943787,0.9222265829408686
477,1.608977072464768e-05,1.0,0.6073991060256958,0.9222265829408686
478,1.6012076230254024e-05,1.0,0.607585072517395,0.9222265829408686
479,1.5926929336274043e-05,1.0,0.6077668070793152,0.9222265829408686
480,1.5847104805288836e-05,1.0,0.6079502701759338,0.9222265829408686
481,1.5770472600706853e-05,1.0,0.6081348061561584,0.9222265829408686
482,1.5691710359533317e-05,1.0,0.6083223223686218,0.9222265829408686
483,1.561295175633859e-05,1.0,0.6085154414176941,0.9222265829408686
484,1.5529933079960756e-05,1.0,0.6087045073509216,0.9222265829408686
485,1.545755731058307e-05,1.0,0.608892023563385,0.9222265829408686
486,1.5379862816189416e-05,1.0,0.6090770959854126,0.9222265829408686
487,1.5304294720408507e-05,1.0,0.6092532873153687,0.9222265829408686
488,1.522234106232645e-05,1.0,0.6094285249710083,0.9222265829408686
489,1.514890118414769e-05,1.0,0.6096121072769165,0.9222265829408686
490,1.506801345385611e-05,1.0,0.6097952127456665,0.9222265829408686
491,1.4983931578171905e-05,1.0,0.6099759340286255,0.9222265829408686
492,1.4924327842891216e-05,1.0,0.6101599931716919,0.9222265829408686
493,1.4849824765406083e-05,1.0,0.610349714756012,0.9222265829408686
494,1.4773193470318802e-05,1.0,0.6105462312698364,0.9222265829408686
495,1.4705075955134816e-05,1.0,0.6107373833656311,0.9222265829408686
496,1.4629507859353907e-05,1.0,0.6109238266944885,0.9222265829408686
497,1.4557133908965625e-05,1.0,0.6111043691635132,0.9222265829408686
498,1.448050079488894e-05,1.0,0.6112868189811707,0.9222265829408686
499,1.441131917090388e-05,1.0,0.6114746332168579,0.9222265829408686
500,1.4341071619128343e-05,1.0,0.6116552948951721,0.9222265829408686
501,1.4274020031734835e-05,1.0,0.611836314201355,0.9222265829408686
502,1.4203773389454e-05,1.0,0.6120237708091736,0.9222265829408686
503,1.4132463547866791e-05,1.0,0.6122086644172668,0.9222265829408686
504,1.406541014148388e-05,1.0,0.6123871803283691,0.9222265829408686
505,1.3987712918606121e-05,1.0,0.6125628352165222,0.9222265829408686
506,1.3921725440013688e-05,1.0,0.6127347946166992,0.9222265829408686
507,1.3850413779437076e-05,1.0,0.6129105687141418,0.9222265829408686
508,1.3781233064946719e-05,1.0,0.6130900979042053,0.9222265829408686
509,1.3708857295569032e-05,1.0,0.6132696866989136,0.9222265829408686
510,1.3646060324390419e-05,1.0,0.6134480834007263,0.9222265829408686
511,1.3580072845797986e-05,1.0,0.613624095916748,0.9222265829408686
512,1.3506632058124524e-05,1.0,0.6137992739677429,0.9222265829408686
513,1.344277279713424e-05,1.0,0.613977313041687,0.9222265829408686
514,1.337997764494503e-05,1.0,0.6141562461853027,0.9222265829408686
515,1.3317180673766416e-05,1.0,0.6143360733985901,0.9222265829408686
516,1.3253321412776131e-05,1.0,0.6145153045654297,0.9222265829408686
517,1.318626800639322e-05,1.0,0.6146977543830872,0.9222265829408686
518,1.3127729289408308e-05,1.0,0.6148819923400879,0.9222265829408686
519,1.3059611774224322e-05,1.0,0.6150640845298767,0.9222265829408686
520,1.3001072147744708e-05,1.0,0.6152521967887878,0.9222265829408686
521,1.2928699106851127e-05,1.0,0.615441620349884,0.9222265829408686
522,1.2875480933871586e-05,1.0,0.615630567073822,0.9222265829408686
523,1.2812685781682376e-05,1.0,0.6158181428909302,0.9222265829408686
524,1.2742440958390944e-05,1.0,0.6159999966621399,0.9222265829408686
525,1.26892218759167e-05,1.0,0.6161801218986511,0.9222265829408686
526,1.2621103451238014e-05,1.0,0.6163596510887146,0.9222265829408686
527,1.2561501534946728e-05,1.0,0.616542398929596,0.9222265829408686
528,1.2501898709160741e-05,1.0,0.6167216300964355,0.9222265829408686
529,1.2443359082681127e-05,1.0,0.616908073425293,0.9222265829408686
530,1.2384821275190916e-05,1.0,0.6170974373817444,0.9222265829408686
531,1.2327346667007077e-05,1.0,0.6172815561294556,0.9222265829408686
532,1.2263487406016793e-05,1.0,0.6174658536911011,0.9222265829408686
533,1.2207075997139327e-05,1.0,0.6176532506942749,0.9222265829408686
534,1.2150666407251265e-05,1.0,0.6178402900695801,0.9222265829408686
535,1.2086806236766279e-05,1.0,0.6180232167243958,0.9222265829408686
536,1.203146075567929e-05,1.0,0.6182041764259338,0.9222265829408686
537,1.1976115274592303e-05,1.0,0.6183856129646301,0.9222265829408686
538,1.1919704775209539e-05,1.0,0.6185683608055115,0.9222265829408686
539,1.1862231076520402e-05,1.0,0.6187490224838257,0.9222265829408686
540,1.1810077921836637e-05,1.0,0.6189322471618652,0.9222265829408686
541,1.1757924767152872e-05,1.0,0.6191125512123108,0.9222265829408686
542,1.1690871360769961e-05,1.0,0.6192938089370728,0.9222265829408686
543,1.1637654097285122e-05,1.0,0.6194764375686646,0.9222265829408686
544,1.158550276159076e-05,1.0,0.6196632981300354,0.9222265829408686
545,1.1531220479810145e-05,1.0,0.6198533773422241,0.9222265829408686
546,1.1469489436422009e-05,1.0,0.6200433373451233,0.9222265829408686
547,1.1416271263442468e-05,1.0,0.6202355623245239,0.9222265829408686
548,1.1368376362952404e-05,1.0,0.6204274892807007,0.9222265829408686
549,1.1315159099467564e-05,1.0,0.6206192970275879,0.9222265829408686
550,1.1256620382482652e-05,1.0,0.6208077073097229,0.9222265829408686
551,1.1210853699594736e-05,1.0,0.6209940910339355,0.9222265829408686
552,1.1157637345604599e-05,1.0,0.6211710572242737,0.9222265829408686
553,1.1102290955022909e-05,1.0,0.6213560700416565,0.9222265829408686
554,1.1052266927435994e-05,1.0,0.6215460896492004,0.9222265829408686
555,1.0993726391461678e-05,1.0,0.6217343211174011,0.9222265829408686
556,1.094051003747154e-05,1.0,0.6219230890274048,0.9222265829408686
557,1.0895807463384699e-05,1.0,0.6221178770065308,0.9222265829408686
558,1.0847913472389337e-05,1.0,0.6223043203353882,0.9222265829408686
559,1.079575940821087e-05,1.0,0.622484564781189,0.9222265829408686
560,1.0735092473623808e-05,1.0,0.6226645708084106,0.9222265829408686
561,1.0691454008338042e-05,1.0,0.6228452324867249,0.9222265829408686
562,1.0640364962455351e-05,1.0,0.623028576374054,0.9222265829408686
563,1.0588212717266288e-05,1.0,0.6232095956802368,0.9222265829408686
564,1.0538188689679373e-05,1.0,0.6233884692192078,0.9222265829408686
565,1.0491356988495681e-05,1.0,0.6235690116882324,0.9222265829408686
566,1.0444527106301393e-05,1.0,0.6237500309944153,0.9222265829408686
567,1.0395566278020851e-05,1.0,0.6239271759986877,0.9222265829408686
568,1.0344478141632862e-05,1.0,0.6240994334220886,0.9222265829408686
569,1.0295518222847022e-05,1.0,0.6242727637290955,0.9222265829408686
570,1.0249751539959107e-05,1.0,0.6244520545005798,0.9222265829408686
571,1.0202920748270117e-05,1.0,0.6246458888053894,0.9222265829408686
572,1.01528958111885e-05,1.0,0.6248331069946289,0.9222265829408686
573,1.0109258255397435e-05,1.0,0.6250149607658386,0.9222265829408686
574,1.006349157250952e-05,1.0,0.6251988410949707,0.9222265829408686
575,1.0013465725933202e-05,1.0,0.625381350517273,0.9222265829408686
576,9.973022315534763e-06,1.0,0.6255698204040527,0.9222265829408686
577,9.92725654214155e-06,1.0,0.6257511973381042,0.9222265829408686
578,9.88148804026423e-06,1.0,0.6259268522262573,0.9222265829408686
579,9.842107829172164e-06,1.0,0.6261040568351746,0.9222265829408686
580,9.793147910386324e-06,1.0,0.6262893080711365,0.9222265829408686
581,9.738867447595112e-06,1.0,0.6264625787734985,0.9222265829408686
582,9.694163964013569e-06,1.0,0.6266413927078247,0.9222265829408686
583,9.649461389926728e-06,1.0,0.6268383860588074,0.9222265829408686
584,9.613273505237885e-06,1.0,0.6270356178283691,0.9222265829408686
585,9.56963594944682e-06,1.0,0.6272194981575012,0.9222265829408686
586,9.515352758171503e-06,1.0,0.6273938417434692,0.9222265829408686
587,9.478100764681585e-06,1.0,0.6275693774223328,0.9222265829408686
588,9.439784662390593e-06,1.0,0.6277498602867126,0.9222265829408686
589,9.396147106599528e-06,1.0,0.6279348134994507,0.9222265829408686
590,9.352508641313761e-06,1.0,0.6281124949455261,0.9222265829408686
591,9.308870176027995e-06,1.0,0.6283027529716492,0.9222265829408686
592,9.26523262023693e-06,1.0,0.6284965872764587,0.9222265829408686
593,9.221593245456461e-06,1.0,0.6286841630935669,0.9222265829408686
594,9.180084816762246e-06,1.0,0.6288632750511169,0.9222265829408686
595,9.139638677879702e-06,1.0,0.6290492415428162,0.9222265829408686
596,9.096001122088637e-06,1.0,0.6292327642440796,0.9222265829408686
597,9.055555892700795e-06,1.0,0.6294134855270386,0.9222265829408686
598,9.008725101011805e-06,1.0,0.62959223985672,0.9222265829408686
599,8.972537216322962e-06,1.0,0.6297692060470581,0.9222265829408686
600,8.926769623940345e-06,1.0,0.6299456357955933,0.9222265829408686
601,8.891646757547278e-06,1.0,0.6301187872886658,0.9222265829408686
602,8.84800738276681e-06,1.0,0.6302924156188965,0.9222265829408686
603,8.810756298771594e-06,1.0,0.6304612755775452,0.9222265829408686
604,8.771375178184826e-06,1.0,0.6306373476982117,0.9222265829408686
605,8.73412409418961e-06,1.0,0.6308228373527527,0.9222265829408686
606,8.693677045812365e-06,1.0,0.6309986114501953,0.9222265829408686
607,8.655360943521373e-06,1.0,0.6311691403388977,0.9222265829408686
608,8.613851605332457e-06,1.0,0.631347119808197,0.9222265829408686
609,8.577662811148912e-06,1.0,0.6315237879753113,0.9222265829408686
610,8.537218491255771e-06,1.0,0.6316942572593689,0.9222265829408686
611,8.495708243572153e-06,1.0,0.6318522691726685,0.9222265829408686
612,8.459521268378012e-06,1.0,0.6320198178291321,0.9222265829408686
613,8.415882803092245e-06,1.0,0.6321985125541687,0.9222265829408686
614,8.385016371903475e-06,1.0,0.6323779225349426,0.9222265829408686
615,8.343507033714559e-06,1.0,0.6325529217720032,0.9222265829408686
616,8.307319149025716e-06,1.0,0.6327323317527771,0.9222265829408686
617,8.267938028438948e-06,1.0,0.6329021453857422,0.9222265829408686
618,8.233879270846955e-06,1.0,0.6330714225769043,0.9222265829408686
619,8.193434041459113e-06,1.0,0.6332497596740723,0.9222265829408686
620,8.154052920872346e-06,1.0,0.6334336996078491,0.9222265829408686
621,8.121057362586726e-06,1.0,0.6336106657981873,0.9222265829408686
622,8.08167715149466e-06,1.0,0.6337798237800598,0.9222265829408686
623,8.045489266805816e-06,1.0,0.6339550614356995,0.9222265829408686
624,8.015687853912823e-06,1.0,0.6341325044631958,0.9222265829408686
625,7.978435860422906e-06,1.0,0.6343005895614624,0.9222265829408686
626,7.940118848637212e-06,1.0,0.6344642043113708,0.9222265829408686
627,7.900737728050444e-06,1.0,0.6346434354782104,0.9222265829408686
628,7.874128641560674e-06,1.0,0.6348210573196411,0.9222265829408686
629,7.839005775167607e-06,1.0,0.6349931955337524,0.9222265829408686
630,7.801752872182988e-06,1.0,0.6351677179336548,0.9222265829408686
631,7.767694114590995e-06,1.0,0.6353365182876587,0.9222265829408686
632,7.727247975708451e-06,1.0,0.6355088353157043,0.9222265829408686
633,7.693189218116459e-06,1.0,0.6356767416000366,0.9222265829408686
634,7.66658104112139e-06,1.0,0.635848343372345,0.9222265829408686
635,7.628264029335696e-06,1.0,0.6360236406326294,0.9222265829408686
636,7.59101249059313e-06,1.0,0.6361979246139526,0.9222265829408686
637,7.566531621705508e-06,1.0,0.6363648772239685,0.9222265829408686
638,7.528215519414516e-06,1.0,0.6365354657173157,0.9222265829408686
639,7.494155852327822e-06,1.0,0.6367048025131226,0.9222265829408686
640,7.466482202289626e-06,1.0,0.6368788480758667,0.9222265829408686
641,7.434552571794484e-06,1.0,0.6370624303817749,0.9222265829408686
642,7.400492904707789e-06,1.0,0.6372461915016174,0.9222265829408686
643,7.369626928266371e-06,1.0,0.6374287605285645,0.9222265829408686
644,7.334503152378602e-06,1.0,0.6376073956489563,0.9222265829408686
645,7.301508048840333e-06,1.0,0.6377835273742676,0.9222265829408686
646,7.26744929124834e-06,1.0,0.6379504203796387,0.9222265829408686
647,7.233390078908997e-06,1.0,0.6381183862686157,0.9222265829408686
648,7.2046523200697266e-06,1.0,0.638289749622345,0.9222265829408686
649,7.173785888880957e-06,1.0,0.638470470905304,0.9222265829408686
650,7.140791240090039e-06,1.0,0.6386571526527405,0.9222265829408686
651,7.109924808901269e-06,1.0,0.6388352513313293,0.9222265829408686
652,7.08118750480935e-06,1.0,0.639004111289978,0.9222265829408686
653,7.047128292470006e-06,1.0,0.6391701102256775,0.9222265829408686
654,7.017326424829662e-06,1.0,0.6393405795097351,0.9222265829408686
655,6.992846010689391e-06,1.0,0.6395112872123718,0.9222265829408686
656,6.961980943742674e-06,1.0,0.6396843194961548,0.9222265829408686
657,6.926857167854905e-06,1.0,0.6398624181747437,0.9222265829408686
658,6.895990281918785e-06,1.0,0.640035092830658,0.9222265829408686
659,6.857673270133091e-06,1.0,0.6401938199996948,0.9222265829408686
660,6.8353224378370214e-06,1.0,0.6403579711914062,0.9222265829408686
661,6.800198661949253e-06,1.0,0.640521228313446,0.9222265829408686
662,6.774654139007907e-06,1.0,0.6406851410865784,0.9222265829408686
663,6.736337127222214e-06,1.0,0.6408563852310181,0.9222265829408686
664,6.718244094372494e-06,1.0,0.6410301923751831,0.9222265829408686
665,6.6841844272858e-06,1.0,0.6412062048912048,0.9222265829408686
666,6.658639904344454e-06,1.0,0.6413781046867371,0.9222265829408686
667,6.634159490204183e-06,1.0,0.6415507197380066,0.9222265829408686
668,6.607550858461764e-06,1.0,0.6417213082313538,0.9222265829408686
669,6.569234301423421e-06,1.0,0.6418918371200562,0.9222265829408686
670,6.543689778482076e-06,1.0,0.642073929309845,0.9222265829408686
671,6.5181452555407304e-06,1.0,0.6422481536865234,0.9222265829408686
672,6.483021479652962e-06,1.0,0.6424141526222229,0.9222265829408686
673,6.458541520260042e-06,1.0,0.642574667930603,0.9222265829408686
674,6.426610525522847e-06,1.0,0.6427454948425293,0.9222265829408686
675,6.395744549081428e-06,1.0,0.642918586730957,0.9222265829408686
676,6.375521934387507e-06,1.0,0.6430860161781311,0.9222265829408686
677,6.3457200667471625e-06,1.0,0.6432446241378784,0.9222265829408686
678,6.323368324956391e-06,1.0,0.6434157490730286,0.9222265829408686
679,6.290374130912824e-06,1.0,0.6435925364494324,0.9222265829408686
680,6.259507244976703e-06,1.0,0.6437627673149109,0.9222265829408686
681,6.2414133026322816e-06,1.0,0.6439283490180969,0.9222265829408686
682,6.210547326190863e-06,1.0,0.6440940499305725,0.9222265829408686
683,6.182874585647369e-06,1.0,0.6442561745643616,0.9222265829408686
684,6.160522843856597e-06,1.0,0.6444262266159058,0.9222265829408686
685,6.1328496485657524e-06,1.0,0.6446014046669006,0.9222265829408686
686,6.1041114349791314e-06,1.0,0.6447728872299194,0.9222265829408686
687,6.073245913285064e-06,1.0,0.6449441909790039,0.9222265829408686
688,6.046636826795293e-06,1.0,0.6451126337051392,0.9222265829408686
689,6.025349193805596e-06,1.0,0.6452770829200745,0.9222265829408686
690,5.993418199068401e-06,1.0,0.6454440951347351,0.9222265829408686
691,5.968938694422832e-06,1.0,0.6456193327903748,0.9222265829408686
692,5.948716079728911e-06,1.0,0.6457890272140503,0.9222265829408686
693,5.921042884438066e-06,1.0,0.6459574699401855,0.9222265829408686
694,5.900820269744145e-06,1.0,0.6461185216903687,0.9222265829408686
695,5.869954293302726e-06,1.0,0.6462797522544861,0.9222265829408686
696,5.84440931561403e-06,1.0,0.6464453935623169,0.9222265829408686
697,5.816736120323185e-06,1.0,0.6466250419616699,0.9222265829408686
698,5.785869689134415e-06,1.0,0.6468013525009155,0.9222265829408686
699,5.768839855591068e-06,1.0,0.6469730734825134,0.9222265829408686
700,5.743295787397074e-06,1.0,0.647131085395813,0.9222265829408686
701,5.717750809708377e-06,1.0,0.6472878456115723,0.9222265829408686
702,5.692207196261734e-06,1.0,0.647462010383606,0.9222265829408686
703,5.6666622185730375e-06,1.0,0.6476275324821472,0.9222265829408686
704,5.6421818044327665e-06,1.0,0.647786557674408,0.9222265829408686
705,5.62089462619042e-06,1.0,0.647944450378418,0.9222265829408686
706,5.598543339147e-06,1.0,0.6481159329414368,0.9222265829408686
707,5.575127488555154e-06,1.0,0.648289144039154,0.9222265829408686
708,5.5538403103128076e-06,1.0,0.6484528183937073,0.9222265829408686
709,5.5251025514735375e-06,1.0,0.6486147046089172,0.9222265829408686
710,5.50381491848384e-06,1.0,0.6487818360328674,0.9222265829408686
711,5.474013505590847e-06,1.0,0.6489495635032654,0.9222265829408686
712,5.453791345644277e-06,1.0,0.6491042971611023,0.9222265829408686
713,5.434632385004079e-06,1.0,0.6492612957954407,0.9222265829408686
714,5.405894626164809e-06,1.0,0.6494321227073669,0.9222265829408686
715,5.386736575019313e-06,1.0,0.6496071815490723,0.9222265829408686
716,5.363320269680116e-06,1.0,0.6497907042503357,0.9222265829408686
717,5.339905328582972e-06,1.0,0.6499643921852112,0.9222265829408686
718,5.3196822591417e-06,1.0,0.6501265168190002,0.9222265829408686
719,5.298395080899354e-06,1.0,0.6502818465232849,0.9222265829408686
720,5.2675286497105844e-06,1.0,0.6504353284835815,0.9222265829408686
721,5.246241471468238e-06,1.0,0.650598406791687,0.9222265829408686
722,5.230276201473316e-06,1.0,0.6507779359817505,0.9222265829408686
723,5.20898902323097e-06,1.0,0.650956928730011,0.9222265829408686
724,5.1877022997359745e-06,1.0,0.651128351688385,0.9222265829408686
725,5.157899977348279e-06,1.0,0.6513004302978516,0.9222265829408686
726,5.140870598552283e-06,1.0,0.6514827609062195,0.9222265829408686
727,5.113196948514087e-06,1.0,0.6516590714454651,0.9222265829408686
728,5.095102551422315e-06,1.0,0.6518369317054749,0.9222265829408686
729,5.077009063825244e-06,1.0,0.6520166397094727,0.9222265829408686
730,5.052529104432324e-06,1.0,0.6521989107131958,0.9222265829408686
731,5.031241926189978e-06,1.0,0.6523870825767517,0.9222265829408686
732,5.008890184399206e-06,1.0,0.6525669097900391,0.9222265829408686
733,4.9907966968021356e-06,1.0,0.6527531743049622,0.9222265829408686
734,4.972702299710363e-06,1.0,0.6529379487037659,0.9222265829408686
735,4.951415121468017e-06,1.0,0.6531229019165039,0.9222265829408686
736,4.931192052026745e-06,1.0,0.6533054709434509,0.9222265829408686
737,4.909904419037048e-06,1.0,0.653477132320404,0.9222265829408686
738,4.887553131993627e-06,1.0,0.6536335349082947,0.9222265829408686
739,4.867330972047057e-06,1.0,0.6538044810295105,0.9222265829408686
740,4.8449792302562855e-06,1.0,0.6539960503578186,0.9222265829408686
741,4.826885287911864e-06,1.0,0.6541946530342102,0.9222265829408686
742,4.806662673217943e-06,1.0,0.6543854475021362,0.9222265829408686
743,4.783246822626097e-06,1.0,0.654565691947937,0.9222265829408686
744,4.765152425534325e-06,1.0,0.6547583937644958,0.9222265829408686
745,4.741736574942479e-06,1.0,0.6549478769302368,0.9222265829408686
746,4.722577614302281e-06,1.0,0.6551424860954285,0.9222265829408686
747,4.70661279905471e-06,1.0,0.6553177237510681,0.9222265829408686
748,4.68426151201129e-06,1.0,0.6554871797561646,0.9222265829408686
749,4.665103006118443e-06,1.0,0.655676543712616,0.9222265829408686
750,4.6470086090266705e-06,1.0,0.6558725237846375,0.9222265829408686
751,4.631042884284398e-06,1.0,0.6560660004615784,0.9222265829408686
752,4.6065629248914775e-06,1.0,0.6562485694885254,0.9222265829408686
753,4.588469437294407e-06,1.0,0.6564190983772278,0.9222265829408686
754,4.57143960375106e-06,1.0,0.6565973162651062,0.9222265829408686
755,4.548023298411863e-06,1.0,0.6567831039428711,0.9222265829408686
756,4.530993919615867e-06,1.0,0.6569624543190002,0.9222265829408686
757,4.510770850174595e-06,1.0,0.6571405529975891,0.9222265829408686
758,4.493741471378598e-06,1.0,0.657313883304596,0.9222265829408686
759,4.466067821340403e-06,1.0,0.6575087308883667,0.9222265829408686
760,4.451166660146555e-06,1.0,0.6577146649360657,0.9222265829408686
761,4.434136826603208e-06,1.0,0.6579171419143677,0.9222265829408686
762,4.419236120156711e-06,1.0,0.6581024527549744,0.9222265829408686
763,4.402206286613364e-06,1.0,0.6582908034324646,0.9222265829408686
764,4.379854999569943e-06,1.0,0.6584898233413696,0.9222265829408686
765,4.367082965472946e-06,1.0,0.6586903929710388,0.9222265829408686
766,4.347924004832748e-06,1.0,0.6588982939720154,0.9222265829408686
767,4.331959189585177e-06,1.0,0.6590916514396667,0.9222265829408686
768,4.305350103095407e-06,1.0,0.6592658162117004,0.9222265829408686
769,4.295770850148983e-06,1.0,0.6594321131706238,0.9222265829408686
770,4.274483671906637e-06,1.0,0.659601628780365,0.9222265829408686
771,4.256389274814865e-06,1.0,0.659768283367157,0.9222265829408686
772,4.238295332470443e-06,1.0,0.6599436402320862,0.9222265829408686
773,4.220201390126022e-06,1.0,0.6601306200027466,0.9222265829408686
774,4.2042361201311e-06,1.0,0.6603227257728577,0.9222265829408686
775,4.189334958937252e-06,1.0,0.660500168800354,0.9222265829408686
776,4.170176453044405e-06,1.0,0.6606744527816772,0.9222265829408686
777,4.154211183049483e-06,1.0,0.6608551740646362,0.9222265829408686
778,4.137181349506136e-06,1.0,0.6610313057899475,0.9222265829408686
779,4.121216079511214e-06,1.0,0.6612242460250854,0.9222265829408686
780,4.104186245967867e-06,1.0,0.6614202260971069,0.9222265829408686
781,4.081834504177095e-06,1.0,0.6616073846817017,0.9222265829408686
782,4.067997906531673e-06,1.0,0.6617707014083862,0.9222265829408686
783,4.044581601192476e-06,1.0,0.6619453430175781,0.9222265829408686
784,4.033938694192329e-06,1.0,0.662147045135498,0.9222265829408686
785,4.015844297100557e-06,1.0,0.6623433232307434,0.9222265829408686
786,4.00094359065406e-06,1.0,0.6625398397445679,0.9222265829408686
787,3.988171101809712e-06,1.0,0.662735641002655,0.9222265829408686
788,3.965819360018941e-06,1.0,0.662925660610199,0.9222265829408686
789,3.951982762373518e-06,1.0,0.6631168127059937,0.9222265829408686
790,3.940274382330244e-06,1.0,0.6633057594299316,0.9222265829408686
791,3.922180439985823e-06,1.0,0.6634916067123413,0.9222265829408686
792,3.905150606442476e-06,1.0,0.6636684536933899,0.9222265829408686
793,3.885992100549629e-06,1.0,0.6638563275337219,0.9222265829408686
794,3.872155957651557e-06,1.0,0.6640477180480957,0.9222265829408686
795,3.8519328882102855e-06,1.0,0.6642202734947205,0.9222265829408686
796,3.8317098187690135e-06,1.0,0.66439288854599,0.9222265829408686
797,3.817873675870942e-06,1.0,0.6645907759666443,0.9222265829408686
798,3.8040366234781686e-06,1.0,0.6647902727127075,0.9222265829408686
799,3.785942681133747e-06,1.0,0.6649671792984009,0.9222265829408686
800,3.773170192289399e-06,1.0,0.6651485562324524,0.9222265829408686
801,3.755076477318653e-06,1.0,0.6653406023979187,0.9222265829408686
802,3.7391109799500555e-06,1.0,0.6655166745185852,0.9222265829408686
803,3.729531727003632e-06,1.0,0.6657055616378784,0.9222265829408686
804,3.717823801707709e-06,1.0,0.6659000515937805,0.9222265829408686
805,3.6997296319896122e-06,1.0,0.6660937666893005,0.9222265829408686
806,3.6890858154947637e-06,1.0,0.6662931442260742,0.9222265829408686
807,3.6635412925534183e-06,1.0,0.6664900779724121,0.9222265829408686
808,3.649704694907996e-06,1.0,0.6666751503944397,0.9222265829408686
809,3.6401254419615725e-06,1.0,0.6668587327003479,0.9222265829408686
810,3.6177739275444765e-06,1.0,0.6670290231704712,0.9222265829408686
811,3.605001666073804e-06,1.0,0.6671951413154602,0.9222265829408686
812,3.592229404603131e-06,1.0,0.6673638224601746,0.9222265829408686
813,3.5762639072345337e-06,1.0,0.667543351650238,0.9222265829408686
814,3.5666846542881103e-06,1.0,0.6677297949790955,0.9222265829408686
815,3.5485904845700134e-06,1.0,0.6679143309593201,0.9222265829408686
816,3.5347536595509155e-06,1.0,0.6680928468704224,0.9222265829408686
817,3.520917061905493e-06,1.0,0.6682738065719604,0.9222265829408686
818,3.5060163554589963e-06,1.0,0.6684640645980835,0.9222265829408686
819,3.4953725389641477e-06,1.0,0.6686526536941528,0.9222265829408686
820,3.476214033071301e-06,1.0,0.6688211560249329,0.9222265829408686
821,3.4613128718774533e-06,1.0,0.6689944863319397,0.9222265829408686
822,3.4517338463047054e-06,1.0,0.669182300567627,0.9222265829408686
823,3.4368326851108577e-06,1.0,0.6693528294563293,0.9222265829408686
824,3.4251245324412594e-06,1.0,0.6695099472999573,0.9222265829408686
825,3.405966253922088e-06,1.0,0.6696882843971252,0.9222265829408686
826,3.3963867736019893e-06,1.0,0.6698741912841797,0.9222265829408686
827,3.3814860671554925e-06,1.0,0.6700559258460999,0.9222265829408686
828,3.3644562336121453e-06,1.0,0.6702457666397095,0.9222265829408686
829,3.3516839721414726e-06,1.0,0.6704170107841492,0.9222265829408686
830,3.33784737449605e-06,1.0,0.6705772280693054,0.9222265829408686
831,3.3208177683263784e-06,1.0,0.6707575917243958,0.9222265829408686
832,3.316560196253704e-06,1.0,0.6709415316581726,0.9222265829408686
833,3.302723371234606e-06,1.0,0.6711295247077942,0.9222265829408686
834,3.2835648653417593e-06,1.0,0.671322762966156,0.9222265829408686
835,3.2761142847448355e-06,1.0,0.6715165376663208,0.9222265829408686
836,3.2633417959004873e-06,1.0,0.6717101335525513,0.9222265829408686
837,3.242054617658141e-06,1.0,0.6718913316726685,0.9222265829408686
838,3.2335397008864675e-06,1.0,0.6720554232597351,0.9222265829408686
839,3.225024784114794e-06,1.0,0.6722393035888672,0.9222265829408686
840,3.201608933522948e-06,1.0,0.6724198460578918,0.9222265829408686
841,3.1930940167512745e-06,1.0,0.6725839376449585,0.9222265829408686
842,3.1867077723291004e-06,1.0,0.6727520823478699,0.9222265829408686
843,3.1654203667130787e-06,1.0,0.6729254126548767,0.9222265829408686
844,3.1537128961645067e-06,1.0,0.6730890274047852,0.9222265829408686
845,3.145197979392833e-06,1.0,0.6732680201530457,0.9222265829408686
846,3.1260394734999863e-06,1.0,0.6734534502029419,0.9222265829408686
847,3.1207177926262375e-06,1.0,0.6736370325088501,0.9222265829408686
848,3.10475229525764e-06,1.0,0.6738271117210388,0.9222265829408686
849,3.089851361437468e-06,1.0,0.6740303635597229,0.9222265829408686
850,3.080271881117369e-06,1.0,0.6742135286331177,0.9222265829408686
851,3.068563955821446e-06,1.0,0.6744009256362915,0.9222265829408686
852,3.0589847028750228e-06,1.0,0.6746018528938293,0.9222265829408686
853,3.0398259696085006e-06,1.0,0.6747907400131226,0.9222265829408686
854,3.0334397251863265e-06,1.0,0.6749615669250488,0.9222265829408686
855,3.0217322546377545e-06,1.0,0.6751558184623718,0.9222265829408686
856,3.003637857545982e-06,1.0,0.6753566861152649,0.9222265829408686
857,2.992994268424809e-06,1.0,0.6755428314208984,0.9222265829408686
858,2.9812861157552106e-06,1.0,0.6757349371910095,0.9222265829408686
859,2.969578417832963e-06,1.0,0.6759306788444519,0.9222265829408686
860,2.957870265163365e-06,1.0,0.6761168241500854,0.9222265829408686
861,2.9461625672411174e-06,1.0,0.6762751340866089,0.9222265829408686
862,2.9397763228189433e-06,1.0,0.6764205098152161,0.9222265829408686
863,2.923810825450346e-06,1.0,0.6766034364700317,0.9222265829408686
864,2.9152959086786723e-06,1.0,0.6768102645874023,0.9222265829408686
865,2.903587756009074e-06,1.0,0.6769973635673523,0.9222265829408686
866,2.889750930989976e-06,1.0,0.6771655678749084,0.9222265829408686
867,2.876978896892979e-06,1.0,0.6773516535758972,0.9222265829408686
868,2.8673996439465554e-06,1.0,0.6775314211845398,0.9222265829408686
869,2.8578201636264566e-06,1.0,0.6777041554450989,0.9222265829408686
870,2.8482409106800333e-06,1.0,0.6778934597969055,0.9222265829408686
871,2.8301469683356117e-06,1.0,0.6780971884727478,0.9222265829408686
872,2.8237607239134377e-06,1.0,0.6782802939414978,0.9222265829408686
873,2.813116907418589e-06,1.0,0.6784693598747253,0.9222265829408686
874,2.792894292724668e-06,1.0,0.6786681413650513,0.9222265829408686
875,2.7822504762298195e-06,1.0,0.6788487434387207,0.9222265829408686
876,2.773735559458146e-06,1.0,0.6789974570274353,0.9222265829408686
877,2.7673497697833227e-06,1.0,0.6791524291038513,0.9222265829408686
878,2.7449980279925512e-06,1.0,0.6793445944786072,0.9222265829408686
879,2.7386120109440526e-06,1.0,0.6795486807823181,0.9222265829408686
880,2.7311614303471288e-06,1.0,0.6797652840614319,0.9222265829408686
881,2.7215821774007054e-06,1.0,0.6799644827842712,0.9222265829408686
882,2.7077453523816075e-06,1.0,0.6801251769065857,0.9222265829408686
883,2.7024234441341832e-06,1.0,0.6802667379379272,0.9222265829408686
884,2.6939085273625096e-06,1.0,0.6804371476173401,0.9222265829408686
885,2.6790075935423374e-06,1.0,0.6806158423423767,0.9222265829408686
886,2.6715570129454136e-06,1.0,0.6807733178138733,0.9222265829408686
887,2.6598488602758152e-06,1.0,0.6809520721435547,0.9222265829408686
888,2.6470765988051426e-06,1.0,0.6811460256576538,0.9222265829408686
889,2.6374975732323946e-06,1.0,0.6813496351242065,0.9222265829408686
890,2.6236607482132968e-06,1.0,0.6815293431282043,0.9222265829408686
891,2.616210167616373e-06,1.0,0.6817110180854797,0.9222265829408686
892,2.606631142043625e-06,1.0,0.6819005608558655,0.9222265829408686
893,2.598115997898276e-06,1.0,0.6820812821388245,0.9222265829408686
894,2.5853437364276033e-06,1.0,0.682266891002655,0.9222265829408686
895,2.5704425752337556e-06,1.0,0.682460367679596,0.9222265829408686
896,2.5640563308115816e-06,1.0,0.6826551556587219,0.9222265829408686
897,2.553412969064084e-06,1.0,0.6828358769416809,0.9222265829408686
898,2.544897824918735e-06,1.0,0.6830209493637085,0.9222265829408686
899,2.533189899622812e-06,1.0,0.6832107305526733,0.9222265829408686
900,2.5268038825743133e-06,1.0,0.6833915710449219,0.9222265829408686
901,2.514031393729965e-06,1.0,0.6835690140724182,0.9222265829408686
902,2.5065808131330414e-06,1.0,0.683777928352356,0.9222265829408686
903,2.492744215487619e-06,1.0,0.683989942073822,0.9222265829408686
904,2.486357971065445e-06,1.0,0.6841682195663452,0.9222265829408686
905,2.470392701070523e-06,1.0,0.6843253970146179,0.9222265829408686
906,2.456555876051425e-06,1.0,0.6845206022262573,0.9222265829408686
907,2.449105295454501e-06,1.0,0.6847296357154846,0.9222265829408686
908,2.4437836145807523e-06,1.0,0.684901773929596,0.9222265829408686
909,2.433140025459579e-06,1.0,0.6850616335868835,0.9222265829408686
910,2.4193032004404813e-06,1.0,0.6852511167526245,0.9222265829408686
911,2.4118526198435575e-06,1.0,0.6854372620582581,0.9222265829408686
912,2.408659611319308e-06,1.0,0.6855965852737427,0.9222265829408686
913,2.400144467173959e-06,1.0,0.6857708096504211,0.9222265829408686
914,2.3809859612811124e-06,1.0,0.6859809756278992,0.9222265829408686
915,2.3682134724367643e-06,1.0,0.6861920952796936,0.9222265829408686
916,2.362892018936691e-06,1.0,0.6863756775856018,0.9222265829408686
917,2.3586344468640164e-06,1.0,0.6865395903587341,0.9222265829408686
918,2.3426691768690944e-06,1.0,0.6867167353630066,0.9222265829408686
919,2.33841160479642e-06,1.0,0.6869252324104309,0.9222265829408686
920,2.330961024199496e-06,1.0,0.6871324181556702,0.9222265829408686
921,2.3213817712530727e-06,1.0,0.6872949004173279,0.9222265829408686
922,2.3096738459571498e-06,1.0,0.6874350309371948,0.9222265829408686
923,2.2979656932875514e-06,1.0,0.6875990033149719,0.9222265829408686
924,2.2915794488653773e-06,1.0,0.68780118227005,0.9222265829408686
925,2.2830645320937037e-06,1.0,0.6880091428756714,0.9222265829408686
926,2.273485506520956e-06,1.0,0.6881913542747498,0.9222265829408686
927,2.2564556729776086e-06,1.0,0.6883788108825684,0.9222265829408686
928,2.2511337647301843e-06,1.0,0.6885691285133362,0.9222265829408686
929,2.2447475203080103e-06,1.0,0.6887682676315308,0.9222265829408686
930,2.239425612060586e-06,1.0,0.688981831073761,0.9222265829408686
931,2.233039367638412e-06,1.0,0.6891888380050659,0.9222265829408686
932,2.222395778517239e-06,1.0,0.6894019246101379,0.9222265829408686
933,2.212816752944491e-06,1.0,0.6895956993103027,0.9222265829408686
934,2.2043018361728173e-06,1.0,0.6897616982460022,0.9222265829408686
935,2.191529347328469e-06,1.0,0.6899372935295105,0.9222265829408686
936,2.186207439081045e-06,1.0,0.6901343464851379,0.9222265829408686
937,2.1776927496830467e-06,1.0,0.6903272271156311,0.9222265829408686
938,2.169177832911373e-06,1.0,0.6904775500297546,0.9222265829408686
939,2.1585342437902e-06,1.0,0.690619945526123,0.9222265829408686
940,2.151083663193276e-06,1.0,0.6908049583435059,0.9222265829408686
941,2.1415041828731773e-06,1.0,0.690994918346405,0.9222265829408686
942,2.138311174348928e-06,1.0,0.6911975741386414,0.9222265829408686
943,2.12447434932983e-06,1.0,0.6913856863975525,0.9222265829408686
944,2.1148953237570822e-06,1.0,0.6915760040283203,0.9222265829408686
945,2.109573415509658e-06,1.0,0.6917680501937866,0.9222265829408686
946,2.0968011540389853e-06,1.0,0.6919807195663452,0.9222265829408686
947,2.092543809339986e-06,1.0,0.6921747922897339,0.9222265829408686
948,2.080835656670388e-06,1.0,0.6923310160636902,0.9222265829408686
949,2.0755137484229635e-06,1.0,0.6925094723701477,0.9222265829408686
950,2.06699883165129e-06,1.0,0.6927146315574646,0.9222265829408686
951,2.058484142253292e-06,1.0,0.6929157376289368,0.9222265829408686
952,2.048904661933193e-06,1.0,0.6930657029151917,0.9222265829408686
953,2.0457116534089437e-06,1.0,0.6932283639907837,0.9222265829408686
954,2.041454081336269e-06,1.0,0.6934260129928589,0.9222265829408686
955,2.031874828389846e-06,1.0,0.6936522126197815,0.9222265829408686
956,2.019102566919173e-06,1.0,0.6938509941101074,0.9222265829408686
957,2.0105876501474995e-06,1.0,0.6940047144889832,0.9222265829408686
958,2.001008397201076e-06,1.0,0.6941800117492676,0.9222265829408686
959,2.001008397201076e-06,1.0,0.6943863034248352,0.9222265829408686
960,1.9935578166041523e-06,1.0,0.6946183443069458,0.9222265829408686
961,1.97865688278398e-06,1.0,0.6948328018188477,0.9222265829408686
962,1.968013293662807e-06,1.0,0.6949959397315979,0.9222265829408686
963,1.9637557215901325e-06,1.0,0.6951557397842407,0.9222265829408686
964,1.9594983768911334e-06,1.0,0.6953390836715698,0.9222265829408686
965,1.955240804818459e-06,1.0,0.6955378651618958,0.9222265829408686
966,1.9509832327457843e-06,1.0,0.6957335472106934,0.9222265829408686
967,1.932889290401363e-06,1.0,0.6958720088005066,0.9222265829408686
968,1.929696054503438e-06,1.0,0.6960099935531616,0.9222265829408686
969,1.9265030459791888e-06,1.0,0.6962081789970398,0.9222265829408686
970,1.91692356565909e-06,1.0,0.6964390873908997,0.9222265829408686
971,1.9105375486105913e-06,1.0,0.6966583132743835,0.9222265829408686
972,1.8977650597662432e-06,1.0,0.6968582272529602,0.9222265829408686
973,1.890314592856157e-06,1.0,0.697020947933197,0.9222265829408686
974,1.8860571344703203e-06,1.0,0.6971834897994995,0.9222265829408686
975,1.8828640122592333e-06,1.0,0.6973735690116882,0.9222265829408686
976,1.8722203094512224e-06,1.0,0.6975728869438171,0.9222265829408686
977,1.8615766066432116e-06,1.0,0.6977916955947876,0.9222265829408686
978,1.8541260260462877e-06,1.0,0.6979880928993225,0.9222265829408686
979,1.8434823232382769e-06,1.0,0.6980944275856018,0.9222265829408686
980,1.83922486485244e-06,1.0,0.6981728672981262,0.9222265829408686
981,1.831774397942354e-06,1.0,0.6983219385147095,0.9222265829408686
982,1.8253882672070176e-06,1.0,0.6985704302787781,0.9222265829408686
983,1.8179379139837692e-06,1.0,0.6988236308097839,0.9222265829408686
984,1.8104873333868454e-06,1.0,0.6990073323249817,0.9222265829408686
985,1.8019724166151718e-06,1.0,0.699161171913147,0.9222265829408686
986,1.8009079667535843e-06,1.0,0.6993190050125122,0.9222265829408686
987,1.7891999277708237e-06,1.0,0.6995173096656799,0.9222265829408686
988,1.788135591596074e-06,1.0,0.6997343301773071,0.9222265829408686
989,1.773234544089064e-06,1.0,0.6999551653862,0.9222265829408686
990,1.7657839634921402e-06,1.0,0.7001417875289917,0.9222265829408686
991,1.7604621689315536e-06,1.0,0.7002774477005005,0.9222265829408686
992,1.7530115883346298e-06,1.0,0.7004100680351257,0.9222265829408686
993,1.7476896800872055e-06,1.0,0.7006134390830994,0.9222265829408686
994,1.742367885526619e-06,1.0,0.7008592486381531,0.9222265829408686
995,1.7349174186165328e-06,1.0,0.701056182384491,0.9222265829408686
996,1.7295955103691085e-06,1.0,0.7012362480163574,0.9222265829408686
997,1.727466838019609e-06,1.0,0.7014164924621582,0.9222265829408686
998,1.7189519212479354e-06,1.0,0.7015935778617859,0.9222265829408686
999,1.7104370044762618e-06,1.0,0.7017918229103088,0.9222265829408686
