,loss,recall,val_loss,val_recall
0,1.6552594900131226,0.51953125,0.9319815635681152,0.6564934425306771
1,1.1382111310958862,0.5219350961538461,0.7689351439476013,0.47739409723452286
2,0.7816984057426453,0.636532738095238,0.5551584362983704,0.49815532182553457
3,0.5613662600517273,0.6807291666666666,0.5964040756225586,0.49181247977790526
4,0.5641129016876221,0.681423611111111,0.5459313988685608,0.49556158134615585
5,0.5612403154373169,0.6223958333333334,0.45277854800224304,0.5918268094198947
6,0.4854627251625061,0.6848958333333334,0.42038872838020325,0.6670296281732456
7,0.46148473024368286,0.6848958333333334,0.4090665876865387,0.7063845650015868
8,0.4402081370353699,0.7338541666666666,0.40271279215812683,0.7082048959708539
9,0.4264730215072632,0.7317708333333333,0.40126556158065796,0.7000341782921574
10,0.41526511311531067,0.7630208333333333,0.4061422049999237,0.6789032259112052
11,0.4156331419944763,0.7319568452380952,0.4043526351451874,0.6704463060580087
12,0.4168567359447479,0.8020833333333333,0.40193527936935425,0.6741712970835316
13,0.39228081703186035,0.7864583333333333,0.39313751459121704,0.6931566040342642
14,0.38613778352737427,0.7651041666666666,0.3839588761329651,0.7248071368151161
15,0.38113221526145935,0.7911458333333332,0.3811693489551544,0.7331966865876445
16,0.3551062047481537,0.8541666666666666,0.38981983065605164,0.7126876817036394
17,0.3457651436328888,0.8385416666666666,0.4153454601764679,0.7236779576806176
18,0.43422892689704895,0.8031994047619047,0.4056634306907654,0.6543436468968387
19,0.426813542842865,0.7875744047619047,0.8363587260246277,0.46963944595593554
20,0.5630154609680176,0.7037844967532467,0.8873100280761719,0.49050538360378804
21,0.560853123664856,0.6734632554945055,0.39648109674453735,0.7362663095375864
22,0.36482083797454834,0.8616071428571429,0.37722980976104736,0.727242420699868
23,0.34836578369140625,0.8557549221611721,0.40023094415664673,0.7217903230536213
24,0.3773704767227173,0.7942708333333333,0.3893052339553833,0.6950382286153566
25,0.33405664563179016,0.8447802197802198,0.47887781262397766,0.614883724923619
26,0.39940160512924194,0.7762276785714286,0.39843514561653137,0.7206361137877102
27,0.4636991620063782,0.7265624999999999,0.4014357328414917,0.7042687144415871
28,0.3927195072174072,0.6949776785714286,0.40382200479507446,0.6950821981407092
29,0.34803417325019836,0.8470052083333334,0.3832845389842987,0.7279195538504054
30,0.3545759618282318,0.7759214743589743,0.37523433566093445,0.7417451293781088
31,0.33481645584106445,0.8470052083333334,0.37517812848091125,0.7228890224235974
32,0.3253849744796753,0.8473011363636364,0.3732181787490845,0.7309193244698569
33,0.31978684663772583,0.8629261363636364,0.38544705510139465,0.7244371123360492
34,0.34439608454704285,0.8441761363636363,0.3737752139568329,0.7301410714974551
35,0.32087481021881104,0.8160511363636364,0.380136638879776,0.7368674469738304
36,0.3125310242176056,0.8580729166666666,0.3767865002155304,0.7306629466868834
37,0.3067365884780884,0.86015625,0.3808930218219757,0.7222189330566994
38,0.31693190336227417,0.8233428030303029,0.3750858008861542,0.7336487709493034
39,0.3041497468948364,0.8268229166666666,0.37180155515670776,0.7362717316174769
40,0.2965717911720276,0.87890625,0.37667137384414673,0.7315435451073754
41,0.2910003364086151,0.8765625,0.37709158658981323,0.7284275835472649
42,0.2857534885406494,0.8765625,0.38997694849967957,0.7152628522974271
43,0.2941533327102661,0.8741319444444444,0.37540578842163086,0.7423982243131183
44,0.2893851399421692,0.8741319444444444,0.3932702839374542,0.7005513030114099
45,0.34224069118499756,0.7315848214285714,0.38313543796539307,0.7031094304631543
46,0.36255693435668945,0.6849959935897435,0.37900397181510925,0.7387602847310298
47,0.29107996821403503,0.83203125,0.39028850197792053,0.7401914973324554
48,0.49725261330604553,0.743954613095238,0.4356706738471985,0.7246347806055259
49,0.40743333101272583,0.7840401785714286,0.7348180413246155,0.4507069516378026
50,0.5112156867980957,0.6074218750000001,0.38585564494132996,0.7538000888000894
51,0.3356732726097107,0.8147321428571429,0.485232412815094,0.5580945256477173
52,0.4130721390247345,0.8257068452380952,0.43253859877586365,0.589586100955782
53,0.6524933576583862,0.5559027777777779,0.43329957127571106,0.7385157354793883
54,0.3996677100658417,0.732986111111111,0.3947187662124634,0.7165718412792886
55,0.3975623846054077,0.7819010416666666,0.38455596566200256,0.7044540634700215
56,0.4141841232776642,0.6571969696969697,0.3709890842437744,0.7337720789848454
57,0.3936249613761902,0.6986979166666666,0.37376776337623596,0.7130571920199584
58,0.36473116278648376,0.7591145833333333,0.3725961148738861,0.7110511995884342
59,0.3616185188293457,0.7591145833333333,0.3701322674751282,0.7059734906543422
60,0.3611380457878113,0.7611979166666666,0.36927154660224915,0.7065418348397076
61,0.35228705406188965,0.7768229166666666,0.37497609853744507,0.692669994997123
62,0.3480641841888428,0.7924479166666666,0.3724011778831482,0.7132234442074872
63,0.3503630757331848,0.7924479166666666,0.37039631605148315,0.7038206420254297
64,0.3316503167152405,0.8092013888888888,0.3676062524318695,0.7122200642147455
65,0.3218684196472168,0.8373263888888888,0.3629569709300995,0.7178602081527617
66,0.3177536725997925,0.8434244791666666,0.3579535186290741,0.7203921836634607
67,0.31335920095443726,0.8236979166666666,0.3641073703765869,0.7067041754541759
68,0.34407559037208557,0.7356770833333333,0.34209582209587097,0.7555772118937018
69,0.32479941844940186,0.7955729166666666,0.3585614860057831,0.7215758729056605
70,0.3105320334434509,0.8428819444444444,0.34792277216911316,0.7513846373287868
71,0.2994198501110077,0.8736979166666666,0.3541136682033539,0.7299700934408387
72,0.2930028736591339,0.8434244791666666,0.35111936926841736,0.7336279289071845
73,0.2962638735771179,0.8580729166666666,0.35205528140068054,0.7317273939614369
74,0.29285311698913574,0.8277994791666666,0.3553861081600189,0.7491195614865832
75,0.3620791733264923,0.7522786458333333,0.35065481066703796,0.7512148110951308
76,0.29390376806259155,0.8424479166666666,0.37443456053733826,0.7307155585746014
77,0.2899796664714813,0.8241319444444444,0.35909271240234375,0.7217770610988702
78,0.30742084980010986,0.7803819444444444,0.3527352809906006,0.7531402374221529
79,0.2848300039768219,0.8553819444444444,0.3573344647884369,0.7233677251629385
80,0.283336877822876,0.7955729166666666,0.3470280170440674,0.7474477792695884
81,0.2770076394081116,0.8565104166666666,0.34832844138145447,0.7425014578605009
82,0.2641162574291229,0.8393229166666666,0.3442222476005554,0.7521394184027169
83,0.2563851475715637,0.8585069444444444,0.3429322838783264,0.7616648619308198
84,0.2804257571697235,0.8553819444444444,0.3579505383968353,0.7571191269329572
85,0.2626112699508667,0.8434244791666666,0.3374819755554199,0.7499714105831131
86,0.31030404567718506,0.8705729166666666,0.353188693523407,0.7440286294674596
87,0.27411454916000366,0.8585069444444444,0.34058213233947754,0.7611960434167886
88,0.2653297483921051,0.8741319444444444,0.33887723088264465,0.7462981507263426
89,0.26190993189811707,0.8585069444444444,0.34074166417121887,0.734439850929213
90,0.2401745617389679,0.8538411458333333,0.34058380126953125,0.7522118882890164
91,0.2799791991710663,0.822048611111111,0.34571313858032227,0.7339506454931992
92,0.2593803405761719,0.8277994791666666,0.33572301268577576,0.7284508783178999
93,0.3693820536136627,0.795217803030303,0.37805527448654175,0.7173951019429747
94,0.336625337600708,0.8241319444444444,0.35747915506362915,0.7408607935602618
95,0.326398640871048,0.8069661458333333,0.357607364654541,0.7306427954433277
96,0.32249051332473755,0.8137152777777777,0.35719650983810425,0.7288944526710487
97,0.3111571669578552,0.8318058894230769,0.3529108464717865,0.7422205267152081
98,0.2988409698009491,0.8710069444444444,0.3601580560207367,0.714408120445355
99,0.2941179573535919,0.8553819444444444,0.3682588040828705,0.700610678722381
100,0.29746437072753906,0.8246744791666666,0.36252060532569885,0.7164071753699416
101,0.300832062959671,0.7856770833333333,0.34754323959350586,0.7505600029403225
102,0.29724588990211487,0.8194661458333332,0.3488335907459259,0.7506987289700061
103,0.2737150192260742,0.8356770833333332,0.352704793214798,0.749353817478818
104,0.2613493502140045,0.8694661458333333,0.3542017340660095,0.7428219647767522
105,0.25909313559532166,0.8585069444444444,0.3488127291202545,0.7581757697582171
106,0.27589377760887146,0.8549479166666666,0.3460127115249634,0.7477854793945224
107,0.2904303967952728,0.7851562499999999,0.3539605140686035,0.7423450564408015
108,0.2977437376976013,0.8162459935897435,0.3458270728588104,0.7486788039580596
109,0.2713930606842041,0.8272569444444444,0.3732471764087677,0.7521311534210472
110,0.38914263248443604,0.805478050595238,0.37995484471321106,0.733418809815087
111,0.36198097467422485,0.7739716880341879,0.35233020782470703,0.7478872186717939
112,0.429776132106781,0.736111111111111,0.3728882372379303,0.7418322974307019
113,0.34643077850341797,0.8480902777777777,0.3674675226211548,0.731556015399101
114,0.3360140323638916,0.8293402777777777,0.37412092089653015,0.7325515373121759
115,0.3439251780509949,0.7948050213675213,0.3587076961994171,0.7163727082610066
116,0.3218551278114319,0.82890625,0.3574185073375702,0.7265965314236595
117,0.3106815814971924,0.8416800213675213,0.35498151183128357,0.7385817787413536
118,0.29315656423568726,0.8449652777777777,0.3548637628555298,0.7315957304122201
119,0.286446213722229,0.8553819444444444,0.36419352889060974,0.741631051178924
120,0.3031653165817261,0.8372395833333333,0.3642990291118622,0.7138976537646755
121,0.28057441115379333,0.7803819444444444,0.35006183385849,0.7434646854327711
122,0.2767542600631714,0.8434244791666666,0.35020580887794495,0.7358041795674779
123,0.2996281087398529,0.8568709935897435,0.35343024134635925,0.7469093180263398
124,0.29028624296188354,0.8393229166666666,0.3709620237350464,0.7373691192574177
125,0.2823542058467865,0.8260550213675213,0.36718711256980896,0.7393013207241934
126,0.26494690775871277,0.87578125,0.36867696046829224,0.7364555110964689
127,0.2654624581336975,0.8715494791666666,0.36304202675819397,0.7166192155952797
128,0.27173322439193726,0.8590494791666666,0.35100045800209045,0.7354165820389227
129,0.27396273612976074,0.853298611111111,0.3507034182548523,0.7395805061762513
130,0.262686163187027,0.8746744791666666,0.3390982747077942,0.7458982546216594
131,0.2599751353263855,0.8590494791666666,0.3509480357170105,0.7352631952365999
132,0.24681557714939117,0.8590494791666666,0.35511741042137146,0.7350250493202625
133,0.24560679495334625,0.8559244791666666,0.351470023393631,0.7294431159856695
134,0.2423216998577118,0.8876953125,0.3534599244594574,0.7310524237385944
135,0.24130170047283173,0.8590494791666666,0.3543325960636139,0.7318885335507681
136,0.24715012311935425,0.8564453125,0.3529379665851593,0.7301273583587417
137,0.23249202966690063,0.8668619791666666,0.352035254240036,0.7396848374241995
138,0.22915995121002197,0.8727678571428571,0.3549831509590149,0.7260242909179083
139,0.22947271168231964,0.8923611111111112,0.3563927114009857,0.7262607295187086
140,0.22949576377868652,0.8571428571428571,0.34452447295188904,0.7416300130129923
141,0.24825651943683624,0.8892361111111111,0.3556552231311798,0.7331418724104898
142,0.2200036644935608,0.8727678571428571,0.35460221767425537,0.7379479312059103
143,0.21645472943782806,0.8929036458333334,0.34146395325660706,0.7352424584871399
144,0.2093406617641449,0.8727678571428571,0.34905529022216797,0.7355385429188627
145,0.22482547163963318,0.8564453125,0.3399474322795868,0.7359225063746345
146,0.19502970576286316,0.8772786458333334,0.34176984429359436,0.7353712722462726
147,0.201055109500885,0.8668619791666666,0.3840853273868561,0.6005267683459172
148,0.3294490575790405,0.7927433894230769,0.3974948525428772,0.7290084393541847
149,0.30727529525756836,0.85234375,0.36782270669937134,0.7213607112942223
150,0.26285719871520996,0.8601325757575756,0.3550882637500763,0.6923834759606041
151,0.38887548446655273,0.7236328124999999,0.4142475128173828,0.6572983458621763
152,0.4246607720851898,0.6877480158730158,0.3994542062282562,0.7175149215441775
153,0.36968275904655457,0.6871744791666666,0.380418986082077,0.7125495515123179
154,0.32362914085388184,0.7903645833333333,0.38099220395088196,0.7001312664876499
155,0.3082939684391022,0.7783203125,0.36610209941864014,0.7385293243006013
156,0.2787555158138275,0.8929036458333334,0.36698582768440247,0.7441362100271679
157,0.2792879641056061,0.8897786458333333,0.36717283725738525,0.7427964150703517
158,0.2690643072128296,0.8929036458333334,0.36605262756347656,0.7456638687356777
159,0.26493406295776367,0.8772786458333334,0.3665400743484497,0.7460724657533174
160,0.26180529594421387,0.8929036458333334,0.3705258369445801,0.7384797481871954
161,0.26133179664611816,0.8772786458333334,0.3714678883552551,0.7504494299042177
162,0.289997935295105,0.865530303030303,0.37540262937545776,0.7196350236642796
163,0.27922651171684265,0.8173828125,0.371268093585968,0.7119287184446762
164,0.3189662992954254,0.8304036458333334,0.3793480396270752,0.7266169089972287
165,0.29790252447128296,0.8684027777777777,0.36394158005714417,0.734074206919952
166,0.34372425079345703,0.797409188034188,0.3762238919734955,0.7492339855770714
167,0.3005553185939789,0.8272786458333333,0.3702983856201172,0.7551214048953414
168,0.2913001775741577,0.8637152777777778,0.3795095384120941,0.7560094766344774
169,0.3388053774833679,0.8038194444444444,0.36379575729370117,0.7289832872013727
170,0.33401626348495483,0.728298611111111,0.38582733273506165,0.6411726025156882
171,0.39278921484947205,0.6142578125,0.3923046588897705,0.7297980285081351
172,0.4096275568008423,0.7671874999999999,0.385567307472229,0.7459013228694084
173,0.310513973236084,0.7779513888888888,0.3695852756500244,0.721584743566127
174,0.29202800989151,0.8605902777777777,0.3647214472293854,0.7429830015335338
175,0.28048279881477356,0.8876953125,0.3648516833782196,0.7521495220697353
176,0.3351031541824341,0.7991536458333333,0.36334896087646484,0.7520323515137352
177,0.34238630533218384,0.7510767227564101,0.3683636784553528,0.7348702932213576
178,0.2982555627822876,0.8090494791666666,0.368914395570755,0.7507147811802074
179,0.2786426842212677,0.8559027777777778,0.3629538416862488,0.7206553759479296
180,0.2606472671031952,0.8747395833333333,0.3644777536392212,0.7329609732269311
181,0.26189470291137695,0.8715277777777778,0.3644076883792877,0.7320775333807252
182,0.2446083426475525,0.8747395833333333,0.3669157326221466,0.7282799814448756
183,0.2467530220746994,0.8923611111111112,0.36915066838264465,0.7249791623860777
184,0.2499343305826187,0.8936011904761905,0.3728804588317871,0.7306955032752912
185,0.25230932235717773,0.8767361111111112,0.36903032660484314,0.7338996449767732
186,0.2472437620162964,0.8467261904761905,0.3743588626384735,0.7349851434026973
187,0.24504902958869934,0.8767361111111112,0.3712158501148224,0.7359844150136707
188,0.25045496225357056,0.8571428571428571,0.3735368251800537,0.7230071169964795
189,0.25130245089530945,0.8767361111111112,0.3761460781097412,0.7188940093594355
190,0.24194176495075226,0.8929036458333334,0.37403324246406555,0.7311349636704253
191,0.23607942461967468,0.8736111111111111,0.3751782774925232,0.7345288620953518
192,0.25553226470947266,0.8512369791666666,0.3775954246520996,0.7342356245015824
193,0.24609330296516418,0.8929036458333334,0.3852716386318207,0.7497225405603071
194,0.316640704870224,0.8497488839285714,0.4019413888454437,0.641122733157308
195,0.41146785020828247,0.6898437499999999,0.3679950535297394,0.713997772322241
196,0.274839848279953,0.8220486111111112,0.3721754252910614,0.7232979456516696
197,0.4746330976486206,0.756310096153846,0.37446117401123047,0.7383216955424405
198,0.35556161403656006,0.6996527777777777,0.3489042818546295,0.7272304936001751
199,0.31197452545166016,0.7652994791666666,0.3454883396625519,0.727849575562342
200,0.3583534359931946,0.7472098214285714,0.3555925190448761,0.7205398590770935
201,0.35215282440185547,0.7366536458333333,0.35951822996139526,0.7321194811886307
202,0.32361215353012085,0.8616536458333334,0.3622477352619171,0.7293303347558671
203,0.2953033149242401,0.8616536458333334,0.3611330986022949,0.7352382320201472
204,0.28590911626815796,0.8616536458333334,0.36139798164367676,0.7263381456998482
205,0.26364657282829285,0.8616536458333334,0.35708293318748474,0.7332996534592283
206,0.2543967664241791,0.8616536458333334,0.3565436899662018,0.7356266654936873
207,0.24437229335308075,0.8779761904761905,0.35833823680877686,0.7275444256295326
208,0.24121734499931335,0.8616536458333334,0.3583378195762634,0.7226562262599503
209,0.23212002217769623,0.8779761904761905,0.3590087592601776,0.724522110572643
210,0.2296348214149475,0.8779761904761905,0.3619685173034668,0.7188344156828205
211,0.22204384207725525,0.8936011904761905,0.3643732964992523,0.7146274524333041
212,0.21707572042942047,0.9092261904761905,0.36817172169685364,0.7179480724161579
213,0.22039224207401276,0.9085286458333334,0.36333534121513367,0.7255357743123706
214,0.2196713387966156,0.8727678571428571,0.3659994304180145,0.7273399905846721
215,0.22456540167331696,0.8571428571428571,0.37045904994010925,0.7133914834180796
216,0.21667641401290894,0.8883928571428571,0.3635861575603485,0.7209834511430262
217,0.21194693446159363,0.8936011904761905,0.3643604815006256,0.7234565739618937
218,0.20518624782562256,0.9040178571428571,0.36813414096832275,0.7238999633148575
219,0.2036762237548828,0.91015625,0.36976420879364014,0.7291050222433206
220,0.22222554683685303,0.8415178571428571,0.36689358949661255,0.7205760689271333
221,0.20128072798252106,0.9085286458333334,0.3688538074493408,0.722224279857259
222,0.20001836121082306,0.9092261904761905,0.374068021774292,0.7237405020117792
223,0.24355261027812958,0.8408203125,0.3939675986766815,0.6759552646919673
224,0.4067550301551819,0.6684027777777778,0.3794679045677185,0.7381559727703347
225,0.4008471369743347,0.732717803030303,0.39388638734817505,0.6466990131617792
226,0.3462387025356293,0.7379261363636362,0.36932051181793213,0.6839023264954119
227,0.2431516945362091,0.814236111111111,0.3588520884513855,0.7057996249219657
228,0.23627842962741852,0.845486111111111,0.3589571416378021,0.715022287602075
229,0.22996895015239716,0.8304036458333333,0.3652341365814209,0.6948566056677763
230,0.22899234294891357,0.8350694444444444,0.35265281796455383,0.7146664845202083
231,0.240062415599823,0.8190104166666666,0.3524306118488312,0.7320079344414455
232,0.21473026275634766,0.8467261904761904,0.3588443100452423,0.7463555524459784
233,0.20631858706474304,0.8831845238095237,0.35920029878616333,0.7319482841823274
234,0.2036862075328827,0.8883928571428571,0.361558198928833,0.7249537224005316
235,0.20356275141239166,0.8519345238095237,0.3591402471065521,0.719895116211606
236,0.19239699840545654,0.8727678571428571,0.3503526747226715,0.7261857842708911
237,0.1991400122642517,0.8720703125,0.3529924750328064,0.7400458062426155
238,0.33594927191734314,0.834280303030303,0.3966899812221527,0.730137046267366
239,0.35177379846572876,0.751736111111111,0.4084942042827606,0.682030371126116
240,0.42213159799575806,0.66796875,0.42586562037467957,0.6632658136780485
241,0.3437447249889374,0.7465277777777777,0.3888292908668518,0.660139546229972
242,0.46717938780784607,0.7169363839285714,0.4289298355579376,0.6036913952871399
243,0.39699587225914,0.6501736111111112,0.37907201051712036,0.6749187401448044
244,0.3631432354450226,0.7569444444444444,0.3530445396900177,0.7155111289419804
245,0.31425827741622925,0.8319444444444444,0.3447374403476715,0.7183415899506329
246,0.28265905380249023,0.8168402777777778,0.34756147861480713,0.7172871892685726
247,0.26343345642089844,0.8324652777777778,0.352902352809906,0.7110263155874866
248,0.24997016787528992,0.8736111111111111,0.35323566198349,0.7160449450077118
249,0.2397085726261139,0.8616536458333334,0.3510933220386505,0.7184787356063959
250,0.23407483100891113,0.8467261904761905,0.35228243470191956,0.7209322562780017
251,0.2324002981185913,0.8616536458333334,0.3566852807998657,0.7164841142899661
252,0.2246464341878891,0.8311011904761905,0.35455289483070374,0.716144378178953
253,0.22954775393009186,0.8467261904761905,0.34888955950737,0.7162570334511827
254,0.22452643513679504,0.8623511904761905,0.36470454931259155,0.7117423824205743
255,0.21750766038894653,0.8311011904761905,0.3465416729450226,0.7114163486237959
256,0.2425151914358139,0.8311011904761905,0.3510573208332062,0.7244925307159354
257,0.20870031416416168,0.8623511904761905,0.35460761189460754,0.7264230494682626
258,0.2025386393070221,0.8727678571428571,0.3461017310619354,0.7105993612376592
259,0.27830415964126587,0.7946428571428571,0.3641138970851898,0.7059368089554264
260,0.22749853134155273,0.8772786458333334,0.3632088005542755,0.7073887297690497
261,0.20738843083381653,0.8876953125,0.35442090034484863,0.7142350483440916
262,0.19069324433803558,0.8850911458333334,0.35100436210632324,0.7209391913248298
263,0.18888358771800995,0.8883928571428571,0.3467606008052826,0.7199411104065364
264,0.192466139793396,0.8850911458333334,0.3515825867652893,0.7245260570792491
265,0.20995961129665375,0.8727678571428571,0.36126741766929626,0.7115682701852919
266,0.31892168521881104,0.782986111111111,0.39757880568504333,0.6942125767258751
267,0.25374364852905273,0.7706845238095237,0.37850233912467957,0.6626045615141363
268,0.23967444896697998,0.7835286458333334,0.36837321519851685,0.6953018164853273
269,0.25809282064437866,0.8019345238095237,0.3811786472797394,0.7259972341488302
270,0.22446884214878082,0.8460286458333334,0.36774778366088867,0.6959132101153378
271,0.3059741258621216,0.7486111111111111,0.37300214171409607,0.7136450955466914
272,0.27258431911468506,0.8043619791666666,0.3652176558971405,0.7343433871093452
273,0.22603647410869598,0.869642857142857,0.3683069348335266,0.7333968774527291
274,0.21940544247627258,0.9040178571428571,0.36476486921310425,0.7287405900836755
275,0.2139381319284439,0.87890625,0.37028419971466064,0.7382233256302412
276,0.27278441190719604,0.8929036458333334,0.38688474893569946,0.7287169272807577
277,0.2560569643974304,0.8779761904761905,0.4402536153793335,0.7149767170378879
278,0.5625307559967041,0.6351996527777777,0.445647656917572,0.7108446783712747
279,0.41923850774765015,0.7133928571428569,0.3934325575828552,0.7185828375721995
280,0.3345855474472046,0.7887369791666666,0.3764895498752594,0.7231268475417417
281,0.30435770750045776,0.8147786458333333,0.37265124917030334,0.7284531873760604
282,0.27955490350723267,0.8408203125,0.36626505851745605,0.736414702318958
283,0.2704784870147705,0.8720703125,0.367482453584671,0.7354697253101513
284,0.2527085244655609,0.8772786458333334,0.3613663911819458,0.7360087302374542
285,0.25343814492225647,0.8929036458333334,0.36649903655052185,0.7398423818104675
286,0.2378169596195221,0.8623511904761905,0.3670298755168915,0.7393780116652462
287,0.25274184346199036,0.8929036458333334,0.3687487244606018,0.741567240875752
288,0.23246416449546814,0.8936011904761905,0.3653131425380707,0.7314357938161133
289,0.22425082325935364,0.8779761904761905,0.365743488073349,0.7279319099930807
290,0.22688233852386475,0.8857886904761905,0.3646283745765686,0.7286236807912343
291,0.2334243804216385,0.8720703125,0.3727295994758606,0.7326311410220989
292,0.21072740852832794,0.8779761904761905,0.3656575381755829,0.7318899673022017
293,0.2143586426973343,0.8467261904761905,0.36927229166030884,0.7307390713108802
294,0.21701674163341522,0.86328125,0.37258654832839966,0.7349359382737045
295,0.2030652016401291,0.8883928571428571,0.37075817584991455,0.7291925238866732
296,0.20420920848846436,0.8571428571428571,0.37673187255859375,0.7303542714181016
297,0.2241753488779068,0.8997395833333333,0.37665581703186035,0.7332536105541426
298,0.2009599655866623,0.89453125,0.374541312456131,0.7095155868560127
299,0.19944071769714355,0.8467261904761905,0.37844452261924744,0.7325603814034668
300,0.21169139444828033,0.8936011904761905,0.374660462141037,0.730466257540726
301,0.1923563927412033,0.8883928571428571,0.38898205757141113,0.6554057319748812
302,0.21697720885276794,0.7903645833333333,0.3837663233280182,0.7291613867810679
303,0.18518628180027008,0.9040178571428571,0.38450103998184204,0.7301651210294829
304,0.34142136573791504,0.86328125,0.40386876463890076,0.6872988659291855
305,0.3436504006385803,0.7044270833333334,0.38363155722618103,0.6994094602206309
306,0.26346322894096375,0.828659188034188,0.37863048911094666,0.7279868009256311
307,0.24936464428901672,0.8616536458333334,0.3715297281742096,0.7261971086439174
308,0.2846917510032654,0.8664930555555554,0.40781962871551514,0.6857976966886541
309,0.3803867697715759,0.8010416666666667,0.4098745286464691,0.7054736142502107
310,0.3182021975517273,0.6970703125,0.3934212923049927,0.6907863088448202
311,0.3196779489517212,0.7543402777777778,0.3980117440223694,0.7467196928367145
312,0.4376932978630066,0.7013888888888888,0.4165850281715393,0.7270657381428665
313,0.32506075501441956,0.8006944444444444,0.3974522054195404,0.7365154172069073
314,0.30126330256462097,0.8267361111111111,0.38332122564315796,0.7386376601137244
315,0.28492271900177,0.8415178571428571,0.3780311048030853,0.743579536598154
316,0.2750804126262665,0.8467261904761905,0.37970060110092163,0.7409238171206258
317,0.27145329117774963,0.8779761904761905,0.37686896324157715,0.7420832487055894
318,0.2629956007003784,0.8616536458333334,0.3778131604194641,0.7419692669426714
319,0.2680831253528595,0.8623511904761905,0.3775721490383148,0.7459289695725869
320,0.26408955454826355,0.8575520833333333,0.3778323531150818,0.7375092893709918
321,0.2723599970340729,0.8102678571428571,0.3813547194004059,0.748895991715141
322,0.2536163628101349,0.8585286458333333,0.38094717264175415,0.7427763725636068
323,0.2545875608921051,0.8929036458333334,0.3930988013744354,0.746283941629687
324,0.3932422995567322,0.7699652777777777,0.40562835335731506,0.7582635646465441
325,0.26187795400619507,0.8623511904761905,0.3753871023654938,0.7352014952147936
326,0.24997442960739136,0.8616536458333334,0.374981164932251,0.7477854661099346
327,0.2395976185798645,0.89453125,0.375442773103714,0.746900456714287
328,0.24253487586975098,0.8727678571428571,0.3773787021636963,0.7513662849168173
329,0.2328999787569046,0.87890625,0.3796308934688568,0.7429051144875618
330,0.24844640493392944,0.854017857142857,0.3802623152732849,0.7358426561618056
331,0.22939103841781616,0.8929036458333334,0.37338605523109436,0.7451205679663132
332,0.23591358959674835,0.8460286458333334,0.37693706154823303,0.736569628657395
333,0.21938234567642212,0.9040178571428571,0.376835435628891,0.7401458195075222
334,0.2132492959499359,0.87890625,0.37474507093429565,0.7467243478546675
335,0.20874330401420593,0.900892857142857,0.37654462456703186,0.744931880078157
336,0.20766620337963104,0.87890625,0.3745150566101074,0.7455988701999345
337,0.21071454882621765,0.885267857142857,0.3758937418460846,0.7420349715296527
338,0.21422754228115082,0.84765625,0.3717416822910309,0.7484823047323053
339,0.21912521123886108,0.8904761904761904,0.3920272886753082,0.7216508958929176
340,0.24643227458000183,0.82890625,0.37332966923713684,0.7419896632130683
341,0.22398491203784943,0.87890625,0.3716926872730255,0.7393849324434437
342,0.20683039724826813,0.8929036458333334,0.37696707248687744,0.7350716186886403
343,0.2019634246826172,0.8623511904761905,0.37336260080337524,0.7384724037782555
344,0.1942470371723175,0.9106119791666666,0.38421234488487244,0.7296565993108552
345,0.216454416513443,0.841517857142857,0.3778916001319885,0.7214972596355579
346,0.17848101258277893,0.8519345238095237,0.3997443616390228,0.7276548992772403
347,0.16045944392681122,0.8789062499999999,0.3901134431362152,0.7258323842233423
348,0.1720457673072815,0.8831845238095237,0.3854222595691681,0.7286751802177338
349,0.15957508981227875,0.8841145833333333,0.41292816400527954,0.6477018214252258
350,0.1987892985343933,0.8216145833333333,0.39068475365638733,0.721204813704814
351,0.15439821779727936,0.9049479166666666,0.3841107189655304,0.7301600920749863
352,0.1751459836959839,0.8467261904761905,0.38405641913414,0.7231629816204289
353,0.16401955485343933,0.8684895833333331,0.39084529876708984,0.7188097009373613
354,0.18985019624233246,0.8897786458333333,0.38606610894203186,0.7192389505687383
355,0.17506109178066254,0.8450520833333333,0.389161616563797,0.7248297201222738
356,0.17649254202842712,0.8981119791666666,0.3950350880622864,0.7223344956855601
357,0.17250335216522217,0.8311011904761904,0.392029345035553,0.7270587834151669
358,0.145887091755867,0.8684895833333333,0.3934495449066162,0.7295196273387766
359,0.14652298390865326,0.8997395833333333,0.3971216380596161,0.7275732950068062
360,0.17563201487064362,0.8363095238095237,0.38287386298179626,0.7222503894844325
361,0.15518535673618317,0.8789062499999999,0.40812113881111145,0.6934947233617449
362,0.20536674559116364,0.838392857142857,0.3933711349964142,0.732171280256387
363,0.16796152293682098,0.8684895833333333,0.39505285024642944,0.7120712468185877
364,0.16047807037830353,0.8819444444444444,0.3906348943710327,0.7289363999869324
365,0.1934729814529419,0.8831845238095237,0.38953083753585815,0.7207356980096343
366,0.20499053597450256,0.8668619791666666,0.389676570892334,0.7156701425052493
367,0.2324812412261963,0.8017578125,0.3846966624259949,0.700589933608551
368,0.1862814873456955,0.8904761904761903,0.40857499837875366,0.7151777935421554
369,0.18711420893669128,0.841517857142857,0.41016659140586853,0.6843296296886728
370,0.17079296708106995,0.8800595238095237,0.4129709005355835,0.7174679285450564
371,0.20768296718597412,0.8415178571428571,0.4018818736076355,0.677041567573483
372,0.28649869561195374,0.7543619791666666,0.41762104630470276,0.7190434914770023
373,0.20226795971393585,0.8363095238095237,0.39210063219070435,0.7051973086015645
374,0.1868026703596115,0.8050595238095238,0.40236619114875793,0.7182482179955588
375,0.192270427942276,0.8424479166666666,0.39505815505981445,0.7158051581987755
376,0.1698659360408783,0.8893229166666665,0.4062291979789734,0.6936277493192394
377,0.2709709107875824,0.755580357142857,0.4253818392753601,0.7134060620230839
378,0.17710676789283752,0.8441220238095237,0.4156821072101593,0.6985792103877213
379,0.15315961837768555,0.9137369791666666,0.410101979970932,0.7121844679158514
380,0.1477365493774414,0.8476562499999999,0.41489484906196594,0.7061123047559223
381,0.1267128884792328,0.9085286458333333,0.441618412733078,0.6703108372124333
382,0.19860917329788208,0.7955729166666666,0.42685508728027344,0.7123462131839796
383,0.17481321096420288,0.8585286458333332,0.41011232137680054,0.71995643442452
384,0.19260621070861816,0.8350694444444444,0.39724916219711304,0.6919612228787766
385,0.1967402994632721,0.8616536458333334,0.40458834171295166,0.7106526840968331
386,0.18107430636882782,0.8415178571428571,0.38957685232162476,0.7132438035762511
387,0.1834859400987625,0.8592261904761903,0.3908720910549164,0.736331086663534
388,0.19664455950260162,0.8580729166666666,0.39666005969047546,0.7159775552461727
389,0.173350527882576,0.8623511904761904,0.4066145718097687,0.7182808764324726
390,0.18608008325099945,0.8815104166666666,0.42241770029067993,0.7136037366888437
391,0.16297154128551483,0.8945312499999999,0.413179874420166,0.7102066471747327
392,0.1607917994260788,0.8476562499999999,0.4212934970855713,0.7060454517901328
393,0.14758211374282837,0.8929036458333333,0.41355133056640625,0.718959028068071
394,0.1476851999759674,0.8997395833333333,0.417229026556015,0.711060236552258
395,0.1384582370519638,0.9092261904761904,0.43041151762008667,0.7064346134558903
396,0.12023481726646423,0.8997395833333333,0.432695209980011,0.6690534819790138
397,0.3096992075443268,0.7381944444444445,0.4506882131099701,0.7296811511971091
398,0.18602366745471954,0.8772786458333334,0.393160879611969,0.6906738454610798
399,0.1695370227098465,0.810267857142857,0.41099512577056885,0.6955187321543709
400,0.1299734264612198,0.9153645833333333,0.4047476053237915,0.7076400623608075
401,0.1151011511683464,0.9101562499999999,0.41161048412323,0.7075356533734201
402,0.12249262630939484,0.8789062499999999,0.4144485592842102,0.7072565805943473
403,0.13491268455982208,0.9144345238095237,0.4128887951374054,0.7096481773742422
404,0.22521930932998657,0.8337053571428571,0.415393203496933,0.710943034014843
405,0.24960951507091522,0.7926136363636364,0.4016796350479126,0.6970638620638624
406,0.2779068648815155,0.7423828125,0.428287535905838,0.7105635823986896
407,0.17722100019454956,0.8251953125,0.39965954422950745,0.6939615393471781
408,0.15795521438121796,0.8789062499999999,0.4088183045387268,0.7103753491386471
409,0.17057211697101593,0.9049479166666666,0.3938967287540436,0.7194726023582408
410,0.13874180614948273,0.9153645833333333,0.39753904938697815,0.7035316481194145
411,0.14403079450130463,0.8779761904761904,0.4160165786743164,0.7210853832928306
412,0.13318680226802826,0.8684895833333333,0.4262135624885559,0.7044014668349775
413,0.4408245086669922,0.7496744791666666,0.47982901334762573,0.7310285828237958
414,0.27405110001564026,0.8779761904761905,0.41849005222320557,0.7183002970237015
415,0.23439240455627441,0.8779761904761905,0.38936537504196167,0.7246337212826579
416,0.20441745221614838,0.87578125,0.3839690089225769,0.7145335623793075
417,0.18941599130630493,0.8571428571428571,0.37932851910591125,0.7073142224206062
418,0.18077880144119263,0.8488095238095237,0.4009602963924408,0.7171990976911194
419,0.3392883539199829,0.8012152777777778,0.41359183192253113,0.7304154892585749
420,0.22940921783447266,0.8402777777777778,0.38367873430252075,0.730651135212306
421,0.26298093795776367,0.8772786458333334,0.3773031234741211,0.7341832010582016
422,0.24152354896068573,0.8564453124999999,0.392447292804718,0.7300730145543981
423,0.22390207648277283,0.8663194444444444,0.37864577770233154,0.723301799166161
424,0.20007817447185516,0.8831845238095237,0.3861284554004669,0.7262989684665223
425,0.19700570404529572,0.8779761904761904,0.38713356852531433,0.7287566004720263
426,0.1802520751953125,0.8893229166666666,0.38359442353248596,0.7247899701756086
427,0.1813759207725525,0.8883928571428571,0.38768911361694336,0.7269648564595375
428,0.17679408192634583,0.8883928571428571,0.3834816813468933,0.7235414895388304
429,0.19857445359230042,0.9040178571428571,0.3923676311969757,0.7254283172501262
430,0.18761716783046722,0.8798828125,0.38143450021743774,0.712189122933804
431,0.1824096292257309,0.9040178571428571,0.38450151681900024,0.7210853557396115
432,0.16191817820072174,0.8841145833333333,0.38139843940734863,0.716270735765417
433,0.16166120767593384,0.9040178571428571,0.3850812613964081,0.7243260280893262
434,0.15431669354438782,0.8893229166666666,0.38289496302604675,0.725650356341846
435,0.17038406431674957,0.8883928571428571,0.39691808819770813,0.7174953932001809
436,0.16508197784423828,0.8841145833333333,0.38910654187202454,0.7165814863820187
437,0.23342962563037872,0.8663194444444444,0.4166105389595032,0.7199172375103231
438,0.26552343368530273,0.8085069444444444,0.4212077260017395,0.7021804726990899
439,0.1953117549419403,0.8102678571428571,0.40088626742362976,0.7308210849434257
440,0.17051948606967926,0.8883928571428571,0.3973515033721924,0.7386376399408319
441,0.16478675603866577,0.8893229166666666,0.3950798809528351,0.742728344842707
442,0.1568208634853363,0.8893229166666666,0.39982059597969055,0.7424267207378914
443,0.1514686942100525,0.9049479166666666,0.3966635465621948,0.7432710851992772
444,0.14748919010162354,0.8893229166666666,0.3979688286781311,0.7406318066291475
445,0.15491777658462524,0.8893229166666666,0.3978433609008789,0.7355644891948087
446,0.15522493422031403,0.9040178571428571,0.39863190054893494,0.7393150628921912
447,0.1593555063009262,0.8736979166666666,0.3967247009277344,0.7379519903855016
448,0.1906030774116516,0.87109375,0.432994544506073,0.7083027192468684
449,0.39076346158981323,0.6415798611111111,0.46619775891304016,0.647678407093301
450,0.4546023905277252,0.6753472222222221,0.4493029713630676,0.6913406781358914
451,0.42244839668273926,0.7279730902777777,0.38516244292259216,0.7059065122230019
452,0.3030904233455658,0.78046875,0.3921434283256531,0.7131514973403273
453,0.2572190761566162,0.8350694444444444,0.38905736804008484,0.7127761639463776
454,0.29802650213241577,0.8126953125,0.39132869243621826,0.721113841831928
455,0.2639857828617096,0.86953125,0.37888216972351074,0.7350963624633843
456,0.2419048249721527,0.8616536458333334,0.4053158462047577,0.6876288998629428
457,0.30024218559265137,0.7764136904761904,0.3978252112865448,0.740591156282646
458,0.30102455615997314,0.7909722222222222,0.38439109921455383,0.7289625637365005
459,0.2861405909061432,0.8199869791666666,0.36533862352371216,0.7143921061208298
460,0.2351229339838028,0.8876953125,0.3675318658351898,0.7142456095913547
461,0.22433647513389587,0.8668619791666666,0.37103158235549927,0.703911612422251
462,0.23267453908920288,0.8668619791666666,0.36256709694862366,0.7237956881573909
463,0.22064782679080963,0.8720703125,0.36737775802612305,0.7201145288911253
464,0.21555522084236145,0.8936011904761905,0.36837315559387207,0.7257376636366003
465,0.21666300296783447,0.8936011904761905,0.37092646956443787,0.7292500397553594
466,0.2034369558095932,0.8883928571428571,0.3698650300502777,0.7293722973244254
467,0.19277875125408173,0.9040178571428571,0.36867019534111023,0.7298195451120987
468,0.18545079231262207,0.9196428571428571,0.3689769208431244,0.7294691567297954
469,0.18007290363311768,0.9205729166666666,0.36792853474617004,0.7303449357970638
470,0.17646512389183044,0.9205729166666666,0.36841028928756714,0.7324635323305541
471,0.17165321111679077,0.9205729166666666,0.36831608414649963,0.7314348624189053
472,0.1675480306148529,0.9205729166666666,0.36921927332878113,0.7333161027309969
473,0.16862526535987854,0.9049479166666666,0.3702012896537781,0.7262688527981083
474,0.18270434439182281,0.88671875,0.37205180525779724,0.7254010002015323
475,0.1669694185256958,0.9205729166666666,0.3688688576221466,0.7344199019066044
476,0.15441107749938965,0.9049479166666666,0.3739902973175049,0.7142010250387913
477,0.1591949313879013,0.8580729166666666,0.37341731786727905,0.7201115226381188
478,0.15133194625377655,0.8424479166666666,0.3854345977306366,0.7209583806658278
479,0.4656280279159546,0.7044270833333333,0.49325165152549744,0.6644598678508258
480,0.4975355267524719,0.7279730902777777,0.4773729741573334,0.7232173190284897
481,0.33355751633644104,0.7913411458333333,0.42163074016571045,0.7360413719456279
482,0.3147082030773163,0.8121744791666666,0.40184253454208374,0.7467469168931942
483,0.30436182022094727,0.8559027777777778,0.39273911714553833,0.7462541866132298
484,0.2797800302505493,0.8564453125,0.3884042799472809,0.7464338459019317
485,0.2729489207267761,0.8772786458333334,0.3862118721008301,0.7413053701617538
486,0.2695004940032959,0.8564453125,0.3835446536540985,0.7396510601297841
487,0.27047282457351685,0.8772786458333334,0.38354161381721497,0.7443757065432605
488,0.26692256331443787,0.8720703125,0.3820841908454895,0.7349481163045
489,0.27766329050064087,0.8304036458333334,0.3792031407356262,0.7418888464766131
490,0.25783538818359375,0.8929036458333334,0.38344287872314453,0.743220982622579
491,0.2502923905849457,0.8720703125,0.3784898817539215,0.7448814478468739
492,0.24381107091903687,0.8772786458333334,0.379013329744339,0.7430476069438843
493,0.239492267370224,0.8772786458333334,0.3778836131095886,0.7446285762110237
494,0.2352364957332611,0.8929036458333334,0.3769157826900482,0.7432917629061253
495,0.23819071054458618,0.8929036458333334,0.3758309781551361,0.7462984956336026
496,0.2312929779291153,0.8772786458333334,0.3764592409133911,0.7438745922123587
497,0.22909022867679596,0.8936011904761905,0.37454912066459656,0.7432526816170439
498,0.22486281394958496,0.8936011904761905,0.3737345039844513,0.7437378077005744
499,0.23146161437034607,0.9040178571428571,0.3746952414512634,0.7517850131546946
500,0.22731004655361176,0.8936011904761905,0.37558597326278687,0.751358636930446
501,0.2371831238269806,0.8720703125,0.3737331032752991,0.7530728181393083
502,0.2222273200750351,0.9040178571428571,0.3695065975189209,0.7394701358531152
503,0.23828229308128357,0.86328125,0.37115049362182617,0.7230896659487093
504,0.2534615397453308,0.8649553571428571,0.38035494089126587,0.7135660950554575
505,0.3707987666130066,0.7694444444444444,0.3805932402610779,0.7262168111636204
506,0.29337096214294434,0.8251953125,0.37520870566368103,0.7372970971109274
507,0.2668597102165222,0.8460286458333334,0.3776107430458069,0.7209898346334521
508,0.24768352508544922,0.8772786458333334,0.37227699160575867,0.7336428263422949
509,0.2538120150566101,0.8095703125,0.3724774718284607,0.7394799192139622
510,0.267956018447876,0.8460286458333334,0.36643269658088684,0.7487009454296694
511,0.2614299952983856,0.8154761904761905,0.35980695486068726,0.7528959387735988
512,0.281920462846756,0.8611111111111112,0.3602231442928314,0.751111756643672
513,0.27143147587776184,0.8434244791666666,0.404924601316452,0.6066977954079023
514,0.3482160270214081,0.8012152777777778,0.3949950635433197,0.7168171357799025
515,0.3148975968360901,0.8559027777777778,0.37955477833747864,0.7190501691964465
516,0.2832886278629303,0.8611111111111112,0.37308043241500854,0.7259850541499484
517,0.27110904455184937,0.8767361111111112,0.37175923585891724,0.7249542464037151
518,0.2609768509864807,0.8772786458333334,0.367938369512558,0.7270960191305942
519,0.2479342520236969,0.8929036458333334,0.3691222667694092,0.7252042839941782
520,0.2387179136276245,0.9085286458333334,0.3679545819759369,0.7206314016952321
521,0.2397768199443817,0.8929036458333334,0.36871278285980225,0.722619479614161
522,0.2386709749698639,0.9079861111111112,0.37037724256515503,0.719555852933513
523,0.28460410237312317,0.8616536458333334,0.3822415769100189,0.7107393689840504
524,0.26223206520080566,0.8304036458333334,0.37040209770202637,0.7366716813525327
525,0.24776405096054077,0.8616536458333334,0.36950960755348206,0.7361414171919496
526,0.23641729354858398,0.8929036458333334,0.37235668301582336,0.744769075487161
527,0.22234848141670227,0.9033203125,0.3735295534133911,0.735692966411052
528,0.21588729321956635,0.89453125,0.37453168630599976,0.7404154405484197
529,0.2091275453567505,0.9040178571428571,0.3758768141269684,0.73513958460767
530,0.2054479718208313,0.9049479166666666,0.37716493010520935,0.7341198916331899
531,0.202220618724823,0.9040178571428571,0.3774682581424713,0.7311253536652477
532,0.2072950005531311,0.8988095238095237,0.377936989068985,0.731724759184866
533,0.22089016437530518,0.8883928571428571,0.37460920214653015,0.7242750600463369
534,0.20709633827209473,0.8988095238095237,0.37982457876205444,0.7350393474728585
535,0.21420979499816895,0.8727678571428571,0.3801810145378113,0.7155127472015774
536,0.2101507931947708,0.9033203125,0.48860225081443787,0.5803773570794845
537,0.5531430840492249,0.5882161458333333,0.4555584788322449,0.6378606076744375
538,0.38457155227661133,0.7262369791666667,0.3842782974243164,0.717457965596264
539,0.28780439496040344,0.8460286458333334,0.3834962248802185,0.7378185865552891
540,0.25007447600364685,0.8616536458333334,0.373317152261734,0.7331568461089742
541,0.25941213965415955,0.8506944444444444,0.3716049790382385,0.7198303499101377
542,0.24148260056972504,0.8623511904761905,0.37140965461730957,0.7234788271224447
543,0.24224330484867096,0.8720703125,0.3704083263874054,0.7165550195470411
544,0.2391408532857895,0.8767361111111112,0.3803618848323822,0.736023592739019
545,0.3246699869632721,0.7686011904761904,0.39977455139160156,0.6711012741198917
546,0.46436330676078796,0.7101934523809523,0.43982917070388794,0.6392392600504305
547,0.3974878489971161,0.6633184523809523,0.3953992426395416,0.6880255604324754
548,0.3362775444984436,0.751736111111111,0.386361300945282,0.6886387076280693
549,0.31743767857551575,0.7842261904761904,0.3901502192020416,0.6954579723861641
550,0.2900528609752655,0.802455357142857,0.38873741030693054,0.6919794094794096
551,0.2801819443702698,0.8024553571428571,0.38694265484809875,0.6922945646748838
552,0.272158145904541,0.7842261904761904,0.38362646102905273,0.6969758147683683
553,0.2582416534423828,0.8467261904761905,0.38373449444770813,0.69303396318024
554,0.2523305118083954,0.8206845238095237,0.3808422386646271,0.6870471697333402
555,0.251131534576416,0.8128720238095237,0.3790115714073181,0.6920762467438
556,0.240724116563797,0.8363095238095237,0.37873268127441406,0.6828420850229364
557,0.2344895899295807,0.8415178571428571,0.37363913655281067,0.6787994762329869
558,0.2280815839767456,0.8363095238095237,0.3760412335395813,0.676786704233513
559,0.2208157330751419,0.8311011904761905,0.3764283359050751,0.6882061949083229
560,0.23753471672534943,0.8050595238095237,0.3783806562423706,0.6914350680840043
561,0.2346448302268982,0.8272569444444444,0.378030002117157,0.6756300619199557
562,0.21981018781661987,0.8206845238095237,0.38057249784469604,0.6667369332794866
563,0.20709779858589172,0.8519345238095237,0.3774470388889313,0.6677492847971572
564,0.21607404947280884,0.8206845238095237,0.3795352280139923,0.6785354603040775
565,0.22689393162727356,0.8168402777777778,0.37594035267829895,0.6811512773081922
566,0.20902368426322937,0.8206845238095237,0.38162967562675476,0.6610238672871656
567,0.19973310828208923,0.8727678571428571,0.38033685088157654,0.6849057551983087
568,0.1934102177619934,0.8727678571428571,0.37780213356018066,0.684023593132636
569,0.2115512490272522,0.8559027777777778,0.3804236054420471,0.6760027826783149
570,0.1939203292131424,0.8580729166666666,0.3810328245162964,0.6754341295032787
571,0.18816247582435608,0.8580729166666666,0.37377989292144775,0.6793894344426261
572,0.1853499710559845,0.8736979166666666,0.3771921694278717,0.6759866246834333
573,0.1949983388185501,0.8571428571428571,0.3767264783382416,0.6855839767009981
574,0.20545142889022827,0.8258928571428571,0.37439826130867004,0.6849877939239644
575,0.19468094408512115,0.8684895833333333,0.3740682303905487,0.6797955398620293
576,0.18207873404026031,0.8736979166666666,0.3729422986507416,0.6874140359246743
577,0.17399492859840393,0.8580729166666666,0.37460857629776,0.6917443416512566
578,0.16662642359733582,0.8580729166666666,0.37705978751182556,0.6898400894810472
579,0.16197650134563446,0.8580729166666666,0.3820766508579254,0.6872099290583336
580,0.16117173433303833,0.8580729166666666,0.37888580560684204,0.6908347213267431
581,0.19439254701137543,0.8571428571428571,0.37836453318595886,0.6985789264911607
582,0.17338797450065613,0.8684895833333333,0.3775663375854492,0.6936557753712009
583,0.23940306901931763,0.8304036458333333,0.3900774121284485,0.6643756780059976
584,0.20913416147232056,0.7695312499999999,0.3857273459434509,0.688361692976055
585,0.26803159713745117,0.7814980158730158,0.36031222343444824,0.6987929992584251
586,0.20782358944416046,0.8311011904761904,0.37253516912460327,0.6927118950789165
587,0.18477211892604828,0.8831845238095237,0.36914485692977905,0.7173593132635688
588,0.19648852944374084,0.8206845238095237,0.37904661893844604,0.7065197529027318
589,0.20312729477882385,0.8571428571428571,0.3737708330154419,0.6982980268352612
590,0.3408967852592468,0.7861328125,0.38952693343162537,0.7540327403093365
591,0.2714534401893616,0.8923611111111112,0.3728216290473938,0.7383639843214318
592,0.2567793130874634,0.8779761904761905,0.3727933168411255,0.7374246606427459
593,0.23080626130104065,0.9040178571428571,0.36933761835098267,0.7389754591350337
594,0.2061033993959427,0.9040178571428571,0.3712519407272339,0.7267412128848303
595,0.18670281767845154,0.9049479166666666,0.37340080738067627,0.7229163724376491
596,0.17728093266487122,0.9049479166666666,0.37204381823539734,0.722068964329603
597,0.17618142068386078,0.9049479166666666,0.368601530790329,0.7195968427750348
598,0.1667473018169403,0.9033203125,0.36867132782936096,0.7218640126618854
599,0.21503883600234985,0.8668619791666666,0.3684147000312805,0.7295783708017753
600,0.20046032965183258,0.8623511904761904,0.37214547395706177,0.7118844359934787
601,0.20024283230304718,0.8975694444444444,0.368139386177063,0.7297145766959602
602,0.1673324853181839,0.9300595238095237,0.3723849058151245,0.725487719530273
603,0.15937753021717072,0.9144345238095237,0.36224308609962463,0.7278066038571364
604,0.14919337630271912,0.9309895833333333,0.36626678705215454,0.7175759371637032
605,0.14092124998569489,0.9153645833333333,0.3655291199684143,0.7264265073972526
606,0.1366800218820572,0.9309895833333333,0.36947500705718994,0.7182319168223424
607,0.14114080369472504,0.9153645833333333,0.36846721172332764,0.7343517185139529
608,0.13079054653644562,0.9309895833333333,0.37064847350120544,0.7256783366357836
609,0.12945184111595154,0.9309895833333333,0.37115222215652466,0.7263941594260747
610,0.1294974535703659,0.9309895833333333,0.3778291940689087,0.7174066437896229
611,0.13186025619506836,0.9144345238095237,0.3744121193885803,0.7317515999563874
612,0.14607888460159302,0.9300595238095237,0.37916475534439087,0.6992533033357505
613,0.16501842439174652,0.8981119791666666,0.3727084696292877,0.7194949337502532
614,0.14978989958763123,0.8936011904761904,0.3852076828479767,0.7093148213095024
615,0.15322205424308777,0.9293619791666666,0.3814321756362915,0.7134807489594729
616,0.1540921926498413,0.9007161458333334,0.4389464855194092,0.6529096794655307
617,0.4885871410369873,0.6263020833333333,0.46025559306144714,0.5493582353422779
618,0.35089248418807983,0.693080357142857,0.37679600715637207,0.7195321055028504
619,0.21141596138477325,0.8486328125,0.37436121702194214,0.7191122628356668
620,0.20897604525089264,0.8741319444444444,0.36157098412513733,0.7170387089270068
621,0.19432853162288666,0.8493303571428571,0.37620341777801514,0.7175366841590246
622,0.22232505679130554,0.8546006944444444,0.37898847460746765,0.7260190735190736
623,0.19641844928264618,0.8571428571428571,0.3752104938030243,0.7236086327974627
624,0.23512139916419983,0.8500350560897435,0.4552445411682129,0.5867287263563856
625,0.48710867762565613,0.6220703125,0.4472730755805969,0.7330947322968605
626,0.29944339394569397,0.8294270833333333,0.4145362377166748,0.7194482408844117
627,0.29305025935173035,0.8519345238095237,0.40748652815818787,0.7267914512595369
628,0.2702964246273041,0.8831845238095237,0.4031817615032196,0.7181042957239772
629,0.2474462389945984,0.8988095238095237,0.4011118412017822,0.723278683983472
630,0.25430750846862793,0.8841145833333333,0.4003738760948181,0.7231180536366715
631,0.23884513974189758,0.8997395833333333,0.4006667137145996,0.7231868973225364
632,0.2299739569425583,0.8988095238095237,0.4006767272949219,0.7233070490384327
633,0.22539405524730682,0.9049479166666666,0.40168148279190063,0.7242195526105109
634,0.2240736186504364,0.8988095238095237,0.4012949466705322,0.721399207569421
635,0.24056485295295715,0.8467261904761904,0.4101940989494324,0.6975849185290679
636,0.2859366238117218,0.7865584935897435,0.40599894523620605,0.6768423115497588
637,0.23933717608451843,0.8263020833333332,0.38890540599823,0.7158857690772588
638,0.21774360537528992,0.8488095238095237,0.387545108795166,0.7270184209014
639,0.2054453194141388,0.869642857142857,0.3868396580219269,0.7219104575487556
640,0.19236119091510773,0.8653645833333332,0.38344430923461914,0.7239123858804714
641,0.18327070772647858,0.8736979166666666,0.38225114345550537,0.727123575793789
642,0.1886347532272339,0.8736979166666666,0.3830704987049103,0.7373992265614608
643,0.20454493165016174,0.8883928571428571,0.3822198808193207,0.7371645843321377
644,0.20133540034294128,0.90234375,0.38474932312965393,0.7270778005485456
645,0.22650817036628723,0.8840277777777777,0.37213781476020813,0.7358580839963824
646,0.19132879376411438,0.8632812499999999,0.37792813777923584,0.7222955556067262
647,0.18054765462875366,0.9027777777777778,0.3805485665798187,0.7276222988988951
648,0.1743021309375763,0.8893229166666666,0.38115230202674866,0.7306302050982907
649,0.19554993510246277,0.9033203125,0.3750036954879761,0.7367586191389389
650,0.18764275312423706,0.8649553571428571,0.3805099427700043,0.7202770116998845
651,0.1996757984161377,0.8824869791666666,0.37872621417045593,0.7331371809829262
652,0.16983258724212646,0.8988095238095237,0.3744156062602997,0.7296615323211071
653,0.15979626774787903,0.9040178571428571,0.3796055316925049,0.7266739052909269
654,0.15259237587451935,0.9049479166666666,0.384330689907074,0.7281024063603856
655,0.15280821919441223,0.8997395833333333,0.3844473958015442,0.7263100620813392
656,0.15684734284877777,0.9018229166666666,0.38602331280708313,0.722678985710901
657,0.15187986195087433,0.9153645833333333,0.38641420006752014,0.7214346626580675
658,0.14965865015983582,0.9040178571428571,0.37880244851112366,0.7312074406090369
659,0.14303217828273773,0.8997395833333333,0.3891288638114929,0.7231469008729651
660,0.1378019154071808,0.9144345238095237,0.38779449462890625,0.727503871719298
661,0.1345190852880478,0.9153645833333333,0.389673113822937,0.7295017728528372
662,0.14371654391288757,0.8988095238095237,0.39249187707901,0.7328058584441569
663,0.14409169554710388,0.9153645833333333,0.39900684356689453,0.7102586858570905
664,0.18410305678844452,0.8507326007326006,0.4005972743034363,0.6874527855910838
665,0.17243367433547974,0.8500350560897435,0.38715848326683044,0.717785107918087
666,0.1480947732925415,0.8936011904761904,0.3925417363643646,0.7247345591760488
667,0.1329946368932724,0.9040178571428571,0.3920087516307831,0.7236523666443883
668,0.16185374557971954,0.8845703125,0.3974577784538269,0.7143447126159898
669,0.1787593811750412,0.8311011904761904,0.420569509267807,0.7254944725290473
670,0.4950213134288788,0.765438988095238,0.42283040285110474,0.7414135509880194
671,0.42574384808540344,0.7600911458333333,0.3989572823047638,0.7339369825407064
672,0.28817686438560486,0.810546875,0.3933151066303253,0.7321256417931955
673,0.24167972803115845,0.8206845238095237,0.390907883644104,0.7352868654198448
674,0.22351345419883728,0.8519345238095237,0.382792204618454,0.735074300699301
675,0.21536211669445038,0.8493303571428571,0.38107067346572876,0.736170782527166
676,0.20208686590194702,0.8675595238095237,0.37687912583351135,0.7364511202942058
677,0.19453215599060059,0.8701636904761905,0.37990275025367737,0.7340104822285676
678,0.18798108398914337,0.8675595238095237,0.3784848749637604,0.7346499270036506
679,0.1809452921152115,0.8805803571428571,0.38075461983680725,0.7328795406720942
680,0.1766003668308258,0.8988095238095237,0.381387323141098,0.7357503179444669
681,0.17289352416992188,0.8805803571428571,0.3810867369174957,0.7273331637826321
682,0.1745453029870987,0.8988095238095237,0.38497796654701233,0.733253917575726
683,0.16963188350200653,0.8831845238095237,0.38145309686660767,0.7269138451186326
684,0.17364110052585602,0.8988095238095237,0.3886324167251587,0.7365111863117183
685,0.16460983455181122,0.8831845238095237,0.38490161299705505,0.7212398156414115
686,0.16216722130775452,0.8988095238095237,0.3912268579006195,0.7338596933011826
687,0.15301711857318878,0.8962053571428571,0.38875487446784973,0.7251044626177606
688,0.14445829391479492,0.8936011904761904,0.39130714535713196,0.7237097196538685
689,0.14237220585346222,0.8997395833333333,0.39213696122169495,0.7308695333429377
690,0.13460350036621094,0.8945312499999999,0.3936157822608948,0.7212854693572778
691,0.13495740294456482,0.8997395833333333,0.3953307569026947,0.7297112870384149
692,0.13025948405265808,0.8945312499999999,0.39545926451683044,0.7192018604917544
693,0.13627907633781433,0.8997395833333333,0.3998478949069977,0.71733765889351
694,0.1290559619665146,0.8632812499999999,0.39869439601898193,0.7183684617195255
695,0.12033817172050476,0.8997395833333333,0.40064698457717896,0.717467414382308
696,0.18647588789463043,0.8304036458333333,0.41357770562171936,0.7227359352625309
697,0.3552759289741516,0.7406600560897436,0.5017938613891602,0.6681558123712386
698,0.4096946716308594,0.7530048076923077,0.5267320871353149,0.7159691175648631
699,0.4378662407398224,0.7444661458333334,0.4596804082393646,0.6972628819171377
700,0.3998357057571411,0.7850694444444445,0.4152689576148987,0.7325226782673598
701,0.36181947588920593,0.8090277777777778,0.45264488458633423,0.6632787823878253
702,0.48516595363616943,0.71484375,2.372330904006958,0.3188412759423401
703,1.5130034685134888,0.3439236111111112,0.943290114402771,0.3956994665106369
704,0.760968029499054,0.4935980902777778,0.5127660632133484,0.5728268904066776
705,0.46094536781311035,0.6658203125,0.446820467710495,0.6813584819435886
706,0.40842974185943604,0.6949869791666666,0.42334073781967163,0.697408380626466
707,0.3726915717124939,0.7699869791666667,0.4113845229148865,0.7144819325670393
708,0.3600698709487915,0.7835286458333334,0.4054786264896393,0.7114094652392529
709,0.34274405241012573,0.7991536458333334,0.4029368460178375,0.723824783372656
710,0.3319626450538635,0.8154761904761905,0.4006394147872925,0.7235632639622004
711,0.3239533305168152,0.7998511904761905,0.40062838792800903,0.7278001814969902
712,0.31512612104415894,0.8311011904761905,0.39904794096946716,0.7205662835981987
713,0.3074372410774231,0.8311011904761905,0.3996676802635193,0.7209400528549469
714,0.30268412828445435,0.8206845238095237,0.39835378527641296,0.7233522210649874
715,0.2954905331134796,0.8154761904761905,0.39799514412879944,0.7230856412106416
716,0.29014524817466736,0.8206845238095237,0.3970530033111572,0.7237859062726087
717,0.2853050231933594,0.8154761904761905,0.3967854678630829,0.7245739283372266
718,0.28047025203704834,0.8154761904761905,0.3972185552120209,0.7239043664176648
719,0.27416062355041504,0.8311011904761905,0.39712032675743103,0.7251296383876176
720,0.27053558826446533,0.8311011904761905,0.39577141404151917,0.7216480136293971
721,0.2681500315666199,0.8311011904761905,0.3957211375236511,0.7213151609029276
722,0.2642430365085602,0.8311011904761905,0.39523831009864807,0.7218458285213613
723,0.2606546878814697,0.8311011904761905,0.3957281708717346,0.7228216552950604
724,0.2564258277416229,0.8311011904761905,0.39606016874313354,0.7221974100564534
725,0.2532757818698883,0.8311011904761905,0.39813467860221863,0.7181732205934341
726,0.2513359785079956,0.8389136904761905,0.39494118094444275,0.719835102840423
727,0.24627120792865753,0.8389136904761905,0.394287645816803,0.720041958632385
728,0.24550986289978027,0.8389136904761905,0.39435169100761414,0.716154888255953
729,0.24158158898353577,0.8389136904761905,0.39421048760414124,0.7172630442843217
730,0.23872750997543335,0.8389136904761905,0.3992631435394287,0.7198855518004462
731,0.2406492829322815,0.8389136904761905,0.39518359303474426,0.7271122937346347
732,0.2354760468006134,0.8389136904761905,0.3963172137737274,0.7262829516818883
733,0.31896132230758667,0.7626953125,0.4144556224346161,0.7077353379481044
734,0.33829259872436523,0.7081845238095238,0.4111952781677246,0.6916226750003349
735,0.3405759334564209,0.7673611111111112,0.39485964179039,0.7136775429062667
736,0.4153349995613098,0.726963141025641,0.407537579536438,0.6972960691134453
737,0.4257945716381073,0.6940104166666665,0.38659048080444336,0.7198908361142409
738,0.3713532090187073,0.751736111111111,0.36591628193855286,0.721156599015642
739,0.34149137139320374,0.767361111111111,0.35699570178985596,0.7112486513683324
740,0.32725152373313904,0.751736111111111,0.3520486056804657,0.7126644538479648
741,0.3162698745727539,0.7928819444444444,0.3483414649963379,0.71879641684163
742,0.3091772794723511,0.7772569444444444,0.34601566195487976,0.7228227170780366
743,0.30271512269973755,0.7928819444444444,0.34469711780548096,0.7184431821133952
744,0.297581285238266,0.7772569444444444,0.34394899010658264,0.7152223633340656
745,0.2911643087863922,0.7772569444444444,0.34463512897491455,0.7089104202535057
746,0.28655052185058594,0.7803819444444444,0.3433464765548706,0.7061400887331739
747,0.28235766291618347,0.7803819444444444,0.3427768349647522,0.7005821576965195
748,0.2802327275276184,0.7960069444444444,0.342490553855896,0.7038112793431943
749,0.2760927379131317,0.8095703125,0.3424234390258789,0.6986997537529455
750,0.27553650736808777,0.7960069444444444,0.34294557571411133,0.7013487654977018
751,0.2706945538520813,0.7908203125,0.3458600342273712,0.7050203874140047
752,0.26225540041923523,0.8064453125,0.34507280588150024,0.6994396757694631
753,0.26164162158966064,0.8220703125,0.34567567706108093,0.7019359949546118
754,0.2638431787490845,0.7939453125,0.34172508120536804,0.707187168623339
755,0.2637227773666382,0.7809244791666666,0.3452231287956238,0.7044084560042007
756,0.26195743680000305,0.7908203125,0.3448806405067444,0.7011611836744817
757,0.24455897510051727,0.8616536458333334,0.3468628227710724,0.6970846298106937
758,0.24511310458183289,0.8304036458333334,0.3480391502380371,0.6931782707048664
759,0.24568641185760498,0.8304036458333334,0.35099583864212036,0.6925661897204449
760,0.24246197938919067,0.8272786458333333,0.35198429226875305,0.6983164097525798
761,0.2377464920282364,0.8147786458333334,0.3474002480506897,0.6970100850685959
762,0.23741650581359863,0.8304036458333334,0.3512803912162781,0.6945221912642124
763,0.24016904830932617,0.8154761904761905,0.3450652062892914,0.7065817978317979
764,0.23014678061008453,0.8436011904761904,0.34778133034706116,0.687326775371988
765,0.2245498150587082,0.7998511904761905,0.34781497716903687,0.6898798566484735
766,0.21761122345924377,0.8154761904761905,0.3512944281101227,0.6875819560659987
767,0.21613790094852448,0.8154761904761905,0.3593514561653137,0.6867078055907844
768,0.21717634797096252,0.8154761904761905,0.35786136984825134,0.6974582932827615
769,0.21604442596435547,0.8408203125,0.3683757185935974,0.6692813510366703
770,0.24546726047992706,0.8024553571428571,0.35520341992378235,0.6938583254806662
771,0.22754524648189545,0.830580357142857,0.35585466027259827,0.7062367877394472
772,0.22785647213459015,0.8142578125,0.3455738425254822,0.7079834197520369
773,0.22329570353031158,0.8279761904761904,0.3463490903377533,0.7001884851751873
774,0.21360141038894653,0.8311011904761905,0.34910622239112854,0.7013276420191317
775,0.21095961332321167,0.8311011904761905,0.3485611379146576,0.7002797704659406
776,0.26439568400382996,0.8434244791666666,0.5865517258644104,0.4421525976978106
777,0.3897736668586731,0.6944661458333333,0.35811299085617065,0.723367744351787
778,0.2754700779914856,0.8154761904761905,0.37705281376838684,0.6855678939854473
779,0.28722551465034485,0.7581845238095238,0.3611460328102112,0.6908478415792246
780,0.2666909098625183,0.8154761904761905,0.346017450094223,0.7007321308518115
781,0.22975881397724152,0.8311011904761905,0.35074323415756226,0.6990372364042577
782,0.22226864099502563,0.7998511904761905,0.3496783971786499,0.7037364452922963
783,0.2087346613407135,0.8623511904761905,0.3530213534832001,0.7028340355468016
784,0.20396089553833008,0.8623511904761905,0.35221973061561584,0.704814861064861
785,0.19984470307826996,0.8623511904761905,0.35359805822372437,0.6966170772686733
786,0.19691704213619232,0.8623511904761905,0.3532256782054901,0.6981948803757316
787,0.19250020384788513,0.8623511904761905,0.35537096858024597,0.6942974996831383
788,0.19019049406051636,0.8779761904761905,0.3562617003917694,0.6997643658547915
789,0.18375809490680695,0.87890625,0.35831600427627563,0.692014909834059
790,0.22754088044166565,0.8415178571428571,0.379718542098999,0.6544660604368051
791,0.23018530011177063,0.8402777777777778,0.3640098571777344,0.6878165230159913
792,0.21149642765522003,0.83203125,0.3596349060535431,0.6956732737317847
793,0.1900118887424469,0.8616536458333334,0.3542269766330719,0.699153769792068
794,0.18260952830314636,0.8893229166666666,0.35615530610084534,0.6955912832242622
795,0.17482073605060577,0.8689453125,0.3528682589530945,0.6868560064836662
796,0.1816793978214264,0.8580729166666666,0.3567883372306824,0.6894891544625588
797,0.18469727039337158,0.8585286458333333,0.3544934093952179,0.6822465231773747
798,0.17635637521743774,0.87890625,0.3575029969215393,0.685850818310925
799,0.18551978468894958,0.8705729166666666,0.3564385175704956,0.6914820482905593
800,0.18989427387714386,0.9018229166666666,0.3612525463104248,0.6898046053631159
801,0.16455663740634918,0.9269345238095237,0.3692360818386078,0.6618846219777075
802,0.1981976479291916,0.86328125,0.36566102504730225,0.6795762231267554
803,0.1982952058315277,0.8528645833333333,0.3974723517894745,0.6361974820884397
804,0.26732659339904785,0.7340494791666666,0.37307009100914,0.6469059033952653
805,0.27467069029808044,0.7825520833333334,0.40321657061576843,0.6508480324836708
806,0.33249470591545105,0.682142857142857,0.37231433391571045,0.686521311627695
807,0.24036870896816254,0.8194444444444444,0.37207499146461487,0.6841927954826894
808,0.21537473797798157,0.8363095238095237,0.3693452775478363,0.6885564415883568
809,0.23678143322467804,0.8050595238095238,0.36665859818458557,0.7174663245540908
810,0.18402910232543945,0.8936011904761905,0.3662501573562622,0.6848584064674492
811,0.18630704283714294,0.8988095238095237,0.3779376149177551,0.6822280138104607
812,0.17961697280406952,0.89453125,0.3684791028499603,0.6976910033425995
813,0.16981859505176544,0.9144345238095237,0.37219148874282837,0.6887353264347947
814,0.1765819489955902,0.9205729166666666,0.3698306381702423,0.6948396638822172
815,0.16761526465415955,0.8997395833333333,0.37499213218688965,0.6926468871947598
816,0.1618202030658722,0.9205729166666666,0.3703394830226898,0.6917525687472496
817,0.16038969159126282,0.8841145833333333,0.3809075653553009,0.675471626482265
818,0.16257216036319733,0.9049479166666666,0.36669960618019104,0.6990189725562066
819,0.15615487098693848,0.9101562499999999,0.37300798296928406,0.6896036164387229
820,0.15009787678718567,0.9309895833333333,0.377153217792511,0.6864685836228387
821,0.1489425152540207,0.9466145833333333,0.37693464756011963,0.6822330201319564
822,0.14562857151031494,0.9456845238095237,0.3779641389846802,0.6664374937513233
823,0.14586040377616882,0.9309895833333333,0.3893906772136688,0.6640595933814022
824,0.22114886343479156,0.8216145833333333,0.3897772431373596,0.6809890336220122
825,0.2588350474834442,0.7764136904761905,0.40603184700012207,0.6583979441559228
826,0.2364904284477234,0.8419270833333332,0.40437594056129456,0.6642239768702537
827,0.2842074930667877,0.666517857142857,0.3775753378868103,0.6956146695109464
828,0.2119331955909729,0.8376953125,0.3794001042842865,0.7031803873825152
829,0.18464237451553345,0.87890625,0.37772998213768005,0.6990408143865592
830,0.17441841959953308,0.8445312499999998,0.38908347487449646,0.6757174523663887
831,0.17117524147033691,0.8653645833333332,0.37278661131858826,0.7027642353706188
832,0.17913278937339783,0.8997395833333333,0.4026440382003784,0.6739064580022031
833,0.1927032172679901,0.8497395833333332,0.3889665901660919,0.7080568303839581
834,0.22061467170715332,0.8523437499999998,0.4076455235481262,0.6551011399947569
835,0.21834568679332733,0.7955729166666666,0.3812894821166992,0.6857263240108985
836,0.16618464887142181,0.9153645833333333,0.38911840319633484,0.6928148201286504
837,0.17755986750125885,0.8861979166666666,0.3828708231449127,0.696830689503562
838,0.16891734302043915,0.8789062499999999,0.3859892189502716,0.7045163293168615
839,0.20093782246112823,0.8408203125,0.4044835865497589,0.6420842652225633
840,0.28761810064315796,0.6918619791666667,0.36845889687538147,0.6993326679230939
841,0.23960065841674805,0.8346354166666666,0.3696788251399994,0.6956622116063608
842,0.20484238862991333,0.7695312499999999,0.3774944841861725,0.702068149049532
843,0.18527546525001526,0.8571428571428571,0.385669469833374,0.6864576686119243
844,0.1685517430305481,0.8841145833333333,0.3860900104045868,0.6896659738016123
845,0.18456223607063293,0.8580729166666666,0.3874582350254059,0.6854030115865223
846,0.24917757511138916,0.7917668269230769,0.4074598550796509,0.6292582811199835
847,0.25623589754104614,0.7955729166666666,0.39200693368911743,0.6959991550018146
848,0.2024001181125641,0.8424479166666666,0.38649994134902954,0.6875372283351008
849,0.19119209051132202,0.9049479166666666,0.38045307993888855,0.6887945427307128
850,0.19391262531280518,0.84765625,0.3799058794975281,0.692528643539282
851,0.1679072231054306,0.9049479166666666,0.3951384723186493,0.6980721416093763
852,0.17060627043247223,0.9049479166666666,0.39540213346481323,0.6868571519103438
853,0.16698995232582092,0.9153645833333333,0.4268433153629303,0.6558471694774888
854,0.4559077322483063,0.6898492132867132,0.47556832432746887,0.5780045437226288
855,0.35920464992523193,0.6923828124999999,0.4220798909664154,0.6468766123553362
856,0.2635634243488312,0.8038194444444444,0.39919790625572205,0.6706324300207279
857,0.27583926916122437,0.7764136904761904,0.38392239809036255,0.6835010237004921
858,0.26988062262535095,0.8129006410256411,0.3750530779361725,0.6893997728040284
859,0.22214141488075256,0.8571428571428571,0.38246214389801025,0.6749376116397395
860,0.20923097431659698,0.8580729166666666,0.38298293948173523,0.6693558436244609
861,0.20161092281341553,0.8736979166666666,0.38101258873939514,0.6701320030442374
862,0.19509635865688324,0.8736979166666666,0.3837778866291046,0.6647856674452423
863,0.1872924566268921,0.8736979166666666,0.38215896487236023,0.6634857080468783
864,0.18320606648921967,0.8841145833333333,0.38346120715141296,0.6625839305493562
865,0.178091362118721,0.8841145833333333,0.38281527161598206,0.6638655390118157
866,0.17458432912826538,0.8841145833333333,0.38368430733680725,0.6663271878830392
867,0.16979101300239563,0.8997395833333333,0.3822830617427826,0.6638884386889708
868,0.16692081093788147,0.8997395833333333,0.38310980796813965,0.664833470312194
869,0.16503414511680603,0.8997395833333333,0.37660548090934753,0.6765985472368455
870,0.16667817533016205,0.8997395833333333,0.37822166085243225,0.672005385768684
871,0.15805025398731232,0.9300595238095237,0.37953993678092957,0.6661903551531213
872,0.15428416430950165,0.9153645833333333,0.38396602869033813,0.6593434924020033
873,0.15308989584445953,0.9300595238095237,0.38606691360473633,0.6687066233608789
874,0.14779622852802277,0.8997395833333333,0.38792508840560913,0.6605484979953067
875,0.15194523334503174,0.8988095238095237,0.38188230991363525,0.6850095826159656
876,0.1462583839893341,0.8997395833333333,0.38593482971191406,0.6708373605315096
877,0.14514899253845215,0.8981119791666666,0.3848888874053955,0.6799601851064618
878,0.16027714312076569,0.8476562499999999,0.3871638774871826,0.6717423755322692
879,0.1744123101234436,0.8997395833333333,0.39309459924697876,0.6499487328077754
880,0.3026772737503052,0.71171875,0.3729230761528015,0.6936923685061983
881,0.20540277659893036,0.8476562499999999,0.3548761308193207,0.6932826452507305
882,0.17022345960140228,0.8736979166666666,0.3488572835922241,0.7112406747114196
883,0.15833963453769684,0.9040178571428571,0.3556148111820221,0.7022210964764158
884,0.14499221742153168,0.9153645833333333,0.36282917857170105,0.6898117509952616
885,0.1804327666759491,0.9049479166666666,0.38341403007507324,0.6714808138079417
886,0.21259424090385437,0.8580729166666666,0.360506534576416,0.7145770472632176
887,0.1708500236272812,0.9040178571428571,0.3548194468021393,0.7090347108565195
888,0.16919320821762085,0.8883928571428571,0.3661130964756012,0.6975462525063592
889,0.16711372137069702,0.8415178571428571,0.3646429479122162,0.7012352816608137
890,0.1646624058485031,0.8988095238095237,0.3749772310256958,0.6565989019845406
891,0.14317573606967926,0.8988095238095237,0.3666455149650574,0.6844000207829994
892,0.13737989962100983,0.8841145833333333,0.37048041820526123,0.6812469952230591
893,0.12854117155075073,0.9144345238095237,0.36978092789649963,0.6951495401761361
894,0.13333424925804138,0.9144345238095237,0.37440207600593567,0.6832946077759909
895,0.13492673635482788,0.9300595238095237,0.3727017045021057,0.6958300727050727
896,0.1302541047334671,0.9300595238095237,0.3760205805301666,0.6894752671481394
897,0.13668890297412872,0.9300595238095237,0.3721444606781006,0.7068122642723705
898,0.13720621168613434,0.9300595238095237,0.39018720388412476,0.6965016504378205
899,0.1342068910598755,0.9309895833333333,0.38005051016807556,0.7054147630344441
900,0.12153776735067368,0.9300595238095237,0.3854929804801941,0.6819774512327702
901,0.15225736796855927,0.8841145833333333,0.390296071767807,0.6865484933703019
902,0.16293008625507355,0.8824869791666666,0.39376282691955566,0.6842198773448775
903,0.1817428022623062,0.8590494791666666,0.3986857533454895,0.6771792032829268
904,0.2872077524662018,0.8413318452380952,0.39727288484573364,0.6848866483529606
905,0.296369343996048,0.7418619791666666,0.3917675018310547,0.6981405828214343
906,0.2806854546070099,0.755580357142857,0.39767736196517944,0.6991062354049945
907,0.22225363552570343,0.8597470238095237,0.3995302617549896,0.6658379637501978
908,0.23493865132331848,0.8363095238095237,0.39520880579948425,0.6937452539580198
909,0.24263359606266022,0.8102678571428571,0.4176638722419739,0.6911197628218905
910,0.21292608976364136,0.8675595238095237,0.4087463617324829,0.6882370628780206
911,0.19076980650424957,0.9189453125,0.40569618344306946,0.690986059842443
912,0.21352659165859222,0.8675595238095237,0.4173833429813385,0.6769253126699939
913,0.1892320215702057,0.8793619791666666,0.40671464800834656,0.691568534893003
914,0.17552879452705383,0.9144345238095237,0.4106951951980591,0.6756133817259704
915,0.16640251874923706,0.9196428571428571,0.4119243323802948,0.6774879715438229
916,0.24311582744121552,0.849330357142857,0.4068850576877594,0.6803976726583112
917,0.30159810185432434,0.7529761904761904,0.44484737515449524,0.623428058348271
918,0.5807221531867981,0.5998263888888888,0.4840008318424225,0.6080423998775063
919,0.46089643239974976,0.7174851190476189,0.43774300813674927,0.6498120599849323
920,0.3637513518333435,0.7496744791666665,0.4136195778846741,0.7042328042328043
921,0.30940890312194824,0.8251953125,0.40100887417793274,0.6991113102815232
922,0.29151126742362976,0.8408203125,0.39572837948799133,0.7058800422718862
923,0.27553603053092957,0.8564453125,0.39250776171684265,0.7016152566241218
924,0.2631617784500122,0.8564453125,0.3906574547290802,0.7030522037392608
925,0.25336727499961853,0.8564453125,0.3867347240447998,0.6960696571290546
926,0.2446528524160385,0.8720703125,0.3839918375015259,0.6941633158344154
927,0.23302996158599854,0.8876953125,0.3803136348724365,0.6896786554986908
928,0.22777338325977325,0.8876953125,0.38560613989830017,0.6871946245572134
929,0.20227466523647308,0.9033203125,0.38703516125679016,0.7001961251252031
930,0.1900821477174759,0.9137369791666666,0.3848119378089905,0.7066402621544465
931,0.18595483899116516,0.8976934523809523,0.3825068175792694,0.711493407433124
932,0.17818625271320343,0.8988095238095237,0.3832893669605255,0.7080433483314692
933,0.1734541803598404,0.8988095238095237,0.3833106458187103,0.7180172323080126
934,0.16939550638198853,0.8988095238095237,0.38260889053344727,0.7171643775189875
935,0.16644062101840973,0.8988095238095237,0.38219234347343445,0.7157821727458253
936,0.16393867135047913,0.9153645833333333,0.38186323642730713,0.7127209559877999
937,0.16140438616275787,0.9309895833333333,0.38072630763053894,0.7199355794258276
938,0.15952101349830627,0.9309895833333333,0.3809206485748291,0.7163838514060146
939,0.15706771612167358,0.9153645833333333,0.3806714117527008,0.7187565771829956
940,0.15591999888420105,0.9153645833333333,0.38219937682151794,0.716990888183264
941,0.15335974097251892,0.9153645833333333,0.3814115524291992,0.7197693695521709
942,0.15287594497203827,0.9153645833333333,0.3842630982398987,0.7079948236685824
943,0.1496744155883789,0.8997395833333333,0.3837691843509674,0.7088641277293758
944,0.1461247354745865,0.9153645833333333,0.38979899883270264,0.7002989502945173
945,0.1472620964050293,0.8981119791666666,0.3895762860774994,0.7106587605656755
946,0.15106043219566345,0.9092261904761904,0.3848744332790375,0.7154549641650703
947,0.1689266562461853,0.87109375,0.38406556844711304,0.7126895287533584
948,0.27671533823013306,0.8072916666666666,0.41021111607551575,0.6501133441027055
949,0.21338710188865662,0.80859375,0.37599092721939087,0.7058514643355067
950,0.19523049890995026,0.8820684523809523,0.3793657720088959,0.6901216100684185
951,0.16527539491653442,0.8971354166666666,0.37147757411003113,0.7100613477342201
952,0.15874215960502625,0.9137369791666666,0.3800542950630188,0.7000724516814942
953,0.14576706290245056,0.907986111111111,0.37370121479034424,0.7150917192539533
954,0.14719682931900024,0.8909970238095237,0.38499030470848083,0.6991880492767018
955,0.13541236519813538,0.9144345238095237,0.3832162916660309,0.7060023664278983
956,0.14222615957260132,0.9153645833333333,0.4010271430015564,0.6911696703939612
957,0.13893009722232819,0.8988095238095237,0.3889869749546051,0.7038609164672993
958,0.15380725264549255,0.8988095238095237,0.40944230556488037,0.6669111670441457
959,0.1477825939655304,0.8929036458333333,0.38660678267478943,0.7033639769411046
960,0.14610391855239868,0.9118303571428571,0.3939802348613739,0.7015142027331742
961,0.1385875940322876,0.9300595238095237,0.37863054871559143,0.7281228346121963
962,0.13741551339626312,0.9144345238095237,0.3922657072544098,0.7103620325694794
963,0.13199397921562195,0.8997395833333333,0.393507719039917,0.7088219227580925
964,0.12208696454763412,0.9153645833333333,0.4038347601890564,0.7009572995299946
965,0.16351774334907532,0.8763020833333333,0.42206916213035583,0.6447407788232253
966,0.19043801724910736,0.81875,0.4006107747554779,0.6896995237819707
967,0.1576087325811386,0.8668619791666666,0.38025689125061035,0.7084256572820401
968,0.14049170911312103,0.8962053571428571,0.39223623275756836,0.7126048001446939
969,0.1334713101387024,0.9288194444444444,0.38452577590942383,0.7175337856587858
970,0.14384660124778748,0.8909970238095237,0.38960644602775574,0.7090129698906295
971,0.14152243733406067,0.9440104166666666,0.3846534192562103,0.7251005318558508
972,0.153039813041687,0.8955078125,0.4011317193508148,0.6977123738160972
973,0.12964770197868347,0.9300595238095237,0.3847522437572479,0.7279928621417981
974,0.12559731304645538,0.9153645833333333,0.380745530128479,0.721897908041525
975,0.12054406106472015,0.9309895833333333,0.38937461376190186,0.71467747382641
976,0.14336757361888885,0.8893229166666666,0.3980053663253784,0.683766023180917
977,0.1567416936159134,0.8932291666666666,0.3834473788738251,0.7200817144833103
978,0.15422052145004272,0.8838541666666666,0.3967606723308563,0.6938686013553037
979,0.12669526040554047,0.9231770833333333,0.3827698528766632,0.7208213914729873
980,0.12563936412334442,0.9283854166666666,0.3975367248058319,0.7183963244202605
981,0.11323830485343933,0.9388020833333333,0.39176061749458313,0.7174844481759377
982,0.12022453546524048,0.921875,0.3969673812389374,0.7088277015537655
983,0.10777506232261658,0.9401041666666666,0.3916086256504059,0.7214502666364367
984,0.11337587237358093,0.9309895833333333,0.4013793170452118,0.7001158361929637
985,0.10606887936592102,0.9401041666666666,0.3938082158565521,0.7208227691339396
986,0.1113949716091156,0.9309895833333333,0.4036397337913513,0.7050947446958087
987,0.10188091546297073,0.9557291666666666,0.3968660235404968,0.7182015157813032
988,0.10464279353618622,0.9401041666666666,0.4006388783454895,0.7072429117375926
989,0.09952991455793381,0.9713541666666666,0.4010734260082245,0.7151989726191854
990,0.10728871822357178,0.9713541666666666,0.40431278944015503,0.7110655469432065
991,0.1072157546877861,0.9700520833333333,0.4001544415950775,0.7171961701615958
992,0.15591366589069366,0.8971354166666666,0.41868796944618225,0.6746295882998007
993,0.15331530570983887,0.8746744791666666,0.38042500615119934,0.7251468852266728
994,0.20993094146251678,0.8284970238095237,0.42482444643974304,0.6678769290205462
995,0.26811936497688293,0.78515625,0.4211515486240387,0.6946100904611544
996,0.23813164234161377,0.8102678571428571,0.3890143632888794,0.6817095065100385
997,0.2378472536802292,0.7738095238095237,0.38269639015197754,0.7176463430186837
998,0.16964022815227509,0.8476562499999999,0.38381925225257874,0.6864374986715408
999,0.16649216413497925,0.8668619791666666,0.3818728029727936,0.7081636640546216
