,loss,recall,val_loss,val_recall
0,1.3824142217636108,0.56640625,1.0208204984664917,0.581781914893617
1,1.1651265621185303,0.56640625,0.876147449016571,0.581781914893617
2,1.0297706127166748,0.56640625,0.8360729217529297,0.5915041371158393
3,0.9793152213096619,0.56640625,0.8031887412071228,0.7206761504190586
4,0.9161691665649414,0.6002604166666666,0.8248525857925415,0.7209093915343916
5,0.8742080330848694,0.6473214285714286,0.8245112299919128,0.7064390544443738
6,0.8225270509719849,0.7410714285714286,0.8594528436660767,0.6598150317964151
7,0.7728893756866455,0.7566964285714286,0.8415778279304504,0.5842876016812187
8,0.7265431880950928,0.7725818452380953,0.8602256774902344,0.49386087513747096
9,0.6916077733039856,0.7739109848484849,0.8369573950767517,0.48535978107786637
10,0.6532121300697327,0.7745620265151516,0.882806658744812,0.44719274765817346
11,0.6143729090690613,0.7884114583333334,0.8851414322853088,0.4465813840414906
12,0.5715576410293579,0.7854972718253969,0.8879191875457764,0.45854442543272356
13,0.5351181030273438,0.8302438446969698,0.9235818982124329,0.43460424622658683
14,0.5010620355606079,0.8927438446969698,0.9424437284469604,0.32380014439854876
15,0.47157037258148193,0.8899739583333334,0.976938009262085,0.25501836372847003
16,0.4464130997657776,0.8899739583333334,1.0045198202133179,0.2407052310376778
17,0.42501476407051086,0.8899739583333334,1.0683437585830688,0.22670563208462136
18,0.4078923165798187,0.8899739583333334,1.0610021352767944,0.23391915142580028
19,0.39340171217918396,0.8899739583333334,1.094805359840393,0.22889693147671863
20,0.3776092529296875,0.8899739583333334,1.1031464338302612,0.227254595532521
21,0.3661220073699951,0.8899739583333334,1.064325213432312,0.23356591349942404
22,0.35274338722229004,0.8899739583333334,1.0455180406570435,0.2546110277626235
23,0.34211990237236023,0.8899739583333334,1.019336223602295,0.3022174107413469
24,0.3343222737312317,0.8899739583333334,1.0176078081130981,0.2923129584166818
25,0.3282420039176941,0.8899739583333334,1.0206981897354126,0.2876483603079348
26,0.3225214183330536,0.8899739583333334,1.023375153541565,0.27769386100503124
27,0.31558647751808167,0.8899739583333334,0.9695637822151184,0.44422681017760834
28,0.30731117725372314,0.8899739583333334,0.9766761064529419,0.44188170576468466
29,0.30433031916618347,0.9063802083333333,0.9823876619338989,0.45042263366066576
30,0.2985835075378418,0.8899739583333334,0.9167378544807434,0.49831128386979456
31,0.29231885075569153,0.9063802083333333,0.9195270538330078,0.4985498499727224
32,0.2860114574432373,0.9072730654761905,0.9010868668556213,0.4985816739407166
33,0.28325966000556946,0.9072730654761905,0.8935114741325378,0.4990916151421471
34,0.28048762679100037,0.9072730654761905,0.8033132553100586,0.5012833015093654
35,0.2757437527179718,0.9072730654761905,0.9632411003112793,0.48957674122567746
36,0.27314502000808716,0.9083032852564102,0.7496007680892944,0.5036039236571153
37,0.2654760777950287,0.9072730654761905,0.8836318850517273,0.5013261502091289
38,0.26158851385116577,0.9072730654761905,0.7784038782119751,0.497610436746075
39,0.2569986581802368,0.9072730654761905,0.8614088892936707,0.5010920167303147
40,0.257854700088501,0.9083032852564102,0.7283777594566345,0.5061437252660658
41,0.25519031286239624,0.9083032852564102,0.8900634050369263,0.5000883358662613
42,0.25043079257011414,0.9083032852564102,0.702269971370697,0.5133013902960712
43,0.24251002073287964,0.9176897321428571,0.7124689221382141,0.5100986651252609
44,0.23364177346229553,0.9161157852564102,0.8266246318817139,0.5011702127659574
45,0.23867468535900116,0.9239282852564102,0.691896915435791,0.523522128482235
46,0.228451207280159,0.9173177083333334,0.6286147832870483,0.5609897071998136
47,0.22094805538654327,0.9239282852564102,0.711378812789917,0.5054175705106556
48,0.22132083773612976,0.9303385416666667,0.781890332698822,0.4993363024878982
49,0.21580399572849274,0.9303385416666667,0.6228139400482178,0.5619283641890025
50,0.21212071180343628,0.9303385416666667,0.6269789338111877,0.5652420077951992
51,0.21169781684875488,0.9303385416666667,0.6862054467201233,0.5194844753355392
52,0.2067984938621521,0.9407552083333334,0.6018829345703125,0.589379033594459
53,0.20640581846237183,0.9407552083333334,0.6817991137504578,0.5154961021051447
54,0.20487746596336365,0.9303385416666667,0.7383900284767151,0.49929770780834604
55,0.19566035270690918,0.9407552083333334,0.7124029994010925,0.49803442420463706
56,0.1985054314136505,0.9397702991452991,0.5844764709472656,0.6558141690854455
57,0.1948968768119812,0.9407552083333334,0.6565937399864197,0.5182002714582503
58,0.18766367435455322,0.9407552083333334,0.7546374201774597,0.49311016308356753
59,0.18720732629299164,0.9407552083333334,0.5884519815444946,0.6825111492132767
60,0.18605388700962067,0.9407552083333334,0.7235936522483826,0.5016053927357119
61,0.18052002787590027,0.9407552083333334,0.720581591129303,0.5007117832915705
62,0.18594501912593842,0.9407552083333334,0.5806469917297363,0.6769496746358448
63,0.19581347703933716,0.9407552083333334,1.4193273782730103,0.25652703900709223
64,0.20626993477344513,0.9407552083333334,0.6281862854957581,0.563394107370171
65,0.18693916499614716,0.9409722222222222,0.6908648014068604,0.53111777357788
66,0.18654677271842957,0.9407552083333334,0.731982409954071,0.5002858474268048
67,0.1763678640127182,0.9407552083333334,0.7080535888671875,0.4974248166136467
68,0.17394129931926727,0.9401041666666666,0.5602858066558838,0.6056793506926484
69,0.1635420322418213,0.9395532852564102,0.6779109835624695,0.5047430573760361
70,0.1580212414264679,0.9407552083333334,0.5985276699066162,0.5334763788221235
71,0.15308324992656708,0.9551782852564102,0.6818397045135498,0.5054031793659456
72,0.15111304819583893,0.9407552083333334,0.5987327694892883,0.5640936339074635
73,0.15206478536128998,0.9407552083333334,0.6492030024528503,0.5066160892889615
74,0.15463301539421082,0.9407552083333334,0.6762492060661316,0.5150240790533345
75,0.15061995387077332,0.9513888888888888,0.5877610445022583,0.5118946749664836
76,0.1435384601354599,0.9407552083333334,0.6366296410560608,0.5194481788896682
77,0.13232533633708954,0.9505208333333333,0.5919081568717957,0.5265208569995804
78,0.12795686721801758,0.951171875,0.5603203177452087,0.6113726920242875
79,0.12131255865097046,0.951171875,0.6274946928024292,0.519418328420988
80,0.11948801577091217,0.9563802083333334,0.5884838104248047,0.570243723967128
81,0.11387770622968674,0.9618055555555555,0.646140992641449,0.5034130374156972
82,0.11365384608507156,0.9670138888888888,0.5748378038406372,0.5933943076230308
83,0.10927291214466095,0.9618055555555555,0.6563437581062317,0.48967775526286195
84,0.11165578663349152,0.9672619047619048,0.5574477910995483,0.6167158909845079
85,0.11363645642995834,0.9620535714285714,0.6799293160438538,0.4771329365079367
86,0.11369835585355759,0.9620535714285714,0.5647253394126892,0.5976851581239878
87,0.10613875091075897,0.9620535714285714,0.6855756044387817,0.4639028037565275
88,0.10541520267724991,0.9675480769230769,0.5129775404930115,0.6960653029004095
89,0.09471927583217621,0.958984375,0.6354169845581055,0.49163455043774207
90,0.08560796827077866,0.96875,0.5541201233863831,0.6149807073344304
91,0.07699061185121536,0.9693287037037037,0.6162896752357483,0.5074219840443246
92,0.07600536942481995,0.9693287037037037,0.597486138343811,0.5896204047134896
93,0.07376508414745331,0.9700520833333334,0.5724380016326904,0.5179954580486495
94,0.07472600042819977,0.9693287037037037,0.5532909631729126,0.5991450457540881
95,0.071272112429142,0.9658203125,0.6149955987930298,0.48320165895963785
96,0.07534010708332062,0.96875,0.5861620306968689,0.6055883020643658
97,0.07342735677957535,0.9700520833333334,0.5455418825149536,0.5427596605522138
98,0.06643703579902649,0.9700520833333334,0.6417384743690491,0.5144484406452493
99,0.05710344761610031,0.9878472222222222,0.8576053380966187,0.4333214534677307
100,0.06558456271886826,0.9700520833333334,0.5046092867851257,0.7177993470280702
101,0.06431084126234055,0.9722222222222222,0.5791558027267456,0.5053658349137073
102,0.06370985507965088,0.9700520833333334,0.4787352979183197,0.6922672697672698
103,0.05748414993286133,0.9722222222222222,0.6103985905647278,0.49540199392149764
104,0.05533386394381523,0.9700520833333334,0.72744220495224,0.4571277594548875
105,0.04685596376657486,0.9878472222222222,0.6875895857810974,0.4599582480167592
106,0.04382452741265297,0.9878472222222222,0.48877519369125366,0.6999191465547846
107,0.046406690031290054,0.9982638888888888,1.3325644731521606,0.3936938886074529
108,0.08862314373254776,0.9557291666666666,0.450802206993103,0.6687508108518746
109,0.08840221911668777,0.9672619047619048,0.5250861048698425,0.5889521914255956
110,0.07376140356063843,0.9544270833333334,0.9268919825553894,0.38384738242451044
111,0.08139694482088089,0.9693287037037037,0.6021220684051514,0.46975480439576206
112,0.08191285282373428,0.9579650673400674,0.5669553875923157,0.5604828800041566
113,0.06529304385185242,0.9657738095238095,0.6842666268348694,0.4433966348859971
114,0.05854659527540207,0.9700520833333334,0.440836101770401,0.7596968821170947
115,0.04398113116621971,0.9895833333333334,0.4862098693847656,0.5941139012681564
116,0.03836175426840782,0.9878472222222222,0.48641884326934814,0.622327158164924
117,0.029951326549053192,1.0,0.49067941308021545,0.6057200098955419
118,0.026429809629917145,1.0,0.4786476492881775,0.6171616277733295
119,0.022620024159550667,1.0,0.46537166833877563,0.612209264336924
120,0.021252796053886414,1.0,0.4487565755844116,0.6409449770088067
121,0.019602442160248756,1.0,0.4672682583332062,0.5959221201375459
122,0.019253749400377274,1.0,0.45860299468040466,0.6282602843374119
123,0.017879605293273926,1.0,0.47777172923088074,0.5790121644509942
124,0.018170513212680817,1.0,0.44029906392097473,0.6345067024189364
125,0.016604579985141754,1.0,0.485483855009079,0.5600496799299991
126,0.01734468713402748,1.0,0.4394501745700836,0.6339748642807151
127,0.01579096168279648,1.0,0.5066559910774231,0.5404202033191394
128,0.01664159819483757,1.0,0.41867193579673767,0.6440231881987198
129,0.014977101236581802,1.0,0.5091520547866821,0.5381488217259494
130,0.015828583389520645,1.0,0.421814888715744,0.6411416115405475
131,0.013934959657490253,1.0,0.508010983467102,0.5400326869741763
132,0.014365274459123611,1.0,0.4169226586818695,0.6406571260693598
133,0.012218639254570007,1.0,0.44541817903518677,0.5984567382971637
134,0.012344976887106895,1.0,0.4364778399467468,0.621820373283139
135,0.010615570470690727,1.0,0.43222153186798096,0.6121919284419284
136,0.01090375054627657,1.0,0.43719542026519775,0.6110251745890042
137,0.009444988332688808,1.0,0.41560253500938416,0.6302944966774753
138,0.00987228937447071,1.0,0.4432855248451233,0.5956351228558673
139,0.008607396855950356,1.0,0.4112870395183563,0.6347021433058668
140,0.009169941768050194,1.0,0.44530025124549866,0.5911275662871405
141,0.007984920404851437,1.0,0.40809136629104614,0.6347021433058668
142,0.008630686439573765,1.0,0.43864646553993225,0.594267341700852
143,0.007501252461224794,1.0,0.40961095690727234,0.6324430745574361
144,0.008272088132798672,1.0,0.4387856423854828,0.5947990401048908
145,0.00713327806442976,1.0,0.4142012298107147,0.6247288472953365
146,0.007991746068000793,1.0,0.43022289872169495,0.6047628105739804
147,0.00686236098408699,1.0,0.4230034053325653,0.606181302936622
148,0.007849158719182014,1.0,0.41788485646247864,0.621119193552704
149,0.006705078296363354,1.0,0.4353925287723541,0.5926034554492001
150,0.007774577476084232,1.0,0.40352168679237366,0.6418824428132937
151,0.00663358811289072,1.0,0.46056824922561646,0.5657940355546738
152,0.007746992167085409,1.0,0.38692089915275574,0.6584311940030022
153,0.006700441241264343,1.0,0.4961891174316406,0.5413723441648974
154,0.007889701053500175,1.0,0.37243762612342834,0.6874573599174661
155,0.0068310583010315895,1.0,0.516481876373291,0.5301700909413675
156,0.007359535899013281,1.0,0.38631415367126465,0.6556895670326519
157,0.005946769844740629,1.0,0.47415661811828613,0.5473663452386855
158,0.005939454771578312,1.0,0.36977651715278625,0.6569391990003688
159,0.004747285973280668,1.0,0.40684399008750916,0.61682541995042
160,0.004377063363790512,1.0,0.3925493657588959,0.6411954775917541
161,0.003918429370969534,1.0,0.40764233469963074,0.6104652759572972
162,0.003785089123994112,1.0,0.4046604335308075,0.626850050068135
163,0.003589089261367917,1.0,0.39027220010757446,0.629142343570535
164,0.0034688008017838,1.0,0.402004599571228,0.6288077923849199
165,0.0033382391557097435,1.0,0.3899385333061218,0.6272904917186831
166,0.0032376889139413834,1.0,0.40636488795280457,0.6276864536173046
167,0.0031615979969501495,1.0,0.3866785764694214,0.6250766422308974
168,0.0030507086776196957,1.0,0.4056462347507477,0.6313015048387387
169,0.003015011316165328,1.0,0.3878612518310547,0.6246544875534236
170,0.0029051245655864477,1.0,0.4088207185268402,0.6318925213872021
171,0.0029205523896962404,1.0,0.3903846740722656,0.6213522932937826
172,0.002801339840516448,1.0,0.41000327467918396,0.6320077519013687
173,0.0028886073268949986,1.0,0.3992825746536255,0.6155702133760642
174,0.0027484793681651354,1.0,0.40754878520965576,0.6252225517784026
175,0.002947017317637801,1.0,0.40744271874427795,0.6066058941058938
176,0.0027321679517626762,1.0,0.40473121404647827,0.6372815408586683
177,0.002991115441545844,1.0,0.4242204427719116,0.5841387901893218
178,0.0026846560649573803,1.0,0.4038631319999695,0.6357098265209965
179,0.0029343594796955585,1.0,0.4366081655025482,0.5703139280931832
180,0.0025452482514083385,1.0,0.3938680589199066,0.6414706338775484
181,0.0027490262873470783,1.0,0.4296446144580841,0.5795214734044518
182,0.002330197487026453,1.0,0.39142948389053345,0.6368808457106326
183,0.002478365320712328,1.0,0.4193699061870575,0.5910268513991915
184,0.0020764933433383703,1.0,0.38316312432289124,0.640842464273315
185,0.0022019650787115097,1.0,0.40210655331611633,0.6085816591800631
186,0.0018794027855619788,1.0,0.3804641366004944,0.6388579584324262
187,0.0019810409285128117,1.0,0.40184634923934937,0.6082650431719577
188,0.0017349051777273417,1.0,0.3799731135368347,0.634263431603857
189,0.0018282214878126979,1.0,0.40026921033859253,0.6058369501853541
190,0.0016362674068659544,1.0,0.3740401268005371,0.6471873516554365
191,0.00172843795735389,1.0,0.40492191910743713,0.6040270973116714
192,0.0015704528195783496,1.0,0.37312567234039307,0.6479246880975601
193,0.001671772450208664,1.0,0.40756285190582275,0.5998306633280034
194,0.0015318236546590924,1.0,0.3713558316230774,0.6572785803636865
195,0.0016369245713576674,1.0,0.41669973731040955,0.591002321653917
196,0.0015121347969397902,1.0,0.3689492344856262,0.6617583992052075
197,0.0016287592006847262,1.0,0.4232432246208191,0.5790613248060055
198,0.0015343314735218883,1.0,0.36562904715538025,0.6654182908305246
199,0.001671559177339077,1.0,0.4338551461696625,0.5635120887780459
200,0.0016481595812365413,1.0,0.3687851130962372,0.6587020209892547
201,0.0018860158743336797,1.0,0.4677622616291046,0.5338974584320328
202,0.0021083408500999212,1.0,0.3827088177204132,0.6609525383993466
203,0.0024296750780194998,1.0,0.5107991099357605,0.5070483195882133
204,0.0034297858364880085,1.0,0.3092707097530365,0.7540074872920616
205,0.04041939973831177,0.9700520833333334,2.759005308151245,0.19372759004851195
206,0.63029944896698,0.8606270032051282,4.6020708084106445,0.2208546169649893
207,1.2472224235534668,0.6731770833333331,2.0839688777923584,0.2298488228674399
208,0.8351742029190063,0.6699218749999999,0.7535584568977356,0.45142782995176634
209,0.3557393550872803,0.8743489583333334,1.589829683303833,0.22506537985261385
210,0.3091185390949249,0.869326636904762,1.2889561653137207,0.39224412555529603
211,0.27993640303611755,0.869326636904762,1.2764012813568115,0.39804016855878604
212,0.25667041540145874,0.8776542467948718,1.2098045349121094,0.4006796094960994
213,0.24051164090633392,0.9010917467948718,1.0510166883468628,0.40076552879744426
214,0.22540628910064697,0.9295372596153847,0.9627651572227478,0.4058469918576308
215,0.21171341836452484,0.919120592948718,0.9336882829666138,0.4039072580295988
216,0.19880853593349457,0.9295372596153847,0.786471426486969,0.4139149537420819
217,0.18758319318294525,0.9295372596153847,0.7937427759170532,0.4277488759270678
218,0.18401643633842468,0.9407552083333334,0.7591215372085571,0.45766392000434586
219,0.18192574381828308,0.9295372596153847,0.7985710501670837,0.43607950314067373
220,0.18224386870861053,0.935546875,0.6983400583267212,0.4433601829612471
221,0.15977966785430908,0.9303385416666667,0.7557100057601929,0.43147790891142
222,0.15583868324756622,0.9401041666666666,0.596426784992218,0.475509967770606
223,0.1442730724811554,0.9409722222222222,0.6834669709205627,0.4558649531122937
224,0.14410339295864105,0.9516369047619048,0.6123443245887756,0.5026528431182686
225,0.14104433357715607,0.9409722222222222,0.6708249449729919,0.47505575836692854
226,0.14525410532951355,0.9516369047619048,0.7953992486000061,0.4592328745919176
227,0.15854957699775696,0.9303385416666667,0.6031851172447205,0.5240613872927703
228,0.14266327023506165,0.9407552083333334,0.6063578724861145,0.4795364844965912
229,0.12208858132362366,0.953125,0.5976484417915344,0.4795051476301479
230,0.11428550630807877,0.9544270833333334,0.5230112671852112,0.5599516736218862
231,0.10725510120391846,0.9596354166666667,0.5161222815513611,0.5669330566006098
232,0.10495738685131073,0.9596354166666667,0.4975508451461792,0.6137988902350606
233,0.10420528054237366,0.9553571428571429,0.5568926930427551,0.5115715514784662
234,0.10826566815376282,0.9589120370370371,0.5277857780456543,0.5780884083410681
235,0.11332856863737106,0.9537037037037037,0.7260984182357788,0.4321318161743699
236,0.11978742480278015,0.9678819444444444,0.496854305267334,0.6685676198309176
237,0.10622357577085495,0.9605654761904763,0.49019724130630493,0.6371450279429001
238,0.08861597627401352,0.9605654761904763,0.5265988707542419,0.5461279682689257
239,0.08594538271427155,0.9709821428571429,0.4273195266723633,0.6739484997862657
240,0.0781581774353981,0.9709821428571429,0.4391857981681824,0.6739374661981045
241,0.08055062592029572,0.9722222222222222,0.4381600618362427,0.6033539844710057
242,0.08014720678329468,0.9700520833333334,0.45608627796173096,0.6745119148975532
243,0.08527009189128876,0.9722222222222222,0.5172496438026428,0.511624339017956
244,0.08586516976356506,0.9813988095238095,0.4955262839794159,0.6292027318623065
245,0.08289984613656998,0.9722222222222222,0.4067065417766571,0.689190380147827
246,0.07003488391637802,0.9826388888888888,0.4928193688392639,0.5962374775539667
247,0.06731590628623962,0.984375,0.39086416363716125,0.6907160535485004
248,0.06444112211465836,0.9826388888888888,0.4012509882450104,0.7049441643856538
249,0.06228499859571457,0.984375,0.39584875106811523,0.6682583718487974
250,0.05957059562206268,0.984375,0.44842395186424255,0.6497934271205547
251,0.05688125640153885,0.984375,0.4270778000354767,0.631437711224945
252,0.05474766716361046,0.984375,0.4093985855579376,0.6937349662748598
253,0.05225492641329765,0.984375,0.3763539493083954,0.6845703006607261
254,0.053508613258600235,0.984375,0.4389559328556061,0.6322155508990613
255,0.05007515847682953,0.984375,0.46042394638061523,0.5764797225036583
256,0.046552419662475586,0.984375,0.40647247433662415,0.6849905925437839
257,0.044590774923563004,0.984375,0.3897608518600464,0.6604127772345856
258,0.06073179468512535,0.9739583333333334,0.33357301354408264,0.7543385849768828
259,0.051405616104602814,0.984375,0.44716358184814453,0.5808056246354115
260,0.04502643272280693,0.984375,0.3665325343608856,0.7388912146757892
261,0.033808887004852295,0.984375,0.40805670619010925,0.664250015646292
262,0.034867823123931885,0.984375,0.3429408371448517,0.7353716343742939
263,0.02822224795818329,0.984375,0.36745449900627136,0.708748372884011
264,0.026683365926146507,1.0,0.3632165789604187,0.7010543928097119
265,0.02416636422276497,1.0,0.3528985381126404,0.7358586591698295
266,0.026054849848151207,1.0,0.35667264461517334,0.7023573082748615
267,0.023290319368243217,1.0,0.35798752307891846,0.7207439452785198
268,0.02310406044125557,1.0,0.46457964181900024,0.5777301230093781
269,0.021919146180152893,1.0,0.38803812861442566,0.6773906083081612
270,0.02201688103377819,1.0,0.32749152183532715,0.7349503968253966
271,0.022098245099186897,1.0,0.3192344903945923,0.7323064268277034
272,0.035344742238521576,0.9739583333333334,0.5541450381278992,0.5072171807211701
273,0.11631353944540024,0.9127604166666667,0.9989480972290039,0.4996333362756234
274,0.20739805698394775,0.9114583333333334,1.4356269836425781,0.4145929621993456
275,0.12894847989082336,0.9308035714285714,0.38865143060684204,0.6792486419215138
276,0.05660165101289749,0.9739583333333334,0.5962938070297241,0.5438100975069061
277,0.033943191170692444,0.984375,0.39666467905044556,0.6484739177292367
278,0.023009618744254112,1.0,0.3840741515159607,0.7003114099257718
279,0.01848047599196434,1.0,0.37808069586753845,0.6843254676765315
280,0.01700042001903057,1.0,0.3643961548805237,0.7037322699955678
281,0.01476296503096819,1.0,0.3542186915874481,0.7033586631060035
282,0.014550017192959785,1.0,0.356021523475647,0.708754599419493
283,0.013035161420702934,1.0,0.3403431177139282,0.7203468709186794
284,0.013761605136096478,1.0,0.35125407576560974,0.7150576836481091
285,0.012676783837378025,1.0,0.3314470052719116,0.7259319773016583
286,0.014800961129367352,1.0,0.34700360894203186,0.711846250184016
287,0.013971291482448578,1.0,0.3317635953426361,0.7197158087184683
288,0.017932917922735214,1.0,0.3413228690624237,0.7175463937166063
289,0.016527144238352776,0.984375,0.34063225984573364,0.6869414244148286
290,0.02006218396127224,1.0,0.31929919123649597,0.7311306547077822
291,0.01604420132935047,0.984375,0.33588558435440063,0.7000904872314446
292,0.01593899168074131,1.0,0.32006266713142395,0.7336213136745049
293,0.012002118863165379,1.0,0.29580265283584595,0.7523929301588876
294,0.011354932561516762,1.0,0.3631012439727783,0.6902621044243384
295,0.008402603678405285,1.0,0.2984306216239929,0.748171309580884
296,0.007796378806233406,1.0,0.35809260606765747,0.6991031058185311
297,0.006348742637783289,1.0,0.31654801964759827,0.7360276883282201
298,0.0060989814810454845,1.0,0.3382547199726105,0.7138562476727368
299,0.005599592346698046,1.0,0.32400014996528625,0.7311942337607229
300,0.005414050538092852,1.0,0.3305596113204956,0.7174589860494114
301,0.005149137228727341,1.0,0.3246866762638092,0.7276166135873581
302,0.004984691273421049,1.0,0.32774025201797485,0.7255588678461017
303,0.004782653879374266,1.0,0.3241713047027588,0.7298922856103705
304,0.004633877892047167,1.0,0.32539430260658264,0.7298922856103705
305,0.004464162979274988,1.0,0.3230961859226227,0.729444098061119
306,0.004325194749981165,1.0,0.3242357671260834,0.7280399412447282
307,0.004173912573605776,1.0,0.32281064987182617,0.7275917536954768
308,0.004047080408781767,1.0,0.3238705098628998,0.7258187040500867
309,0.003908118233084679,1.0,0.32173967361450195,0.7256118482581245
310,0.003788198810070753,1.0,0.3235357999801636,0.7262668915993381
311,0.003661931725218892,1.0,0.32122308015823364,0.7256118482581245
312,0.0035552734043449163,1.0,0.3229314684867859,0.7239914778877542
313,0.0034377684351056814,1.0,0.3208460807800293,0.7250208317096613
314,0.003340669209137559,1.0,0.3229183852672577,0.7243946356047416
315,0.0032317338045686483,1.0,0.3209221363067627,0.7253437800379287
316,0.0031438549049198627,1.0,0.32273438572883606,0.7247576886273692
317,0.003042678814381361,1.0,0.3207739293575287,0.7245128389144344
318,0.0029632137157022953,1.0,0.3235492706298828,0.7247576886273692
319,0.0028683755081146955,1.0,0.3208659589290619,0.7262858885598245
320,0.0027928813360631466,1.0,0.32358023524284363,0.7249663033971542
321,0.002707220846787095,1.0,0.32126548886299133,0.7264871156227537
322,0.002635746030136943,1.0,0.32416921854019165,0.7249663033971542
323,0.002556061604991555,1.0,0.321416974067688,0.7247140659773635
324,0.0024894773960113525,1.0,0.3248257637023926,0.7231932537517641
325,0.0024155606515705585,1.0,0.3213720917701721,0.7247140659773635
326,0.002352676587179303,1.0,0.3258076012134552,0.721420204106374
327,0.0022844020277261734,1.0,0.32133275270462036,0.7212043369357196
328,0.0022251412738114595,1.0,0.327011376619339,0.7180767390607813
329,0.0021605854853987694,1.0,0.3219490349292755,0.7232910602990388
330,0.002105382736772299,1.0,0.32739731669425964,0.7144198241671643
331,0.0020441855303943157,1.0,0.3221588432788849,0.7199518168002208
332,0.0019943038932979107,1.0,0.3286847472190857,0.7132377910702375
333,0.0019366263877600431,1.0,0.3222929537296295,0.7199518168002208
334,0.0018911710940301418,1.0,0.3300364911556244,0.7114098613167759
335,0.0018367739394307137,1.0,0.32201507687568665,0.7145218522612137
336,0.0017958248499780893,1.0,0.33215272426605225,0.7060907123806056
337,0.0017414093017578125,1.0,0.3223601281642914,0.7128002582523857
338,0.001707154675386846,1.0,0.3336847126483917,0.7030913033971541
339,0.0016539954813197255,1.0,0.3222908079624176,0.7128509168136825
340,0.0016228941967710853,1.0,0.33611753582954407,0.7035715043427806
341,0.0015716387424618006,1.0,0.32229307293891907,0.7110778671682925
342,0.0015427262987941504,1.0,0.33742889761924744,0.7016876390945536
343,0.0014933092752471566,1.0,0.3235597610473633,0.7075317678775124
344,0.0014690114185214043,1.0,0.33930355310440063,0.7016876390945536
345,0.001420669024810195,1.0,0.32310134172439575,0.7106296796190411
346,0.0014024546835571527,1.0,0.3422989547252655,0.6999145894491635
347,0.0013530915603041649,1.0,0.3231746256351471,0.7086497741816888
348,0.0013393667759373784,1.0,0.34470367431640625,0.6981737770700532
349,0.001290600746870041,1.0,0.3230579197406769,0.7110138403755423
350,0.0012839998817071319,1.0,0.34714552760124207,0.6951546675349862
351,0.0012322855181992054,1.0,0.32392698526382446,0.7092407907301521
352,0.001230388879776001,1.0,0.34742027521133423,0.6951546675349862
353,0.0011770465644076467,1.0,0.32531389594078064,0.7092273585358689
354,0.001183387590572238,1.0,0.34928837418556213,0.6933816178895962
355,0.0011281381594017148,1.0,0.3272419273853302,0.7074543088904789
356,0.0011412107851356268,1.0,0.3504641354084015,0.6940090046871957
357,0.0010856089647859335,1.0,0.32955271005630493,0.7055704436422519
358,0.0011043765116482973,1.0,0.3516625463962555,0.6922359550418056
359,0.0010477043688297272,1.0,0.3300849199295044,0.7050131994679864
360,0.0010806785430759192,1.0,0.35489538311958313,0.6880988392025622
361,0.0010183602571487427,1.0,0.3298813998699188,0.7049491726752362
362,0.001063298201188445,1.0,0.3573319911956787,0.6814519867445394
363,0.0009989531245082617,1.0,0.33033204078674316,0.7053037826043143
364,0.001063140807673335,1.0,0.362387090921402,0.6796442987666388
365,0.0009820243576541543,1.0,0.3287430703639984,0.7035307329589241
366,0.0010613403283059597,1.0,0.3650578260421753,0.676706102211421
367,0.0009791310876607895,1.0,0.334066241979599,0.6948653685754747
368,0.0010850316612049937,1.0,0.37121886014938354,0.6767725915731233
369,0.0009670137660577893,1.0,0.3244100511074066,0.7053037826043143
370,0.0011080787517130375,1.0,0.3721476197242737,0.6744676270341161
371,0.0009987159864977002,1.0,0.3282968997955322,0.6970960402875294
372,0.001218148390762508,1.0,0.3755585849285126,0.6727857195011447
373,0.0010767916683107615,1.0,0.352430522441864,0.6830610578349935
374,0.001334390603005886,1.0,0.36898893117904663,0.6797713240266428
375,0.0010587126016616821,1.0,0.33393388986587524,0.6951863143751437
376,0.0011313093127682805,1.0,0.36522653698921204,0.6793657037407035
377,0.0012037326814606786,1.0,0.769719660282135,0.4773292039914379
378,0.02974754385650158,0.984375,0.5556474924087524,0.5608764610094397
379,1.083088994026184,0.794921875,3.4502010345458984,0.25892057755089665
380,0.8978957533836365,0.7000868055555555,1.005913257598877,0.4575092042512259
381,0.40807539224624634,0.8784722222222222,0.6745756268501282,0.4857406192113641
382,0.23946911096572876,0.9266493055555556,1.254911184310913,0.37328638658425906
383,0.2392098754644394,0.9409722222222222,0.9729074835777283,0.40157143634537296
384,0.18732798099517822,0.9451622596153847,0.8451241850852966,0.41068159578797914
385,0.18292827904224396,0.9407552083333334,0.7219328284263611,0.43495716704493337
386,0.1570833921432495,0.9459635416666667,0.6575510501861572,0.45414099739897634
387,0.14995571970939636,0.9407552083333334,0.596962034702301,0.4843540664418326
388,0.13039804995059967,0.9407552083333334,0.5717865228652954,0.5047691350217949
389,0.1215919554233551,0.951171875,0.5727657079696655,0.5109353875045365
390,0.1094098910689354,0.9630681818181818,0.5029814839363098,0.5587260749494795
391,0.09941232949495316,0.9635416666666666,0.5962295532226562,0.4878713455575159
392,0.09473053365945816,0.9693287037037037,0.4545488655567169,0.6410563121866313
393,0.085755355656147,0.9635416666666666,0.574877142906189,0.4971648642925241
394,0.07288677990436554,0.9709821428571429,0.4575606882572174,0.6460242732051241
395,0.06096877530217171,0.9700520833333334,0.5171800851821899,0.5443983169116147
396,0.05351110175251961,0.9709821428571429,0.4350270926952362,0.6829027586873332
397,0.04767017439007759,0.9709821428571429,0.5286276936531067,0.5124429018577955
398,0.04454723745584488,0.984375,0.4284535050392151,0.7269248860871202
399,0.03918972611427307,0.9826388888888888,0.5248136520385742,0.4994893940771601
