,loss,recall,val_loss,val_recall
0,0.5619869232177734,0.7200000286102295,0.6638925671577454,0.6399999856948853
1,0.3362582325935364,0.8199999928474426,0.6430190801620483,0.6399999856948853
2,0.2790229916572571,0.8799999952316284,0.5638666152954102,0.6399999856948853
3,0.23592716455459595,0.8799999952316284,0.4665383994579315,0.8700000047683716
4,0.16334275901317596,0.9300000071525574,0.7012608051300049,0.49000000953674316
5,0.16742393374443054,0.949999988079071,0.9387980103492737,0.3799999952316284
6,0.13311563432216644,0.949999988079071,1.1661403179168701,0.3799999952316284
7,0.16682285070419312,0.949999988079071,0.8235113620758057,0.3799999952316284
8,0.19146165251731873,0.9100000262260437,0.8360121250152588,0.3700000047683716
9,0.09905242919921875,0.9700000286102295,0.9249676465988159,0.36000001430511475
10,0.1603318154811859,0.9300000071525574,1.5717272758483887,0.36000001430511475
11,0.10405891388654709,0.9700000286102295,1.7609667778015137,0.36000001430511475
12,0.05578310787677765,0.9800000190734863,1.6976054906845093,0.36000001430511475
13,0.09433098882436752,0.9700000286102295,1.3706181049346924,0.4000000059604645
14,0.06087041273713112,0.9800000190734863,1.6440098285675049,0.38999998569488525
15,0.024591179564595222,1.0,0.8068577647209167,0.6200000047683716
16,0.03178365156054497,0.9900000095367432,2.1621346473693848,0.38999998569488525
17,0.05185593664646149,0.9800000190734863,3.4260475635528564,0.36000001430511475
18,0.11383514106273651,0.9800000190734863,0.45959746837615967,0.8500000238418579
19,0.034675318747758865,0.9900000095367432,0.5353524684906006,0.7799999713897705
20,0.058136168867349625,0.9800000190734863,0.3986074924468994,0.8700000047683716
21,0.043011900037527084,0.9900000095367432,0.3823665678501129,0.800000011920929
22,0.04786655306816101,1.0,0.4428359270095825,0.8399999737739563
23,0.02995550073683262,0.9900000095367432,0.6309925317764282,0.699999988079071
24,0.01675109937787056,1.0,0.5227752923965454,0.8100000023841858
25,0.011589857749640942,1.0,0.5104655623435974,0.8299999833106995
26,0.017754390835762024,0.9900000095367432,0.8683167099952698,0.6899999976158142
27,0.02177775651216507,0.9900000095367432,1.9575237035751343,0.4099999964237213
28,0.017343677580356598,0.9900000095367432,1.4931745529174805,0.4699999988079071
29,0.004694586154073477,1.0,1.2092138528823853,0.5699999928474426
30,0.02787206694483757,0.9900000095367432,0.7287523150444031,0.7300000190734863
31,0.016453461721539497,1.0,0.5094977021217346,0.8199999928474426
32,0.010485092177987099,1.0,0.5044839382171631,0.8600000143051147
33,0.0047163208946585655,1.0,0.5056421160697937,0.8600000143051147
34,0.0031877083238214254,1.0,0.7506551146507263,0.8100000023841858
35,0.013514688238501549,0.9900000095367432,0.7002589702606201,0.7900000214576721
36,0.008461284451186657,1.0,0.8001390099525452,0.7699999809265137
37,0.004577795043587685,1.0,0.5112350583076477,0.8399999737739563
38,0.02393060177564621,1.0,0.48036137223243713,0.8899999856948853
39,0.029831480234861374,0.9800000190734863,0.4469156265258789,0.8899999856948853
40,0.04312849044799805,0.9800000190734863,0.4179702699184418,0.8600000143051147
41,0.03208882361650467,0.9900000095367432,0.4590710401535034,0.8500000238418579
42,0.01178072951734066,1.0,0.5897067785263062,0.8399999737739563
43,0.01839485578238964,1.0,0.6138284802436829,0.8199999928474426
44,0.10092887282371521,0.9399999976158142,1.030206322669983,0.8399999737739563
45,0.1423771232366562,0.9200000166893005,1.1947654485702515,0.7599999904632568
46,0.08761018514633179,0.9399999976158142,0.6350929141044617,0.8500000238418579
47,0.07757799327373505,0.9599999785423279,0.6829323768615723,0.8700000047683716
48,0.03835570067167282,0.9900000095367432,0.39026421308517456,0.9100000262260437
49,0.031153451651334763,0.9900000095367432,0.5586656332015991,0.8600000143051147
50,0.01125423889607191,1.0,0.5793384313583374,0.8799999952316284
51,0.016086051240563393,1.0,0.4657305181026459,0.8899999856948853
52,0.016382673755288124,0.9900000095367432,0.45002061128616333,0.9200000166893005
53,0.02165181003510952,1.0,0.5345256924629211,0.8700000047683716
54,0.01794791966676712,0.9900000095367432,0.48358210921287537,0.8600000143051147
55,0.010666596703231335,1.0,0.4153492748737335,0.8999999761581421
56,0.0027966457419097424,1.0,0.5554603338241577,0.8600000143051147
57,0.012211468070745468,1.0,0.56894850730896,0.8600000143051147
58,0.01817743293941021,0.9900000095367432,0.6212560534477234,0.8399999737739563
59,0.01646994985640049,1.0,0.7530907988548279,0.8500000238418579
60,0.009055670350790024,1.0,0.7609789967536926,0.8500000238418579
61,0.0033794762566685677,1.0,0.6187354922294617,0.8299999833106995
62,0.01696348749101162,0.9900000095367432,0.5038105249404907,0.8600000143051147
63,0.028331205248832703,0.9900000095367432,0.4454718828201294,0.8500000238418579
64,0.024520421400666237,1.0,0.609434187412262,0.8299999833106995
65,0.05340047925710678,0.9800000190734863,0.4838222563266754,0.8700000047683716
66,0.06588201969861984,0.9800000190734863,1.5388238430023193,0.7900000214576721
67,0.13225193321704865,0.9800000190734863,1.9269272089004517,0.7300000190734863
68,0.03282277658581734,0.9800000190734863,1.2399998903274536,0.8100000023841858
69,0.04239131882786751,0.9800000190734863,1.5385785102844238,0.7599999904632568
70,0.05156964436173439,0.9900000095367432,0.9607696533203125,0.8600000143051147
71,0.005960784386843443,1.0,0.862022876739502,0.8299999833106995
72,0.009376686066389084,1.0,0.9198466539382935,0.8199999928474426
73,0.0029207253828644753,1.0,0.903922975063324,0.8500000238418579
74,0.005535281263291836,1.0,0.7960538268089294,0.8299999833106995
75,0.010666037909686565,1.0,0.9994885325431824,0.8199999928474426
76,0.0022738806437700987,1.0,1.0678682327270508,0.8199999928474426
77,0.0014967054594308138,1.0,1.022194504737854,0.8399999737739563
78,0.0029415683820843697,1.0,0.9483787417411804,0.8399999737739563
79,0.0032693278044462204,1.0,0.8837805390357971,0.8399999737739563
80,0.0010513903107494116,1.0,0.823773205280304,0.8399999737739563
81,0.0008331991848535836,1.0,0.7790806293487549,0.8399999737739563
82,0.004277994856238365,1.0,0.7223657369613647,0.8500000238418579
83,0.0017270668176934123,1.0,0.6796796917915344,0.8799999952316284
84,0.0004337460268288851,1.0,0.6594545841217041,0.8799999952316284
85,0.00422217883169651,1.0,0.6504043340682983,0.8799999952316284
86,0.001631441991776228,1.0,0.6977651119232178,0.8500000238418579
87,0.001251464826054871,1.0,0.6908596754074097,0.8399999737739563
88,0.014918381348252296,1.0,0.7831849455833435,0.8600000143051147
89,0.0019507725955918431,1.0,0.812396764755249,0.8399999737739563
90,0.006588842254132032,1.0,0.5704983472824097,0.8799999952316284
91,0.0019217218505218625,1.0,0.5612874031066895,0.8999999761581421
92,0.0011568062473088503,1.0,0.5707939863204956,0.8999999761581421
93,0.0016134496545419097,1.0,0.5748692154884338,0.9100000262260437
94,0.0004937505582347512,1.0,0.579785168170929,0.9100000262260437
95,0.000625318440143019,1.0,0.5772255659103394,0.9100000262260437
96,0.0007513694581575692,1.0,0.5697059035301208,0.9100000262260437
97,0.0003716374631039798,1.0,0.5653417110443115,0.9100000262260437
98,0.00015371492190752178,1.0,0.5641937255859375,0.9100000262260437
99,0.00038716819835826755,1.0,0.5634371042251587,0.9100000262260437
100,0.0020010434091091156,1.0,0.5497448444366455,0.9100000262260437
101,0.0009948501829057932,1.0,0.5366165637969971,0.9100000262260437
102,0.00022248810273595154,1.0,0.532270073890686,0.8999999761581421
103,0.0007038337644189596,1.0,0.532247006893158,0.8999999761581421
104,0.00048045162111520767,1.0,0.5319564938545227,0.8999999761581421
105,0.00031057646265253425,1.0,0.5320882201194763,0.8999999761581421
106,0.0007217052625492215,1.0,0.533228874206543,0.9100000262260437
107,0.00016130311996676028,1.0,0.5311799049377441,0.9100000262260437
108,0.0002244466741103679,1.0,0.5327634811401367,0.9100000262260437
109,0.0014566048048436642,1.0,0.5297380685806274,0.9100000262260437
110,0.00012182993668830022,1.0,0.5296383500099182,0.9100000262260437
111,0.0003086572978645563,1.0,0.5321171283721924,0.9100000262260437
112,0.00561579829081893,1.0,0.5165985226631165,0.9100000262260437
113,0.0005396926426328719,1.0,0.5072376132011414,0.9100000262260437
114,0.002108391374349594,1.0,0.4684547483921051,0.9200000166893005
115,0.001918512163683772,1.0,0.4552447497844696,0.8999999761581421
116,0.001655283267609775,1.0,0.45765724778175354,0.8999999761581421
117,0.00040907436050474644,1.0,0.46924346685409546,0.8999999761581421
118,0.001479571801610291,1.0,0.47801730036735535,0.9100000262260437
119,0.0003038213471882045,1.0,0.4818264842033386,0.9100000262260437
120,0.0004116658237762749,1.0,0.4830857515335083,0.9100000262260437
121,0.0029560942202806473,1.0,0.5095012187957764,0.9100000262260437
122,0.00028323798323981464,1.0,0.5457243323326111,0.9100000262260437
123,0.0006990702240727842,1.0,0.5597812533378601,0.9100000262260437
124,0.0002823704853653908,1.0,0.5619688630104065,0.9100000262260437
125,0.0001670496421866119,1.0,0.5602054595947266,0.9100000262260437
126,0.00034237102954648435,1.0,0.5618123412132263,0.9100000262260437
127,0.00018721753440331668,1.0,0.5627864003181458,0.9100000262260437
128,6.568415847141296e-05,1.0,0.5636000037193298,0.9100000262260437
129,0.001602164818905294,1.0,0.5514009594917297,0.9100000262260437
130,9.390109335072339e-05,1.0,0.5394430756568909,0.8899999856948853
131,0.0006345338188111782,1.0,0.549232542514801,0.8999999761581421
132,0.0002157988928956911,1.0,0.5620145797729492,0.8999999761581421
133,0.0002383833925705403,1.0,0.5684532523155212,0.8999999761581421
134,0.00010230857878923416,1.0,0.571910560131073,0.9100000262260437
135,0.0004324534966144711,1.0,0.5657408237457275,0.9100000262260437
136,0.0002329326089238748,1.0,0.5624915361404419,0.9100000262260437
137,9.131340630119666e-05,1.0,0.5623382925987244,0.9100000262260437
138,0.0001299404539167881,1.0,0.5635184645652771,0.9100000262260437
139,4.0259426896227524e-05,1.0,0.5651463270187378,0.9100000262260437
140,0.00017790768470149487,1.0,0.5676486492156982,0.9100000262260437
141,0.00012089134543202817,1.0,0.5691965818405151,0.9100000262260437
142,0.001622204901650548,1.0,0.6346868276596069,0.8899999856948853
143,0.0012548109516501427,1.0,0.6935914754867554,0.8899999856948853
144,0.00011573829397093505,1.0,0.7075926065444946,0.8899999856948853
145,0.0007776262355037034,1.0,0.6684932708740234,0.8999999761581421
146,0.00030194001737982035,1.0,0.6424148082733154,0.9100000262260437
147,0.0004637027159333229,1.0,0.6246485710144043,0.9100000262260437
148,0.0002215211425209418,1.0,0.611184298992157,0.8999999761581421
149,0.00018901437579188496,1.0,0.6007215976715088,0.8899999856948853
150,8.199739386327565e-05,1.0,0.5961781144142151,0.8899999856948853
151,4.256415559211746e-05,1.0,0.5945726633071899,0.8899999856948853
152,0.00041639606934040785,1.0,0.5894960165023804,0.8999999761581421
153,0.00018655699386727065,1.0,0.5906837582588196,0.8999999761581421
154,0.0004654408257920295,1.0,0.5882948637008667,0.9100000262260437
155,0.0005434007034637034,1.0,0.5832381248474121,0.9100000262260437
156,3.427817500778474e-05,1.0,0.5840284824371338,0.9100000262260437
157,0.00014071952318772674,1.0,0.5866055488586426,0.9100000262260437
158,0.00036797969369217753,1.0,0.5880629420280457,0.9100000262260437
159,0.0001572216860949993,1.0,0.5832713842391968,0.9100000262260437
160,0.0003422194276936352,1.0,0.5865187644958496,0.9100000262260437
161,5.538207551580854e-05,1.0,0.5922644138336182,0.9100000262260437
162,6.616511382162571e-05,1.0,0.5957971215248108,0.9100000262260437
163,8.390638686250895e-05,1.0,0.5980274081230164,0.9100000262260437
164,0.0001334912667516619,1.0,0.5995041728019714,0.9100000262260437
165,0.00024329576990567148,1.0,0.6022591590881348,0.9100000262260437
166,0.00047704693861305714,1.0,0.6106820702552795,0.9100000262260437
167,0.0001338153815595433,1.0,0.612701952457428,0.9100000262260437
168,8.909368625609204e-05,1.0,0.6120653748512268,0.9100000262260437
169,0.00021788067533634603,1.0,0.6111095547676086,0.9100000262260437
170,8.459898526780307e-05,1.0,0.6101638078689575,0.9100000262260437
171,3.303285120637156e-05,1.0,0.6095590591430664,0.9100000262260437
172,0.00011941070988541469,1.0,0.6097652316093445,0.9100000262260437
173,3.700828165165149e-05,1.0,0.6097277998924255,0.9100000262260437
174,5.56322920601815e-05,1.0,0.6083328723907471,0.9100000262260437
175,0.000346302316756919,1.0,0.6070414781570435,0.9100000262260437
176,0.00017157336696982384,1.0,0.6074779033660889,0.9100000262260437
177,0.0001371233374811709,1.0,0.6075026988983154,0.9100000262260437
178,4.264339440851472e-05,1.0,0.6071497797966003,0.9100000262260437
179,2.8551063223858364e-05,1.0,0.6075225472450256,0.9100000262260437
180,6.615073652938008e-05,1.0,0.6088844537734985,0.9100000262260437
181,0.0003861406585201621,1.0,0.6025887131690979,0.9100000262260437
182,4.816060027224012e-05,1.0,0.6000876426696777,0.9100000262260437
183,0.00011258508311584592,1.0,0.5997331738471985,0.9100000262260437
184,6.980828766245395e-05,1.0,0.5989576578140259,0.9100000262260437
185,0.00037664492265321314,1.0,0.5958787798881531,0.9100000262260437
186,8.681337931193411e-05,1.0,0.5954923033714294,0.9100000262260437
187,0.00016338865680154413,1.0,0.5958209037780762,0.9100000262260437
188,6.795022636651993e-05,1.0,0.5950519442558289,0.9100000262260437
189,4.9474310799269006e-05,1.0,0.5943495631217957,0.9100000262260437
190,6.498457514680922e-05,1.0,0.5957024097442627,0.9100000262260437
191,6.138268508948386e-05,1.0,0.5971460938453674,0.9100000262260437
192,4.16641341871582e-05,1.0,0.5976670980453491,0.9100000262260437
193,0.00019812709069810808,1.0,0.5998939275741577,0.9100000262260437
194,3.093040140811354e-05,1.0,0.6012157797813416,0.9100000262260437
195,6.838618719484657e-05,1.0,0.6022554636001587,0.9100000262260437
196,3.807217217399739e-05,1.0,0.6027745604515076,0.9100000262260437
197,0.00011270889808656648,1.0,0.6039997935295105,0.9100000262260437
198,5.199171573622152e-05,1.0,0.6055759191513062,0.9100000262260437
199,0.0003167389368172735,1.0,0.6070091724395752,0.9100000262260437
200,7.01172903063707e-05,1.0,0.607621431350708,0.9100000262260437
201,0.00023940313258208334,1.0,0.6098546385765076,0.9100000262260437
202,5.4690706747351214e-05,1.0,0.6112623810768127,0.9100000262260437
203,6.350203329930082e-05,1.0,0.6118475794792175,0.9100000262260437
204,0.00010097375343320891,1.0,0.6119430661201477,0.9100000262260437
205,6.983521598158404e-05,1.0,0.612316906452179,0.9100000262260437
206,9.439124551136047e-05,1.0,0.6130039095878601,0.9100000262260437
207,7.899660704424605e-05,1.0,0.6132194995880127,0.9100000262260437
208,5.346006219042465e-05,1.0,0.6134200096130371,0.9100000262260437
209,0.00011735488078556955,1.0,0.6142767071723938,0.9100000262260437
210,0.00026667441125027835,1.0,0.6163511872291565,0.9100000262260437
211,2.722186218306888e-05,1.0,0.6173873543739319,0.9100000262260437
212,3.3216114388778806e-05,1.0,0.6177815794944763,0.9100000262260437
213,0.00017127892351709306,1.0,0.6182700395584106,0.9100000262260437
214,2.4485703761456534e-05,1.0,0.6188473701477051,0.9100000262260437
215,5.231323666521348e-05,1.0,0.6189451813697815,0.9100000262260437
216,9.500801388639957e-05,1.0,0.6198295950889587,0.9100000262260437
217,6.267314165597782e-05,1.0,0.6208088994026184,0.9100000262260437
218,3.354921500431374e-05,1.0,0.6201191544532776,0.9100000262260437
219,0.00029100009123794734,1.0,0.6197683215141296,0.9100000262260437
220,0.0002065100852632895,1.0,0.6186562180519104,0.9100000262260437
221,0.00037797290133312345,1.0,0.6208649277687073,0.9100000262260437
222,0.00024032985675148666,1.0,0.6189544200897217,0.9100000262260437
223,4.556289786705747e-05,1.0,0.618268609046936,0.9100000262260437
224,0.00010684814333217219,1.0,0.6182201504707336,0.9100000262260437
225,2.8431797545636073e-05,1.0,0.617165744304657,0.9100000262260437
226,0.0001059292844729498,1.0,0.618151068687439,0.9100000262260437
227,0.03277137875556946,1.0,1.003065824508667,0.8700000047683716
228,0.09434004127979279,0.9599999785423279,3.2037618160247803,0.75
229,0.06779113411903381,0.9599999785423279,2.0440335273742676,0.7300000190734863
230,0.20082223415374756,0.9100000262260437,0.6355387568473816,0.8700000047683716
231,0.08497361838817596,0.9700000286102295,2.459690570831299,0.7400000095367432
232,0.05064215511083603,0.9800000190734863,2.7830638885498047,0.6800000071525574
233,0.06649341434240341,0.9700000286102295,4.24705696105957,0.6499999761581421
234,0.030645830556750298,0.9900000095367432,4.048431396484375,0.6600000262260437
235,0.005284326151013374,1.0,2.9591617584228516,0.6899999976158142
236,0.006948778405785561,1.0,2.069441556930542,0.7200000286102295
237,0.015084109269082546,0.9900000095367432,1.6083674430847168,0.7599999904632568
238,0.012322978116571903,1.0,1.541285753250122,0.7699999809265137
239,0.005850601010024548,1.0,1.3768240213394165,0.800000011920929
240,0.002897761994972825,1.0,1.1730003356933594,0.8199999928474426
241,0.00380885461345315,1.0,1.0006941556930542,0.8199999928474426
242,0.006098328623920679,1.0,0.8514881730079651,0.8299999833106995
243,0.0016419090097770095,1.0,0.7424172163009644,0.8700000047683716
244,0.0005932360654696822,1.0,0.674208402633667,0.8700000047683716
245,0.0010578632354736328,1.0,0.6237666010856628,0.8899999856948853
246,0.0018620998598635197,1.0,0.5845473408699036,0.8899999856948853
247,0.0020216284319758415,1.0,0.5568035244941711,0.8899999856948853
248,0.001227157306857407,1.0,0.530546247959137,0.8899999856948853
249,0.000911385694053024,1.0,0.5039661526679993,0.8899999856948853
250,0.0008394767064601183,1.0,0.48951172828674316,0.8999999761581421
251,0.0007633294444531202,1.0,0.47669342160224915,0.8999999761581421
252,0.006223849020898342,1.0,0.4294578433036804,0.8999999761581421
253,0.0006640910869464278,1.0,0.3960844874382019,0.9200000166893005
254,0.0007554054027423263,1.0,0.39409348368644714,0.9200000166893005
255,0.0007162120891734958,1.0,0.3971463143825531,0.9200000166893005
256,0.0017760097980499268,1.0,0.4042919874191284,0.9200000166893005
257,0.0005514537915587425,1.0,0.4100237190723419,0.9200000166893005
258,0.0006500168237835169,1.0,0.4150748550891876,0.9200000166893005
259,0.0009411707287654281,1.0,0.41848891973495483,0.9200000166893005
260,0.0005231702234596014,1.0,0.4209410846233368,0.9200000166893005
261,0.00023022420646157116,1.0,0.4227892756462097,0.9200000166893005
262,0.0005159567226655781,1.0,0.42557308077812195,0.9200000166893005
263,0.00027941958978772163,1.0,0.42805710434913635,0.9200000166893005
264,0.013726294972002506,0.9900000095367432,0.4084678888320923,0.9100000262260437
265,0.0015447359764948487,1.0,0.4184652268886566,0.9100000262260437
266,0.005199167877435684,1.0,0.43408989906311035,0.8999999761581421
267,0.0024164975620806217,1.0,0.45386436581611633,0.8999999761581421
268,0.0003995135775767267,1.0,0.4610940217971802,0.8999999761581421
269,0.0007146772113628685,1.0,0.46587496995925903,0.8999999761581421
270,0.004473141860216856,1.0,0.46744614839553833,0.9100000262260437
271,0.0014179520076140761,1.0,0.46186110377311707,0.8999999761581421
272,0.0007962699164636433,1.0,0.4546322524547577,0.8999999761581421
273,0.0004920409410260618,1.0,0.4538763165473938,0.8999999761581421
274,0.00031788647174835205,1.0,0.4542802572250366,0.8999999761581421
275,0.00028874073177576065,1.0,0.4531969428062439,0.9100000262260437
276,0.00020269212836865336,1.0,0.45215046405792236,0.9100000262260437
277,0.0005410416633822024,1.0,0.4516667127609253,0.9100000262260437
278,0.0011456928914412856,1.0,0.44730904698371887,0.9100000262260437
279,0.00029329705284908414,1.0,0.4458272457122803,0.9100000262260437
280,0.00031355826649814844,1.0,0.4455377459526062,0.9100000262260437
281,0.00035139586543664336,1.0,0.44617515802383423,0.9100000262260437
282,0.00023283781774807721,1.0,0.44664478302001953,0.9100000262260437
283,0.00015751463070046157,1.0,0.4461548924446106,0.9100000262260437
284,0.00029889997676946223,1.0,0.44661208987236023,0.9100000262260437
285,0.0010894329752773046,1.0,0.449100524187088,0.9100000262260437
286,0.00048005618737079203,1.0,0.4532012939453125,0.9100000262260437
287,0.00029118784004822373,1.0,0.45644012093544006,0.9100000262260437
288,0.00024542759638279676,1.0,0.45855575799942017,0.9100000262260437
289,0.00015811329649295658,1.0,0.459270179271698,0.9100000262260437
290,0.00023301631154026836,1.0,0.4599842429161072,0.9100000262260437
291,0.0017140480922535062,1.0,0.4603733718395233,0.9100000262260437
292,0.0016779749421402812,1.0,0.45949211716651917,0.9100000262260437
293,0.0006830522324889898,1.0,0.4598962366580963,0.9100000262260437
294,0.0011565429158508778,1.0,0.46194565296173096,0.9100000262260437
295,0.0002727059181779623,1.0,0.46389007568359375,0.9100000262260437
296,0.0002588954521343112,1.0,0.4651256501674652,0.9100000262260437
297,0.0001157560691353865,1.0,0.4657609164714813,0.9100000262260437
298,0.00028546949033625424,1.0,0.46649372577667236,0.9100000262260437
299,0.0002723525103647262,1.0,0.46639496088027954,0.9100000262260437
300,0.00016237581439781934,1.0,0.46678557991981506,0.9100000262260437
301,0.00028640154050663114,1.0,0.46723976731300354,0.9100000262260437
302,9.317585499957204e-05,1.0,0.467477023601532,0.9100000262260437
303,0.0002406813728157431,1.0,0.46825310587882996,0.9100000262260437
304,0.00011359159543644637,1.0,0.4688516855239868,0.9100000262260437
305,0.0013218196108937263,1.0,0.4687274992465973,0.9100000262260437
306,0.00046716013457626104,1.0,0.4702862799167633,0.9100000262260437
307,0.00011506038572406396,1.0,0.47068652510643005,0.9100000262260437
308,0.00028190985904075205,1.0,0.47137847542762756,0.9100000262260437
309,0.0001129686861531809,1.0,0.47160857915878296,0.9100000262260437
310,0.00024162344925571233,1.0,0.47280144691467285,0.9100000262260437
311,0.0003355649532750249,1.0,0.47407644987106323,0.9100000262260437
312,0.0002527196193113923,1.0,0.47528496384620667,0.9100000262260437
313,0.00011053687194362283,1.0,0.4758864641189575,0.9100000262260437
314,0.0002961134596262127,1.0,0.47630128264427185,0.9100000262260437
315,0.0003557039308361709,1.0,0.4764230251312256,0.9100000262260437
316,0.00011180021829204634,1.0,0.4765491485595703,0.9100000262260437
317,0.00012911191151943058,1.0,0.476779967546463,0.9100000262260437
318,0.00024351535830646753,1.0,0.47724664211273193,0.9100000262260437
319,0.00016843386401887983,1.0,0.4773525297641754,0.9100000262260437
320,0.0005894447676837444,1.0,0.47846782207489014,0.9100000262260437
321,0.0002508187899366021,1.0,0.47947511076927185,0.9100000262260437
322,0.00011224656191188842,1.0,0.4799705445766449,0.9100000262260437
323,0.00016148101713042706,1.0,0.4805273413658142,0.9100000262260437
324,0.00018286101112607867,1.0,0.4808201491832733,0.9100000262260437
325,0.0003191179712302983,1.0,0.48163947463035583,0.9100000262260437
326,7.181540422607213e-05,1.0,0.4815777838230133,0.9100000262260437
327,0.000613081210758537,1.0,0.48251351714134216,0.9100000262260437
328,0.000179854963789694,1.0,0.48380324244499207,0.9100000262260437
329,0.00013691684580408037,1.0,0.48452675342559814,0.9100000262260437
330,0.00013284420128911734,1.0,0.48417991399765015,0.9100000262260437
331,0.0006641349173150957,1.0,0.4840489625930786,0.9100000262260437
332,0.00019093717855866998,1.0,0.4842287302017212,0.9100000262260437
333,0.0018565556965768337,1.0,0.4881835877895355,0.9100000262260437
334,0.00011519880354171619,1.0,0.4907381534576416,0.9100000262260437
335,0.00028345867758616805,1.0,0.4920954406261444,0.9100000262260437
336,0.0008277297019958496,1.0,0.4938366413116455,0.9100000262260437
337,0.0028410600498318672,1.0,0.501203715801239,0.9200000166893005
338,8.031153993215412e-05,1.0,0.5021455883979797,0.9200000166893005
339,0.00012936473649460822,1.0,0.5027208924293518,0.9200000166893005
340,0.0005858820513822138,1.0,0.5026910901069641,0.9200000166893005
341,0.00015431623614858836,1.0,0.5020692944526672,0.9200000166893005
342,0.00016636494547128677,1.0,0.5014784336090088,0.9200000166893005
343,0.00013495972962118685,1.0,0.5012308955192566,0.9200000166893005
344,0.00021208589896559715,1.0,0.5015272498130798,0.9200000166893005
345,0.0002914356009569019,1.0,0.5014053583145142,0.9200000166893005
346,0.00015821993292775005,1.0,0.5012029409408569,0.9200000166893005
347,0.0001587328442838043,1.0,0.5006514191627502,0.9200000166893005
348,0.0005964081501588225,1.0,0.5010029673576355,0.9200000166893005
349,0.0001341129100183025,1.0,0.5005577206611633,0.9200000166893005
350,8.96096316864714e-05,1.0,0.5002113580703735,0.9200000166893005
351,9.774881618795916e-05,1.0,0.5001122951507568,0.9200000166893005
352,0.0008937654783949256,1.0,0.5001828670501709,0.9200000166893005
353,0.00013801710156258196,1.0,0.5005262494087219,0.9200000166893005
354,0.0005381865194067359,1.0,0.5014869570732117,0.9200000166893005
355,0.00010389140516053885,1.0,0.5021671652793884,0.9200000166893005
356,0.00021262442169245332,1.0,0.5017133951187134,0.9200000166893005
357,0.00042537227272987366,1.0,0.5011714696884155,0.9200000166893005
358,0.00014664446644019336,1.0,0.5002357959747314,0.9200000166893005
359,0.00029554750653915107,1.0,0.4991421401500702,0.9200000166893005
360,0.0002747515682131052,1.0,0.4985147714614868,0.9200000166893005
361,0.00044786077341996133,1.0,0.49764153361320496,0.9200000166893005
362,7.940868817968294e-05,1.0,0.49728065729141235,0.9200000166893005
363,0.0001578860537847504,1.0,0.49717506766319275,0.9200000166893005
364,0.00013902792125009,1.0,0.49723416566848755,0.9200000166893005
365,9.394277003593743e-05,1.0,0.49718964099884033,0.9200000166893005
366,0.0001857634197222069,1.0,0.49770691990852356,0.9200000166893005
367,0.00031365978065878153,1.0,0.49801337718963623,0.9200000166893005
368,0.00015253204037435353,1.0,0.49808013439178467,0.9200000166893005
369,5.008374500903301e-05,1.0,0.4980924129486084,0.9200000166893005
370,8.533054642612115e-05,1.0,0.4980924129486084,0.9200000166893005
371,0.00022719103435520083,1.0,0.4985886514186859,0.9200000166893005
372,0.00010072615259559825,1.0,0.49904289841651917,0.9200000166893005
373,0.00024146311625372618,1.0,0.4992230236530304,0.9200000166893005
374,0.00016276583482977003,1.0,0.4993795156478882,0.9200000166893005
375,0.00039356856723316014,1.0,0.49966147541999817,0.9200000166893005
376,0.00013110968575347215,1.0,0.499379426240921,0.9200000166893005
377,0.00016736345423851162,1.0,0.4998414218425751,0.9200000166893005
378,0.0001263578305952251,1.0,0.5004803538322449,0.9200000166893005
379,0.0001824839855544269,1.0,0.5014700889587402,0.9200000166893005
380,0.00017200439469888806,1.0,0.5022988319396973,0.9200000166893005
381,0.00013004201173316687,1.0,0.502442479133606,0.9200000166893005
382,0.00016668494208715856,1.0,0.5028144717216492,0.9200000166893005
383,0.00014446563727688044,1.0,0.5035001635551453,0.9200000166893005
384,0.000266949093202129,1.0,0.5044098496437073,0.9200000166893005
385,0.00022314883244689554,1.0,0.5046833753585815,0.9200000166893005
386,0.00018365685536991805,1.0,0.5048350691795349,0.9200000166893005
387,8.081315172603354e-05,1.0,0.5043874382972717,0.9200000166893005
388,0.00010406674846308306,1.0,0.5041995644569397,0.9200000166893005
389,8.856617932906374e-05,1.0,0.5038444399833679,0.9200000166893005
390,0.0005796706536784768,1.0,0.5043037533760071,0.9200000166893005
391,8.319225889863446e-05,1.0,0.5061289072036743,0.9200000166893005
392,3.97098483517766e-05,1.0,0.5064421892166138,0.9200000166893005
393,0.00017652234237175435,1.0,0.5069646239280701,0.9200000166893005
394,0.0001580413372721523,1.0,0.5071333646774292,0.9200000166893005
395,0.00019616156350821257,1.0,0.5074509978294373,0.9200000166893005
396,5.87265967624262e-05,1.0,0.5072649121284485,0.9200000166893005
397,7.494782767025754e-05,1.0,0.5073280334472656,0.9200000166893005
398,0.00011318935867166147,1.0,0.5072824358940125,0.9200000166893005
399,0.00014717684825882316,1.0,0.5080009698867798,0.9200000166893005
400,0.00014069212193135172,1.0,0.5086683630943298,0.9200000166893005
401,0.0001114857877837494,1.0,0.5086315870285034,0.9200000166893005
402,0.00015858067490626127,1.0,0.508895754814148,0.9200000166893005
403,0.0006351710762828588,1.0,0.5060901045799255,0.9200000166893005
404,0.000778502959292382,1.0,0.5038355588912964,0.9200000166893005
405,7.672666106373072e-05,1.0,0.5025094747543335,0.9200000166893005
406,4.7593042836524546e-05,1.0,0.5018574595451355,0.9100000262260437
407,0.0002227309305453673,1.0,0.5015908479690552,0.9100000262260437
408,9.345154103357345e-05,1.0,0.5016832947731018,0.9100000262260437
409,0.00044840079499408603,1.0,0.5017707347869873,0.9200000166893005
410,0.000176534173078835,1.0,0.5021066069602966,0.9200000166893005
411,0.00014914183702785522,1.0,0.5029464960098267,0.9200000166893005
412,0.0003954330750275403,1.0,0.5056218504905701,0.9200000166893005
413,9.081449388759211e-05,1.0,0.5066343545913696,0.9200000166893005
414,0.00011944853758905083,1.0,0.5072978734970093,0.9200000166893005
415,0.00016370903176721185,1.0,0.5079757571220398,0.9200000166893005
416,0.0004591172910295427,1.0,0.5100683569908142,0.9200000166893005
417,7.82205825089477e-05,1.0,0.5108940005302429,0.9200000166893005
418,0.00020199749269522727,1.0,0.5115998983383179,0.9200000166893005
419,0.00010756698611658067,1.0,0.5121592879295349,0.9200000166893005
420,0.0005844470579177141,1.0,0.5148465633392334,0.9200000166893005
421,0.0001750010997056961,1.0,0.514308512210846,0.9200000166893005
422,0.00013688841136172414,1.0,0.5140964984893799,0.9200000166893005
423,0.00014259784074965864,1.0,0.5137722492218018,0.9200000166893005
424,0.00013493634469341487,1.0,0.5134280323982239,0.9200000166893005
425,7.369309605564922e-05,1.0,0.5128928422927856,0.9200000166893005
426,0.0007862156489863992,1.0,0.5133538246154785,0.9200000166893005
427,3.6277644539950415e-05,1.0,0.5120511651039124,0.9200000166893005
428,0.00015319987141992897,1.0,0.5118786096572876,0.9200000166893005
429,0.0001589039748068899,1.0,0.5114333629608154,0.9200000166893005
430,5.348150443751365e-05,1.0,0.5110933184623718,0.9200000166893005
431,0.00018995607388205826,1.0,0.5109699368476868,0.9200000166893005
432,0.00017598042904864997,1.0,0.5100873708724976,0.9200000166893005
433,0.00021761827520094812,1.0,0.5097026228904724,0.9200000166893005
434,0.00018447004549670964,1.0,0.5094974637031555,0.9200000166893005
435,0.00015390249609481543,1.0,0.5097765326499939,0.9200000166893005
436,0.0003274736809544265,1.0,0.5092767477035522,0.9200000166893005
437,0.00016766382032074034,1.0,0.5094373822212219,0.9200000166893005
438,0.00024869927437976,1.0,0.5094043612480164,0.9200000166893005
439,0.00010983846004819497,1.0,0.5094221234321594,0.9200000166893005
440,4.280314897187054e-05,1.0,0.509178102016449,0.9200000166893005
441,0.00012403381697367877,1.0,0.5088679790496826,0.9200000166893005
442,0.0002354547323193401,1.0,0.5090476274490356,0.9200000166893005
443,0.0004083664098288864,1.0,0.5099630951881409,0.9200000166893005
444,0.0001528163265902549,1.0,0.510651707649231,0.9200000166893005
445,7.600816752528772e-05,1.0,0.5111533999443054,0.9200000166893005
446,0.0001721490698400885,1.0,0.5116764903068542,0.9200000166893005
447,0.00017316645244136453,1.0,0.5122630596160889,0.9200000166893005
448,0.00013115581532474607,1.0,0.5126293301582336,0.9200000166893005
449,0.00021025245951022953,1.0,0.5122986435890198,0.9200000166893005
450,0.00029851694125682116,1.0,0.5121678709983826,0.9200000166893005
451,0.0003155256563331932,1.0,0.5126447081565857,0.9200000166893005
452,9.851800132310018e-05,1.0,0.5127252340316772,0.9200000166893005
453,7.204832218121737e-05,1.0,0.512814462184906,0.9200000166893005
454,0.0002986753825098276,1.0,0.5131752490997314,0.9200000166893005
455,5.278983007883653e-05,1.0,0.5126513838768005,0.9200000166893005
456,0.00041424285154789686,1.0,0.5130026340484619,0.9200000166893005
457,0.0003995323204435408,1.0,0.5151275396347046,0.9200000166893005
458,9.366696031065658e-05,1.0,0.5167129039764404,0.9200000166893005
459,3.0636208975920454e-05,1.0,0.5172949433326721,0.9200000166893005
460,7.919235940789804e-05,1.0,0.5175225734710693,0.9200000166893005
461,0.0002444137935526669,1.0,0.518491268157959,0.9200000166893005
462,0.0005487264133989811,1.0,0.5178430080413818,0.9200000166893005
463,0.001219339668750763,1.0,0.5054304003715515,0.9100000262260437
464,0.00010712267976487055,1.0,0.4929710626602173,0.9100000262260437
465,5.1044065912719816e-05,1.0,0.4898311495780945,0.9100000262260437
466,3.947543154936284e-05,1.0,0.4892943501472473,0.9100000262260437
467,0.00017549458425492048,1.0,0.490070641040802,0.9100000262260437
468,0.00010556583583820611,1.0,0.490942120552063,0.9100000262260437
469,0.00021220342023298144,1.0,0.4929656684398651,0.9100000262260437
470,0.00045429440797306597,1.0,0.4947929382324219,0.9100000262260437
471,8.125416934490204e-05,1.0,0.4975055754184723,0.9100000262260437
472,0.00010256689711241052,1.0,0.49871376156806946,0.9100000262260437
473,5.746789611293934e-05,1.0,0.4991236925125122,0.9100000262260437
474,3.53035720763728e-05,1.0,0.4995570778846741,0.9100000262260437
475,8.530742343282327e-05,1.0,0.4999788701534271,0.9100000262260437
476,0.00026025131228379905,1.0,0.5004833340644836,0.9100000262260437
477,3.9185626519611105e-05,1.0,0.5008905529975891,0.9100000262260437
478,0.00014229935186449438,1.0,0.5012224316596985,0.9100000262260437
479,6.704455881845206e-05,1.0,0.5018960237503052,0.9100000262260437
480,7.839393947506323e-05,1.0,0.5024294257164001,0.9100000262260437
481,9.881957521429285e-05,1.0,0.5032183527946472,0.9100000262260437
482,0.000426335638621822,1.0,0.5042483806610107,0.9100000262260437
483,0.00017086810839828104,1.0,0.5051291584968567,0.9100000262260437
484,0.00012625043746083975,1.0,0.505351185798645,0.9100000262260437
485,0.0001253797090612352,1.0,0.5062695145606995,0.9100000262260437
486,0.00018646082025952637,1.0,0.5080375075340271,0.9100000262260437
487,4.756788621307351e-05,1.0,0.5091147422790527,0.9100000262260437
488,0.00045635103015229106,1.0,0.5093448162078857,0.9100000262260437
489,2.9062684916425496e-05,1.0,0.5092094540596008,0.9100000262260437
490,0.0002680349280126393,1.0,0.5096869468688965,0.9100000262260437
491,5.441652683657594e-05,1.0,0.5099729895591736,0.9100000262260437
492,0.00013138361100573093,1.0,0.5102120041847229,0.9100000262260437
493,0.0001724367612041533,1.0,0.5102632641792297,0.9100000262260437
494,0.00011095221270807087,1.0,0.5102871060371399,0.9100000262260437
495,0.00011073876521550119,1.0,0.510312557220459,0.9100000262260437
496,0.000750960607547313,1.0,0.5142120122909546,0.9100000262260437
497,7.907092367531732e-05,1.0,0.5163270831108093,0.9100000262260437
498,5.558679913519882e-05,1.0,0.5170724987983704,0.9100000262260437
499,9.715523628983647e-05,1.0,0.5173079967498779,0.9200000166893005
500,0.0005495881196111441,1.0,0.5196449756622314,0.9200000166893005
501,0.00018628258840180933,1.0,0.5223227143287659,0.9200000166893005
502,0.0002500816190149635,1.0,0.5245245695114136,0.9200000166893005
503,6.549029785674065e-05,1.0,0.5244298577308655,0.9200000166893005
504,0.0001344932388747111,1.0,0.5248111486434937,0.9200000166893005
505,0.0004691014182753861,1.0,0.5252079963684082,0.9200000166893005
506,4.8598129069432616e-05,1.0,0.5239588022232056,0.9200000166893005
507,8.93317919690162e-05,1.0,0.5236854553222656,0.9200000166893005
508,2.6283356419298798e-05,1.0,0.5229647755622864,0.9200000166893005
509,0.0020025393459945917,1.0,0.509283721446991,0.9200000166893005
510,9.191795834340155e-05,1.0,0.48794499039649963,0.9200000166893005
511,6.42153900116682e-05,1.0,0.4814496636390686,0.9200000166893005
512,0.00017051403119694442,1.0,0.4800281524658203,0.9200000166893005
513,0.00015887359040789306,1.0,0.4796161949634552,0.9200000166893005
514,5.869133019587025e-05,1.0,0.48015761375427246,0.9200000166893005
515,9.42010956350714e-05,1.0,0.4806167483329773,0.9200000166893005
516,4.640368570107967e-05,1.0,0.4808866083621979,0.9200000166893005
517,0.00022701035777572542,1.0,0.4814155101776123,0.9200000166893005
518,0.00019019615137949586,1.0,0.4809505045413971,0.9200000166893005
519,8.396331395488232e-05,1.0,0.4812155067920685,0.9200000166893005
520,2.1737963834311813e-05,1.0,0.48177799582481384,0.9200000166893005
521,0.00041570450412109494,1.0,0.48192211985588074,0.9200000166893005
522,4.169281601207331e-05,1.0,0.48135891556739807,0.9200000166893005
523,6.900288281030953e-05,1.0,0.4820626974105835,0.9200000166893005
524,8.478912786813453e-05,1.0,0.48324158787727356,0.9200000166893005
525,0.0005447108414955437,1.0,0.48491135239601135,0.9200000166893005
526,4.732420347863808e-05,1.0,0.48562198877334595,0.9200000166893005
527,5.586547922575846e-05,1.0,0.4868123531341553,0.9200000166893005
528,5.914659413974732e-05,1.0,0.4880007803440094,0.9200000166893005
529,9.017854608828202e-05,1.0,0.48938632011413574,0.9200000166893005
530,0.00010387466318206862,1.0,0.49033305048942566,0.9200000166893005
531,0.00018228648696094751,1.0,0.491771399974823,0.9200000166893005
532,0.00018414969963487238,1.0,0.4951283931732178,0.9200000166893005
533,0.00015415583038702607,1.0,0.4974612295627594,0.9200000166893005
534,0.00010149661102332175,1.0,0.49936598539352417,0.9200000166893005
535,9.635094465920702e-05,1.0,0.5006594061851501,0.9200000166893005
536,2.701610719668679e-05,1.0,0.5014487504959106,0.9200000166893005
537,2.6938041628454812e-05,1.0,0.5019946098327637,0.9200000166893005
538,0.0001086307893274352,1.0,0.5032682418823242,0.9200000166893005
539,0.000242385794990696,1.0,0.5059921145439148,0.9200000166893005
540,0.002311127260327339,1.0,0.4980165958404541,0.8999999761581421
541,8.687177614774555e-05,1.0,0.5009382963180542,0.8999999761581421
542,7.163969712564722e-05,1.0,0.5023139119148254,0.8899999856948853
543,0.0001606604637345299,1.0,0.49995091557502747,0.8899999856948853
544,0.00013892012066207826,1.0,0.4990006983280182,0.8899999856948853
545,0.0001541445526527241,1.0,0.4991072416305542,0.8899999856948853
546,0.00017975490482058376,1.0,0.4995225667953491,0.8899999856948853
547,0.00018035367247648537,1.0,0.5003198981285095,0.8999999761581421
548,5.811160372104496e-05,1.0,0.49985581636428833,0.8999999761581421
549,2.7544279873836786e-05,1.0,0.499846875667572,0.8999999761581421
550,0.0025146156549453735,1.0,0.4921032190322876,0.8999999761581421
551,0.00010701751307351515,1.0,0.5002312660217285,0.9200000166893005
552,8.651581447338685e-05,1.0,0.5146454572677612,0.9200000166893005
553,0.0005798202473670244,1.0,0.5247226357460022,0.9200000166893005
554,0.00031003987533040345,1.0,0.531104564666748,0.9200000166893005
555,7.620509131811559e-05,1.0,0.5364227890968323,0.9200000166893005
556,3.9400430978275836e-05,1.0,0.5403397083282471,0.9100000262260437
557,0.0001770554663380608,1.0,0.5447126626968384,0.9100000262260437
558,0.00047245805035345256,1.0,0.5527016520500183,0.9100000262260437
559,0.0005628725048154593,1.0,0.5600653886795044,0.8999999761581421
560,0.00012565229553729296,1.0,0.5603771209716797,0.8999999761581421
561,6.293832120718434e-05,1.0,0.5615992546081543,0.8999999761581421
562,8.618445281172171e-05,1.0,0.5633891820907593,0.8999999761581421
563,0.00012515853450167924,1.0,0.5650936365127563,0.8999999761581421
564,6.515230052173138e-05,1.0,0.5654793381690979,0.8999999761581421
565,8.47982446430251e-05,1.0,0.5667312741279602,0.8999999761581421
566,0.00013817459694109857,1.0,0.5672523379325867,0.8999999761581421
567,0.0006363362190313637,1.0,0.5702655911445618,0.8999999761581421
568,7.477466715499759e-05,1.0,0.5746738314628601,0.8999999761581421
569,0.00015778957458678633,1.0,0.5753834247589111,0.8999999761581421
570,0.00014070638280827552,1.0,0.5770989656448364,0.8899999856948853
571,6.807064346503466e-05,1.0,0.577033519744873,0.8899999856948853
572,7.972864113980904e-05,1.0,0.5758995413780212,0.8999999761581421
573,3.5893368476536125e-05,1.0,0.5748918056488037,0.8999999761581421
574,0.0002489000326022506,1.0,0.5747796893119812,0.8999999761581421
575,0.00010887454845942557,1.0,0.5746610760688782,0.8899999856948853
576,6.0987127653788775e-05,1.0,0.5741880536079407,0.8999999761581421
577,0.000227642958634533,1.0,0.5749335289001465,0.8899999856948853
578,6.973227573325858e-05,1.0,0.5748828649520874,0.8899999856948853
579,0.00024325396225322038,1.0,0.5754266381263733,0.8899999856948853
580,2.1939071302767843e-05,1.0,0.5738937258720398,0.8899999856948853
581,0.00010320367437088862,1.0,0.5722240209579468,0.8999999761581421
582,6.668824062217027e-05,1.0,0.5699248313903809,0.8999999761581421
583,7.167521107476205e-05,1.0,0.5683091878890991,0.8999999761581421
584,4.9483329348731786e-05,1.0,0.5680280327796936,0.8999999761581421
585,3.8715039408998564e-05,1.0,0.5670485496520996,0.8999999761581421
586,5.414614133769646e-05,1.0,0.5658895969390869,0.8999999761581421
587,0.00011402116797398776,1.0,0.5661640763282776,0.8999999761581421
588,0.0019093260634690523,1.0,0.5611369013786316,0.9100000262260437
589,0.00010757749987533316,1.0,0.5531269907951355,0.9100000262260437
590,3.786679735640064e-05,1.0,0.5520564913749695,0.9100000262260437
591,0.00010730072972364724,1.0,0.5502921342849731,0.9100000262260437
592,4.9508511438034475e-05,1.0,0.5495248436927795,0.9100000262260437
593,0.0003822114667855203,1.0,0.5497075915336609,0.9100000262260437
594,0.00018010547501035035,1.0,0.5504186153411865,0.9100000262260437
595,0.00031808839412406087,1.0,0.5514820218086243,0.9100000262260437
596,3.386028765817173e-05,1.0,0.5514419674873352,0.9100000262260437
597,0.0001274375681532547,1.0,0.5502838492393494,0.9100000262260437
598,0.00011865192936966196,1.0,0.5502912402153015,0.9100000262260437
599,5.8582547353580594e-05,1.0,0.5497050881385803,0.9100000262260437
600,7.387389632640406e-05,1.0,0.5493028163909912,0.9100000262260437
601,0.00010658144310582429,1.0,0.5483798980712891,0.9100000262260437
602,5.353449523681775e-05,1.0,0.5482747554779053,0.9100000262260437
603,0.001378530403599143,1.0,0.5290342569351196,0.9100000262260437
604,0.0002558260748628527,1.0,0.5016615390777588,0.9200000166893005
605,6.556898733833805e-05,1.0,0.4984667897224426,0.9200000166893005
606,2.1733898392994888e-05,1.0,0.49964210391044617,0.9200000166893005
607,0.00011787127004936337,1.0,0.5017389059066772,0.9200000166893005
608,4.339992665336467e-05,1.0,0.5031676888465881,0.9200000166893005
609,0.00010613727499730885,1.0,0.5053708553314209,0.9200000166893005
610,8.315505692735314e-05,1.0,0.507951557636261,0.9200000166893005
611,0.00031482704798690975,1.0,0.5129449367523193,0.9200000166893005
612,4.957032797392458e-05,1.0,0.5191001296043396,0.9200000166893005
613,1.9653947674669325e-05,1.0,0.5217938423156738,0.9200000166893005
614,4.102380626136437e-05,1.0,0.5236820578575134,0.9200000166893005
615,0.00017234824190381914,1.0,0.5270391702651978,0.9100000262260437
616,0.00028835394186899066,1.0,0.53205406665802,0.9100000262260437
617,4.933042873744853e-05,1.0,0.5345240831375122,0.9100000262260437
618,8.491119660902768e-05,1.0,0.536822497844696,0.9100000262260437
619,0.00012776543735526502,1.0,0.5391668081283569,0.9100000262260437
620,6.745109567418694e-05,1.0,0.5414479374885559,0.9100000262260437
621,0.00022226940200198442,1.0,0.542629063129425,0.9100000262260437
622,4.184577483101748e-05,1.0,0.5440718531608582,0.9100000262260437
623,6.382408901117742e-05,1.0,0.5445730090141296,0.9100000262260437
624,0.00017151841893792152,1.0,0.5461020469665527,0.9100000262260437
625,1.9763167074415833e-05,1.0,0.5460776090621948,0.9100000262260437
626,3.385899617569521e-05,1.0,0.5461557507514954,0.9100000262260437
627,5.160479850019328e-05,1.0,0.5461363196372986,0.9100000262260437
628,3.6027700843987986e-05,1.0,0.5455693602561951,0.9100000262260437
629,6.643156666541472e-05,1.0,0.5459107160568237,0.9100000262260437
630,2.473773929523304e-05,1.0,0.5456973314285278,0.9100000262260437
631,4.846034062211402e-05,1.0,0.5451404452323914,0.9100000262260437
632,0.00012540923489723355,1.0,0.5453189611434937,0.9100000262260437
633,2.2215379431145266e-05,1.0,0.5462861061096191,0.9100000262260437
634,0.00012255414912942797,1.0,0.5464061498641968,0.9100000262260437
635,4.140631790505722e-05,1.0,0.5469167232513428,0.9100000262260437
636,2.6998741304851137e-05,1.0,0.5471764206886292,0.9100000262260437
637,2.4937875423347577e-05,1.0,0.5474223494529724,0.9100000262260437
638,2.271291486977134e-05,1.0,0.547674298286438,0.9100000262260437
639,0.00023641674488317221,1.0,0.5481951236724854,0.9100000262260437
640,2.433324152661953e-05,1.0,0.5475999712944031,0.9100000262260437
641,4.686260217567906e-05,1.0,0.5476031303405762,0.9100000262260437
642,0.00020463498367462307,1.0,0.5494787096977234,0.9100000262260437
643,1.858602263382636e-05,1.0,0.5506283044815063,0.9100000262260437
644,8.115002856357023e-05,1.0,0.5514628887176514,0.9100000262260437
645,5.945349039393477e-05,1.0,0.5511528849601746,0.9100000262260437
646,8.881313988240436e-05,1.0,0.5520594716072083,0.9100000262260437
647,7.923420344013721e-05,1.0,0.5523802042007446,0.9100000262260437
648,2.3888347641332075e-05,1.0,0.5527657866477966,0.9100000262260437
649,5.112186408950947e-05,1.0,0.5531600117683411,0.9100000262260437
650,0.0005350086721591651,1.0,0.5518441200256348,0.9100000262260437
651,0.00012032149243168533,1.0,0.5538619756698608,0.9100000262260437
652,7.741423905827105e-05,1.0,0.5550501942634583,0.9100000262260437
653,2.2908332539373077e-05,1.0,0.5557668209075928,0.9100000262260437
654,2.9705621273024008e-05,1.0,0.5559742450714111,0.9100000262260437
655,0.0002592330565676093,1.0,0.5501219034194946,0.9100000262260437
656,7.407871453324333e-05,1.0,0.5476543307304382,0.9100000262260437
657,3.618465780164115e-05,1.0,0.5464470386505127,0.9100000262260437
658,0.0002929212059825659,1.0,0.5467436909675598,0.9100000262260437
659,9.623599908081815e-06,1.0,0.546094536781311,0.9100000262260437
660,7.02164979884401e-05,1.0,0.5459973812103271,0.9100000262260437
661,0.000180666203959845,1.0,0.5456779599189758,0.9100000262260437
662,5.6855125876609236e-05,1.0,0.5461868643760681,0.9100000262260437
663,5.622670869342983e-05,1.0,0.546709418296814,0.9100000262260437
664,1.4336716958496254e-05,1.0,0.5471693277359009,0.9100000262260437
665,0.0015332566108554602,1.0,0.5321560502052307,0.9200000166893005
666,0.0001671983627602458,1.0,0.5301114916801453,0.9200000166893005
667,1.484225140302442e-05,1.0,0.5308235883712769,0.9100000262260437
668,3.1192033929983154e-05,1.0,0.5313715934753418,0.9100000262260437
669,7.69446196500212e-05,1.0,0.5316627621650696,0.9100000262260437
670,0.0008086894522421062,1.0,0.5382441878318787,0.9100000262260437
671,0.00013689658953808248,1.0,0.5427781343460083,0.9100000262260437
672,0.0002122407458955422,1.0,0.5416780114173889,0.9100000262260437
673,6.171562563395128e-05,1.0,0.5380884408950806,0.9100000262260437
674,3.0685616366099566e-05,1.0,0.5361076593399048,0.9100000262260437
675,2.2661512048216537e-05,1.0,0.5356295704841614,0.9100000262260437
676,0.0004168287559878081,1.0,0.5436369180679321,0.9100000262260437
677,2.6466314011486247e-05,1.0,0.5456846952438354,0.9100000262260437
678,2.0786585082532838e-05,1.0,0.5457829833030701,0.9100000262260437
679,4.365037602838129e-05,1.0,0.5443633198738098,0.9100000262260437
680,5.23958369740285e-05,1.0,0.5437080264091492,0.9100000262260437
681,3.606636528274976e-05,1.0,0.5438649654388428,0.9100000262260437
682,0.00011340845230733976,1.0,0.5444320440292358,0.9100000262260437
683,3.609717532526702e-05,1.0,0.5442177057266235,0.9100000262260437
684,1.46203728945693e-05,1.0,0.5438071489334106,0.9100000262260437
685,5.590610089711845e-05,1.0,0.5436469912528992,0.9100000262260437
686,5.345642421161756e-05,1.0,0.5423982739448547,0.9100000262260437
687,2.456964648445137e-05,1.0,0.5418692231178284,0.9100000262260437
688,0.00014168399502523243,1.0,0.542585015296936,0.9100000262260437
689,0.00024835861404426396,1.0,0.5430238246917725,0.9200000166893005
690,2.8505024602054618e-05,1.0,0.5435065627098083,0.9200000166893005
691,0.0001837717863963917,1.0,0.5414183735847473,0.9200000166893005
692,9.231880540028214e-05,1.0,0.5409648418426514,0.9200000166893005
693,4.7427125537069514e-05,1.0,0.5407534837722778,0.9200000166893005
694,4.69802507723216e-05,1.0,0.5409572124481201,0.9200000166893005
695,2.3964465071912855e-05,1.0,0.5412339568138123,0.9200000166893005
696,6.0132035287097096e-05,1.0,0.5414518117904663,0.9200000166893005
697,4.470723797567189e-05,1.0,0.5413267612457275,0.9200000166893005
698,9.37376098590903e-05,1.0,0.5415734052658081,0.9200000166893005
699,2.85104524664348e-05,1.0,0.5412513613700867,0.9200000166893005
700,1.3038453289482277e-05,1.0,0.5405351519584656,0.9200000166893005
701,2.477892121532932e-05,1.0,0.5401657223701477,0.9200000166893005
702,2.6396008252049796e-05,1.0,0.5402248501777649,0.9200000166893005
703,5.340273128240369e-05,1.0,0.5408536791801453,0.9200000166893005
704,6.649147690040991e-05,1.0,0.5418035984039307,0.9200000166893005
705,6.731078610755503e-05,1.0,0.5420497059822083,0.9200000166893005
706,2.0971870981156826e-05,1.0,0.541599452495575,0.9200000166893005
707,2.1951014787191525e-05,1.0,0.5415643453598022,0.9200000166893005
708,2.6671334126149304e-05,1.0,0.5414115190505981,0.9200000166893005
709,9.597662574378774e-05,1.0,0.5427907705307007,0.9200000166893005
710,2.2208452719496563e-05,1.0,0.5437888503074646,0.9200000166893005
711,1.885810706880875e-05,1.0,0.5435269474983215,0.9200000166893005
712,3.0078774216235615e-05,1.0,0.5433818101882935,0.9200000166893005
713,9.688493446446955e-05,1.0,0.5444787740707397,0.9200000166893005
714,8.638859981147107e-06,1.0,0.5456994771957397,0.9200000166893005
715,4.259101115167141e-05,1.0,0.5469292402267456,0.9200000166893005
716,2.1976791686029173e-05,1.0,0.5475777387619019,0.9200000166893005
717,4.705975152319297e-05,1.0,0.5479227900505066,0.9200000166893005
718,3.2835967431310564e-05,1.0,0.5478389263153076,0.9200000166893005
719,9.360101103084162e-06,1.0,0.5474807620048523,0.9200000166893005
720,3.2033574825618416e-05,1.0,0.5472908020019531,0.9200000166893005
721,2.9682370950467885e-05,1.0,0.547451913356781,0.9200000166893005
722,0.00029800375341437757,1.0,0.550199568271637,0.9100000262260437
723,3.102585833403282e-05,1.0,0.5550317168235779,0.9100000262260437
724,1.17107956612017e-05,1.0,0.5564454793930054,0.9100000262260437
725,5.587386112893e-05,1.0,0.5580086708068848,0.9100000262260437
726,3.354145519551821e-05,1.0,0.5584808588027954,0.9100000262260437
727,2.822928763634991e-05,1.0,0.5587897896766663,0.9100000262260437
728,0.00014898071822244674,1.0,0.5574209094047546,0.9100000262260437
729,8.448825246887282e-05,1.0,0.5571089386940002,0.9100000262260437
730,0.00023537107335869223,1.0,0.5526671409606934,0.9100000262260437
731,0.0002202219911850989,1.0,0.5534340143203735,0.9100000262260437
732,2.873383527912665e-05,1.0,0.5535785555839539,0.9100000262260437
733,2.1579358872259036e-05,1.0,0.5532640218734741,0.9100000262260437
734,2.1453754015965387e-05,1.0,0.5531706213951111,0.9100000262260437
735,3.589456537156366e-05,1.0,0.5536235570907593,0.9100000262260437
736,4.4565327698364854e-05,1.0,0.5549691915512085,0.9100000262260437
737,4.152599649387412e-05,1.0,0.554814338684082,0.9100000262260437
738,0.000154024877701886,1.0,0.5558407306671143,0.9100000262260437
739,1.3492357538780198e-05,1.0,0.5562194585800171,0.9100000262260437
740,3.534977440722287e-05,1.0,0.556602418422699,0.9100000262260437
741,1.1804955647676252e-05,1.0,0.5563042759895325,0.9100000262260437
742,2.92272543447325e-05,1.0,0.5564283728599548,0.9100000262260437
743,0.0001761788735166192,1.0,0.5520845651626587,0.9100000262260437
744,2.417739960947074e-05,1.0,0.5502804517745972,0.9100000262260437
745,0.00013350577501114458,1.0,0.5523787140846252,0.9100000262260437
746,6.307103467406705e-05,1.0,0.5545662641525269,0.9100000262260437
747,0.0002654310956131667,1.0,0.5553401708602905,0.9100000262260437
748,9.25262356759049e-05,1.0,0.5553715229034424,0.9100000262260437
749,2.6583247745293193e-05,1.0,0.5558450222015381,0.9100000262260437
750,1.8311939129489474e-05,1.0,0.557230532169342,0.9100000262260437
751,1.3607116670755204e-05,1.0,0.5579861998558044,0.9100000262260437
752,6.58263297736994e-06,1.0,0.5583240389823914,0.9100000262260437
753,3.673945684568025e-05,1.0,0.5585043430328369,0.9100000262260437
754,1.574342604726553e-05,1.0,0.5588109493255615,0.9100000262260437
755,3.698696309584193e-05,1.0,0.5587477684020996,0.9100000262260437
756,1.7359210687573068e-05,1.0,0.5586147308349609,0.9100000262260437
757,2.62100511463359e-05,1.0,0.5596011877059937,0.9100000262260437
758,0.00095644302200526,1.0,0.5358949899673462,0.9200000166893005
759,4.3542528146645054e-05,1.0,0.5252201557159424,0.9200000166893005
760,3.779155304073356e-05,1.0,0.5220588445663452,0.9200000166893005
761,3.6052384530194104e-05,1.0,0.5228793621063232,0.9200000166893005
762,6.227680569281802e-05,1.0,0.5246988534927368,0.9200000166893005
763,7.614898640895262e-05,1.0,0.5271837115287781,0.9200000166893005
764,0.00042494735680520535,1.0,0.5307711362838745,0.9200000166893005
765,0.0002796808839775622,1.0,0.5392687320709229,0.9100000262260437
766,3.435220423853025e-05,1.0,0.5427901744842529,0.9100000262260437
767,4.9723366828402504e-05,1.0,0.54151850938797,0.9100000262260437
768,3.134971848339774e-05,1.0,0.5402990579605103,0.9100000262260437
769,5.364272146834992e-05,1.0,0.5409120321273804,0.9100000262260437
770,1.3627240150526632e-05,1.0,0.5401758551597595,0.9100000262260437
771,2.3971677364897914e-05,1.0,0.5404669046401978,0.9100000262260437
772,3.2778236345620826e-05,1.0,0.5404931902885437,0.9100000262260437
773,5.8103076298721135e-05,1.0,0.5414533019065857,0.9100000262260437
774,8.731771231396124e-06,1.0,0.5411731004714966,0.9100000262260437
775,1.1403154530853499e-05,1.0,0.5409113764762878,0.9100000262260437
776,9.54864954110235e-05,1.0,0.5417200326919556,0.9100000262260437
777,4.096994234714657e-05,1.0,0.5440351366996765,0.9100000262260437
778,0.00015580440231133252,1.0,0.5453327298164368,0.9100000262260437
779,9.485308510193136e-06,1.0,0.5452890992164612,0.9100000262260437
780,7.419446319545386e-06,1.0,0.5453702807426453,0.9100000262260437
781,2.9934002668596804e-05,1.0,0.5458058714866638,0.9100000262260437
782,1.38216473715147e-05,1.0,0.5461047887802124,0.9100000262260437
783,1.7729136743582785e-05,1.0,0.5464861392974854,0.9100000262260437
784,1.3216234947321936e-05,1.0,0.5469805002212524,0.9100000262260437
785,1.966875424841419e-05,1.0,0.5471290349960327,0.9100000262260437
786,1.9378281649551354e-05,1.0,0.5476506352424622,0.9100000262260437
787,1.7570369891473092e-05,1.0,0.5476818680763245,0.9100000262260437
788,1.257028452528175e-05,1.0,0.5480482578277588,0.9100000262260437
789,4.7203124267980456e-05,1.0,0.5487421154975891,0.9100000262260437
790,4.4417996832635254e-05,1.0,0.5492700934410095,0.9100000262260437
791,7.0976025199342985e-06,1.0,0.5485854744911194,0.9100000262260437
792,3.2984749850584194e-05,1.0,0.5482134819030762,0.9100000262260437
793,0.00014718090824317187,1.0,0.5509560108184814,0.8999999761581421
794,2.1013976947870106e-05,1.0,0.556210994720459,0.8999999761581421
795,2.4809442038531415e-05,1.0,0.5574033260345459,0.9100000262260437
796,0.00019352549861650914,1.0,0.5466108322143555,0.8999999761581421
797,0.00011387988342903554,1.0,0.5467913746833801,0.8999999761581421
798,6.528947778861038e-06,1.0,0.546951174736023,0.8999999761581421
799,8.843911018630024e-06,1.0,0.5470753312110901,0.8999999761581421
