,loss,recall,val_loss,val_recall
0,0.5804420113563538,0.48609693877551025,0.6453415155410767,0.3125
1,0.4502737820148468,0.7066267066267066,0.5904130339622498,0.5692557442557443
2,0.3597698509693146,0.8066267066267067,0.5333748459815979,0.8039442700156986
3,0.31323546171188354,0.8539373325087611,0.46697160601615906,0.8101800976800977
4,0.2637489140033722,0.8653885796742938,0.4281378388404846,0.8398002790859934
5,0.23713639378547668,0.8863636363636364,0.40374597907066345,0.8331392813535671
6,0.21458609402179718,0.9149350649350649,0.43397921323776245,0.8501133786848073
7,0.256719172000885,0.8628659039373325,0.46709367632865906,0.8440519797662654
8,0.18862281739711761,0.9132034632034631,0.3687376379966736,0.8643184196755626
9,0.18961726129055023,0.9090909090909091,0.39564651250839233,0.8417277167277167
10,0.15963010489940643,0.9200680272108844,0.35004472732543945,0.882766439909297
11,0.11772724241018295,0.9642857142857143,0.4553777873516083,0.8361721611721611
12,0.08936770260334015,0.9880952380952381,0.36929845809936523,0.9089285714285714
13,0.07796823233366013,0.9880952380952381,0.3560897409915924,0.8742673992673992
14,0.0638338252902031,0.9880952380952381,0.3581852912902832,0.8650226757369613
15,0.04697044566273689,1.0,0.4330821931362152,0.879482818768533
16,0.02858966588973999,1.0,0.42954114079475403,0.8779761904761904
17,0.03513671085238457,1.0,0.5591039061546326,0.8720238095238094
18,0.14231443405151367,0.937641723356009,0.4275220036506653,0.8687023294166151
19,0.12030955404043198,0.9322510822510823,0.6288992762565613,0.7688406831263974
20,0.17120398581027985,0.9732600732600734,1.240302324295044,0.8199134199134199
21,0.3464953303337097,0.8513321995464853,0.6288424730300903,0.8153671725100297
22,0.18879055976867676,0.9090909090909091,0.5257638096809387,0.8457122242836528
23,0.13743466138839722,0.9373840445269017,0.4020500183105469,0.8561834990406417
24,0.08529839664697647,1.0,0.28831857442855835,0.8912131519274376
25,0.05709170550107956,1.0,0.3289237916469574,0.8848116169544741
26,0.040867213159799576,1.0,0.3146650195121765,0.8933150183150182
27,0.026692742481827736,1.0,0.3076264560222626,0.8855442176870748
28,0.020937448367476463,1.0,0.3383592665195465,0.8796786546786546
29,0.016028011217713356,1.0,0.359330415725708,0.8933150183150182
30,0.01325445156544447,1.0,0.3559378981590271,0.8796786546786546
31,0.010601148009300232,1.0,0.380849152803421,0.8933150183150182
32,0.008679135702550411,1.0,0.4009056091308594,0.8933150183150182
33,0.007581705693155527,1.0,0.38748398423194885,0.8844405594405593
34,0.006458039861172438,1.0,0.4040365517139435,0.8933150183150182
35,0.005886315368115902,1.0,0.40799930691719055,0.8844405594405593
36,0.005370419472455978,1.0,0.40474650263786316,0.8933150183150182
37,0.004899384919553995,1.0,0.41321179270744324,0.8933150183150182
38,0.004563882015645504,1.0,0.4166608154773712,0.8844405594405593
39,0.004253898747265339,1.0,0.4179737865924835,0.8844405594405593
40,0.003970935009419918,1.0,0.42273932695388794,0.8844405594405593
41,0.0037414387334138155,1.0,0.424795925617218,0.8844405594405593
42,0.0035333384294062853,1.0,0.4265187382698059,0.8844405594405593
43,0.0033399960957467556,1.0,0.4301871955394745,0.8844405594405593
44,0.0031718737445771694,1.0,0.431686669588089,0.8844405594405593
45,0.003017971059307456,1.0,0.43296295404434204,0.8844405594405593
46,0.0028773637022823095,1.0,0.43556809425354004,0.8844405594405593
47,0.0027500458527356386,1.0,0.4371102750301361,0.8844405594405593
48,0.0026312246918678284,1.0,0.43886762857437134,0.8844405594405593
49,0.002521358896046877,1.0,0.4406765401363373,0.8844405594405593
50,0.0024197865277528763,1.0,0.44296830892562866,0.8844405594405593
51,0.0023247315548360348,1.0,0.44411593675613403,0.8844405594405593
52,0.0022368181962519884,1.0,0.44553595781326294,0.8844405594405593
53,0.0021535849664360285,1.0,0.44637298583984375,0.8844405594405593
54,0.002075740834698081,1.0,0.447665274143219,0.8844405594405593
55,0.0020031004678457975,1.0,0.44998571276664734,0.8844405594405593
56,0.001935012056492269,1.0,0.45105868577957153,0.8844405594405593
57,0.001870028325356543,1.0,0.452268123626709,0.8844405594405593
58,0.0018092179670929909,1.0,0.4537370502948761,0.8844405594405593
59,0.0017513574566692114,1.0,0.4549592137336731,0.8844405594405593
60,0.0016965226968750358,1.0,0.4560757577419281,0.8844405594405593
61,0.001644023461267352,1.0,0.4573884606361389,0.8844405594405593
62,0.0015948769869282842,1.0,0.4588751196861267,0.8844405594405593
63,0.00154830701649189,1.0,0.45984357595443726,0.8844405594405593
64,0.0015033369418233633,1.0,0.4612136483192444,0.8844405594405593
65,0.0014603573363274336,1.0,0.46259304881095886,0.8844405594405593
66,0.0014199946308508515,1.0,0.463402658700943,0.8844405594405593
67,0.0013816561549901962,1.0,0.46425408124923706,0.8844405594405593
68,0.00134434609208256,1.0,0.46575573086738586,0.8844405594405593
69,0.0013089273124933243,1.0,0.46677955985069275,0.8844405594405593
70,0.0012752384645864367,1.0,0.4677298665046692,0.8844405594405593
71,0.00124257686547935,1.0,0.46884819865226746,0.8844405594405593
72,0.0012118153972551227,1.0,0.46999913454055786,0.8844405594405593
73,0.001182014006190002,1.0,0.4709075093269348,0.8844405594405593
74,0.0011537803802639246,1.0,0.4718277156352997,0.8844405594405593
75,0.001126518240198493,1.0,0.47291645407676697,0.8844405594405593
76,0.0010997989447787404,1.0,0.4740079343318939,0.8844405594405593
77,0.0010745895560830832,1.0,0.47491833567619324,0.8844405594405593
78,0.0010505348909646273,1.0,0.47577211260795593,0.8844405594405593
79,0.0010268037440255284,1.0,0.47693267464637756,0.8844405594405593
80,0.0010041994974017143,1.0,0.47804397344589233,0.9082500832500832
81,0.0009824946755543351,1.0,0.47890058159828186,0.9082500832500832
82,0.0009613399161025882,1.0,0.48012492060661316,0.9082500832500832
83,0.0009410255588591099,1.0,0.4812708795070648,0.9082500832500832
84,0.0009212280274368823,1.0,0.482047975063324,0.9082500832500832
85,0.000902331608813256,1.0,0.48294875025749207,0.9082500832500832
86,0.0008838525391183794,1.0,0.48422202467918396,0.9082500832500832
87,0.0008660298772156239,1.0,0.4852294325828552,0.9082500832500832
88,0.0008487308514304459,1.0,0.4859864413738251,0.9082500832500832
89,0.0008321368368342519,1.0,0.4866733253002167,0.9082500832500832
90,0.0008159796125255525,1.0,0.48778071999549866,0.9082500832500832
91,0.0008001892711035907,1.0,0.48864296078681946,0.9082500832500832
92,0.0007851087138988078,1.0,0.489309698343277,0.9082500832500832
93,0.0007704023155383766,1.0,0.4903058409690857,0.9082500832500832
94,0.0007558671641163528,1.0,0.49128851294517517,0.9082500832500832
95,0.000742015487048775,1.0,0.49192333221435547,0.9082500832500832
96,0.0007284258608706295,1.0,0.4929223358631134,0.9082500832500832
97,0.0007152308826334774,1.0,0.4938131272792816,0.9082500832500832
98,0.0007023895741440356,1.0,0.4947773814201355,0.9082500832500832
99,0.0006900880835019052,1.0,0.49565690755844116,0.9082500832500832
100,0.000677809992339462,1.0,0.4964146018028259,0.9082500832500832
101,0.000666113686747849,1.0,0.4972144663333893,0.9082500832500832
102,0.0006546752410940826,1.0,0.4980841279029846,0.9082500832500832
103,0.0006434660172089934,1.0,0.498867928981781,0.9082500832500832
104,0.0006325319409370422,1.0,0.4996969699859619,0.9082500832500832
105,0.0006220680079422891,1.0,0.5005773305892944,0.9082500832500832
106,0.000611700932495296,1.0,0.5015853047370911,0.9082500832500832
107,0.0006015694816596806,1.0,0.5024582147598267,0.9082500832500832
108,0.0005919209797866642,1.0,0.503120481967926,0.9082500832500832
109,0.0005822852835990489,1.0,0.5039545297622681,0.9082500832500832
110,0.0005729099502786994,1.0,0.5046136975288391,0.9082500832500832
111,0.0005639145383611321,1.0,0.5053864121437073,0.9082500832500832
112,0.0005549689522013068,1.0,0.5060204267501831,0.9082500832500832
113,0.0005463007255457342,1.0,0.506991982460022,0.9082500832500832
114,0.0005378140485845506,1.0,0.5075750946998596,0.9082500832500832
115,0.0005295492592267692,1.0,0.5083273649215698,0.9082500832500832
116,0.0005214461125433445,1.0,0.5092847347259521,0.9082500832500832
117,0.0005134532693773508,1.0,0.5098376870155334,0.9082500832500832
118,0.0005058449460193515,1.0,0.5103060603141785,0.9082500832500832
119,0.0004982366226613522,1.0,0.5111555457115173,0.9082500832500832
120,0.0004908227710984647,1.0,0.5118359923362732,0.9082500832500832
121,0.0004836680891457945,1.0,0.5125983357429504,0.9082500832500832
122,0.00047666733735240996,1.0,0.5130468606948853,0.9082500832500832
123,0.0004697251133620739,1.0,0.5138221979141235,0.9082500832500832
124,0.00046301979455165565,1.0,0.5146503448486328,0.9082500832500832
125,0.0004564961127471179,1.0,0.5151268839836121,0.9082500832500832
126,0.00045004472485743463,1.0,0.5157963037490845,0.9082500832500832
127,0.0004436899907886982,1.0,0.5166339874267578,0.9082500832500832
128,0.00043758066021837294,1.0,0.517109751701355,0.9082500832500832
129,0.0004315743572078645,1.0,0.5177945494651794,0.9082500832500832
130,0.00042561808368191123,1.0,0.5185343623161316,0.9082500832500832
131,0.00041987752774730325,1.0,0.5193761587142944,0.9082500832500832
132,0.0004142186080571264,1.0,0.5198879837989807,0.9082500832500832
133,0.0004086310800630599,1.0,0.5205180048942566,0.9082500832500832
134,0.0004032273718621582,1.0,0.5212233662605286,0.9082500832500832
135,0.00039786615525372326,1.0,0.5218502879142761,0.9082500832500832
136,0.00039264405495487154,1.0,0.5225130915641785,0.9082500832500832
137,0.0003875303373206407,1.0,0.5230754017829895,0.9082500832500832
138,0.0003824740997515619,1.0,0.524020791053772,0.9082500832500832
139,0.00037751879426650703,1.0,0.5245189070701599,0.9082500832500832
140,0.00037269844324328005,1.0,0.5250900983810425,0.9082500832500832
141,0.00036794718471355736,1.0,0.5258337259292603,0.9082500832500832
142,0.0003632427251432091,1.0,0.5266243815422058,0.9082500832500832
143,0.00035868166014552116,1.0,0.5270927548408508,0.9082500832500832
144,0.0003542204503901303,1.0,0.5279335379600525,0.9082500832500832
145,0.0003497667785268277,1.0,0.5286774039268494,0.9082500832500832
146,0.00034541296190582216,1.0,0.5292933583259583,0.9082500832500832
147,0.0003411846118979156,1.0,0.5299585461616516,0.9082500832500832
148,0.00033694240846671164,1.0,0.5307353138923645,0.9082500832500832
149,0.0003328458406031132,1.0,0.5314728021621704,0.9082500832500832
150,0.00032878006459213793,1.0,0.53220134973526,0.9082500832500832
151,0.00032479505171068013,1.0,0.5329529047012329,0.9082500832500832
152,0.00032091321190819144,1.0,0.5336626172065735,0.9082500832500832
153,0.0003170206618960947,1.0,0.5344201326370239,0.9082500832500832
154,0.00031329612829722464,1.0,0.5352464318275452,0.9082500832500832
155,0.0003095736901741475,1.0,0.5359775424003601,0.9082500832500832
156,0.0003059065493289381,1.0,0.5365759134292603,0.9082500832500832
157,0.0003023042809218168,1.0,0.5372589826583862,0.9082500832500832
158,0.0002988072228617966,1.0,0.5382058024406433,0.9082500832500832
159,0.00029530588653869927,1.0,0.5388595461845398,0.9082500832500832
160,0.00029191302019171417,1.0,0.5394466519355774,0.9082500832500832
161,0.00028855414711870253,1.0,0.5402157306671143,0.9142024642024642
162,0.0002852463803719729,1.0,0.5411443710327148,0.9142024642024642
163,0.0002820384397637099,1.0,0.541803240776062,0.9142024642024642
164,0.0002788624260574579,1.0,0.5425034761428833,0.9142024642024642
165,0.0002757151669356972,1.0,0.5434682369232178,0.9142024642024642
166,0.0002726507664192468,1.0,0.5441954731941223,0.9142024642024642
167,0.0002696140145417303,1.0,0.544748842716217,0.9142024642024642
168,0.0002666570362634957,1.0,0.5454715490341187,0.9142024642024642
169,0.00026370855630375445,1.0,0.5462989211082458,0.9142024642024642
170,0.00026085152057930827,1.0,0.546969473361969,0.9142024642024642
171,0.00025801785523071885,1.0,0.5477635264396667,0.9142024642024642
172,0.0002552331134211272,1.0,0.5484288334846497,0.9142024642024642
173,0.00025248239398933947,1.0,0.5490986704826355,0.9142024642024642
174,0.000249794393312186,1.0,0.5498899221420288,0.9142024642024642
175,0.00024713619495742023,1.0,0.5504606366157532,0.9142024642024642
176,0.00024453323567286134,1.0,0.5512310862541199,0.9142024642024642
177,0.00024194629804696888,1.0,0.5519787073135376,0.9142024642024642
178,0.00023940714891068637,1.0,0.552521288394928,0.9142024642024642
179,0.0002368914138060063,1.0,0.5533331036567688,0.9142024642024642
180,0.00023446817067451775,1.0,0.5539551973342896,0.9142024642024642
181,0.00023201198200695217,1.0,0.5545998215675354,0.9142024642024642
182,0.00022963980154599994,1.0,0.5553396940231323,0.9142024642024642
183,0.00022730058117303997,1.0,0.5559903979301453,0.9142024642024642
184,0.0002249773096991703,1.0,0.5564938187599182,0.9142024642024642
185,0.00022272209753282368,1.0,0.5570783615112305,0.9142024642024642
186,0.00022048070968594402,1.0,0.5577929615974426,0.9142024642024642
187,0.00021826164447702467,1.0,0.5583357214927673,0.9142024642024642
188,0.00021609679970424622,1.0,0.5589151382446289,0.9142024642024642
189,0.00021393413771875203,1.0,0.5596497654914856,0.9142024642024642
190,0.00021183842909522355,1.0,0.5601564645767212,0.9142024642024642
191,0.00020975337247364223,1.0,0.5608330965042114,0.9142024642024642
192,0.00020769487309735268,1.0,0.5614580512046814,0.9142024642024642
193,0.00020566725288517773,1.0,0.5620010495185852,0.9142024642024642
194,0.00020368534023873508,1.0,0.5626254677772522,0.9142024642024642
195,0.00020170236530248076,1.0,0.5632955431938171,0.9142024642024642
196,0.00019977254851255566,1.0,0.5637853741645813,0.9142024642024642
197,0.00019785658514592797,1.0,0.5644870400428772,0.9142024642024642
198,0.00019595339836087078,1.0,0.5651425719261169,0.9142024642024642
199,0.00019410123059060425,1.0,0.5657780766487122,0.9142024642024642
200,0.00019226179574616253,1.0,0.5664332509040833,0.9142024642024642
201,0.0001904436940094456,1.0,0.5669642090797424,0.9142024642024642
202,0.00018865957099478692,1.0,0.5675953030586243,0.9142024642024642
203,0.00018688398995436728,1.0,0.5682998895645142,0.9142024642024642
204,0.00018516264390200377,1.0,0.5687738656997681,0.9142024642024642
205,0.00018343063129577786,1.0,0.56930011510849,0.9142024642024642
206,0.00018174227443523705,1.0,0.5698598027229309,0.9142024642024642
207,0.0001800793979782611,1.0,0.5704688429832458,0.9142024642024642
208,0.0001784261257853359,1.0,0.5710334181785583,0.9142024642024642
209,0.00017678667791187763,1.0,0.5715804696083069,0.9142024642024642
210,0.00017519718676339835,1.0,0.572151780128479,0.9142024642024642
211,0.00017360984929837286,1.0,0.5726115107536316,0.9142024642024642
212,0.00017204272444359958,1.0,0.5732490420341492,0.9142024642024642
213,0.00017050855967681855,1.0,0.5738322138786316,0.9142024642024642
214,0.0001689669443294406,1.0,0.5742732286453247,0.9142024642024642
215,0.00016747853078413755,1.0,0.574824869632721,0.9142024642024642
216,0.00016597624926362187,1.0,0.5755153894424438,0.9142024642024642
217,0.0001645005977479741,1.0,0.5759862661361694,0.9142024642024642
218,0.00016308024351019412,1.0,0.5765443444252014,0.9142024642024642
219,0.0001616141526028514,1.0,0.5772492289543152,0.9142024642024642
220,0.00016020335897337645,1.0,0.5777611136436462,0.9142024642024642
221,0.00015880427963566035,1.0,0.5782521367073059,0.9142024642024642
222,0.0001574073248775676,1.0,0.5787786841392517,0.9142024642024642
223,0.0001560422679176554,1.0,0.5793653130531311,0.9142024642024642
224,0.0001546910498291254,1.0,0.5799595713615417,0.9142024642024642
225,0.00015335473290178925,1.0,0.5805413126945496,0.9142024642024642
226,0.00015202902432065457,1.0,0.5810438990592957,0.9142024642024642
227,0.00015072993119247258,1.0,0.5817090272903442,0.9142024642024642
228,0.0001494457246735692,1.0,0.5821006894111633,0.9142024642024642
229,0.0001481710933148861,1.0,0.5827304720878601,0.9142024642024642
230,0.00014691453543491662,1.0,0.5832872986793518,0.9142024642024642
231,0.00014567501784767956,1.0,0.5838152170181274,0.9142024642024642
232,0.00014444184489548206,1.0,0.584304928779602,0.9142024642024642
233,0.00014323850336950272,1.0,0.5849285125732422,0.9142024642024642
234,0.00014203407044988126,1.0,0.5854220390319824,0.9142024642024642
235,0.00014085623843129724,1.0,0.5858282446861267,0.9142024642024642
236,0.00013966242840979248,1.0,0.5864956974983215,0.9142024642024642
237,0.00013851439871359617,1.0,0.5868249535560608,0.9142024642024642
238,0.0001373567502014339,1.0,0.5873923897743225,0.9142024642024642
239,0.00013623316772282124,1.0,0.5879217982292175,0.9142024642024642
240,0.0001351085229543969,1.0,0.5883809328079224,0.9142024642024642
241,0.0001339976879535243,1.0,0.5888274312019348,0.9142024642024642
242,0.000132908156956546,1.0,0.5894055962562561,0.9142024642024642
243,0.00013181754911784083,1.0,0.5899170637130737,0.9142024642024642
244,0.0001307524653384462,1.0,0.5902451872825623,0.9142024642024642
245,0.00012968952069059014,1.0,0.5907602310180664,0.9142024642024642
246,0.00012864464952144772,1.0,0.5912399888038635,0.9142024642024642
247,0.0001275997783523053,1.0,0.5916785597801208,0.9142024642024642
248,0.00012658789637498558,1.0,0.5921370387077332,0.9142024642024642
249,0.0001255696261068806,1.0,0.5926731824874878,0.9142024642024642
250,0.00012457581760827452,1.0,0.5931135416030884,0.9142024642024642
251,0.00012358519597910345,1.0,0.5935198068618774,0.9142024642024642
252,0.00012260096264071763,1.0,0.594077467918396,0.9142024642024642
253,0.00012162736675236374,1.0,0.5944229364395142,0.9142024642024642
254,0.00012067932402715087,1.0,0.5950010418891907,0.9142024642024642
255,0.00011973019718425348,1.0,0.5955390930175781,0.9142024642024642
256,0.00011878638906637207,1.0,0.5959092378616333,0.9142024642024642
257,0.0001178691818495281,1.0,0.5962955355644226,0.9142024642024642
258,0.00011694450950017199,1.0,0.5967928767204285,0.9142024642024642
259,0.0001160411411547102,1.0,0.5972098708152771,0.9142024642024642
260,0.00011514413927216083,1.0,0.5976444482803345,0.9142024642024642
261,0.00011425140110077336,1.0,0.5982131958007812,0.9142024642024642
262,0.00011337141768308356,1.0,0.5986312031745911,0.9142024642024642
263,0.00011249569797655568,1.0,0.59912109375,0.9142024642024642
264,0.00011163061572005972,1.0,0.5995567440986633,0.9142024642024642
265,0.00011077722592744976,1.0,0.5999767184257507,0.9142024642024642
266,0.00010992598254233599,1.0,0.6005158424377441,0.9142024642024642
267,0.00010909599222941324,1.0,0.6009202599525452,0.9142024642024642
268,0.00010828091762959957,1.0,0.6013545989990234,0.9142024642024642
269,0.00010744987957878038,1.0,0.6018877625465393,0.9142024642024642
270,0.00010663798457244411,1.0,0.6022520065307617,0.9142024642024642
271,0.00010583353287074715,1.0,0.6026752591133118,0.9142024642024642
272,0.00010504505917197093,1.0,0.6031028628349304,0.9142024642024642
273,0.00010426615335745737,1.0,0.6035948395729065,0.9142024642024642
274,0.00010348085925215855,1.0,0.6039649248123169,0.9142024642024642
275,0.00010271258361171931,1.0,0.6043156385421753,0.9142024642024642
276,0.00010196240327786654,1.0,0.6048192977905273,0.9142024642024642
277,0.00010120476508745924,1.0,0.6052418351173401,0.9142024642024642
278,0.00010046203533420339,1.0,0.6056684255599976,0.9142024642024642
279,9.971715917345136e-05,1.0,0.6060546636581421,0.9142024642024642
280,9.898718417389318e-05,1.0,0.6064392924308777,0.9142024642024642
281,9.826361201703548e-05,1.0,0.6069784760475159,0.9142024642024642
282,9.755278733791783e-05,1.0,0.6073108911514282,0.9142024642024642
283,9.68536696746014e-05,1.0,0.6076703667640686,0.9142024642024642
284,9.613858856027946e-05,1.0,0.608299732208252,0.9142024642024642
285,9.545969805913046e-05,1.0,0.6086015701293945,0.9142024642024642
286,9.475951083004475e-05,1.0,0.6090092658996582,0.9142024642024642
287,9.408061305293813e-05,1.0,0.6094921827316284,0.9142024642024642
288,9.341447002952918e-05,1.0,0.6098467707633972,0.9142024642024642
289,9.274301555706188e-05,1.0,0.6102712750434875,0.9142024642024642
290,9.208433766616508e-05,1.0,0.6108056306838989,0.9142024642024642
291,9.1436282673385e-05,1.0,0.6111175417900085,0.9142024642024642
292,9.078823495656252e-05,1.0,0.611584484577179,0.9142024642024642
293,9.014976239996031e-05,1.0,0.6120142340660095,0.9142024642024642
294,8.951448398875073e-05,1.0,0.6126132011413574,0.9142024642024642
295,8.888984302757308e-05,1.0,0.6129259467124939,0.9142024642024642
296,8.82705207914114e-05,1.0,0.6133098602294922,0.9142024642024642
297,8.765013626543805e-05,1.0,0.6138179898262024,0.9142024642024642
298,8.703720232006162e-05,1.0,0.614199161529541,0.9142024642024642
299,8.643169712740928e-05,1.0,0.614704430103302,0.9142024642024642
300,8.583365706726909e-05,1.0,0.6151092648506165,0.9142024642024642
301,8.524946315446869e-05,1.0,0.6154657602310181,0.9142024642024642
302,8.466844155918807e-05,1.0,0.6159253120422363,0.9142024642024642
303,8.409167639911175e-05,1.0,0.6163327097892761,0.9142024642024642
304,8.351916767423972e-05,1.0,0.6167716979980469,0.9142024642024642
305,8.294240979012102e-05,1.0,0.6171488761901855,0.9142024642024642
306,8.237947622546926e-05,1.0,0.6175767779350281,0.9142024642024642
307,8.182186138583347e-05,1.0,0.6180038452148438,0.9142024642024642
308,8.126105240080506e-05,1.0,0.6183511018753052,0.9142024642024642
309,8.071835327427834e-05,1.0,0.6187852025032043,0.9142024642024642
310,8.016711944947019e-05,1.0,0.619174599647522,0.9142024642024642
311,7.963398093124852e-05,1.0,0.6195988655090332,0.9142024642024642
312,7.909658597782254e-05,1.0,0.6199792623519897,0.9142024642024642
313,7.85698284744285e-05,1.0,0.6204096078872681,0.9142024642024642
314,7.804733468219638e-05,1.0,0.6208376884460449,0.9142024642024642
315,7.7518452599179e-05,1.0,0.6212092041969299,0.9142024642024642
316,7.701084541622549e-05,1.0,0.621616542339325,0.9142024642024642
317,7.651069608982652e-05,1.0,0.6220306754112244,0.9142024642024642
318,7.599351374665275e-05,1.0,0.6224948763847351,0.9142024642024642
319,7.549441943410784e-05,1.0,0.6228744387626648,0.9142024642024642
320,7.500597712351009e-05,1.0,0.6233259439468384,0.9142024642024642
321,7.450369594153017e-05,1.0,0.6237426400184631,0.9142024642024642
322,7.402055052807555e-05,1.0,0.6242183446884155,0.9142024642024642
323,7.351826934609562e-05,1.0,0.6246267557144165,0.9142024642024642
324,7.30489773559384e-05,1.0,0.6251134872436523,0.9142024642024642
325,7.256477692862973e-05,1.0,0.6254484057426453,0.9142024642024642
326,7.208802708191797e-05,1.0,0.6259227395057678,0.9142024642024642
327,7.162512338254601e-05,1.0,0.6262995004653931,0.9142024642024642
328,7.116433698683977e-05,1.0,0.6266890168190002,0.9142024642024642
329,7.070248102536425e-05,1.0,0.6271613836288452,0.9142024642024642
330,7.024488877505064e-05,1.0,0.6275107264518738,0.9142024642024642
331,6.979048339417204e-05,1.0,0.6279469728469849,0.9142024642024642
332,6.934034172445536e-05,1.0,0.6283263564109802,0.9142024642024642
333,6.890296208439395e-05,1.0,0.6287676692008972,0.9142024642024642
334,6.846132600912824e-05,1.0,0.6290550231933594,0.9142024642024642
335,6.801969720982015e-05,1.0,0.6295385360717773,0.9142024642024642
336,6.759508687537163e-05,1.0,0.6298757791519165,0.9142024642024642
337,6.71545130899176e-05,1.0,0.6303671002388,0.9142024642024642
338,6.672671588603407e-05,1.0,0.6306549310684204,0.9142024642024642
339,6.629784184042364e-05,1.0,0.6310895085334778,0.9142024642024642
340,6.588600808754563e-05,1.0,0.6315551996231079,0.9142024642024642
341,6.54667237540707e-05,1.0,0.6317931413650513,0.9142024642024642
342,6.505914643639699e-05,1.0,0.632198691368103,0.9142024642024642
343,6.465474143624306e-05,1.0,0.632695734500885,0.9142024642024642
344,6.424715684261173e-05,1.0,0.6329421997070312,0.9142024642024642
345,6.384276639437303e-05,1.0,0.6333159804344177,0.9142024642024642
346,6.343731365632266e-05,1.0,0.6338459849357605,0.9142024642024642
347,6.304888665908948e-05,1.0,0.6341051459312439,0.9142024642024642
348,6.266045238589868e-05,1.0,0.6344523429870605,0.9142024642024642
349,6.22677689534612e-05,1.0,0.6348651647567749,0.9142024642024642
350,6.18835911154747e-05,1.0,0.6352772116661072,0.9142024642024642
351,6.150686385808513e-05,1.0,0.6355663537979126,0.9142024642024642
352,6.112269329605624e-05,1.0,0.6360496282577515,0.9142024642024642
353,6.074276825529523e-05,1.0,0.6363635063171387,0.9142024642024642
354,6.037349157850258e-05,1.0,0.6367069482803345,0.9142024642024642
355,6.0005284467479214e-05,1.0,0.6371764540672302,0.9142024642024642
356,5.963600051472895e-05,1.0,0.6374140381813049,0.9142024642024642
357,5.925927325733937e-05,1.0,0.6377848982810974,0.9142024642024642
358,5.890489774174057e-05,1.0,0.6382074356079102,0.9142024642024642
359,5.8550511312205344e-05,1.0,0.6385725140571594,0.9142024642024642
360,5.819400757900439e-05,1.0,0.6389314532279968,0.9142024642024642
361,5.783643791801296e-05,1.0,0.6392646431922913,0.9142024642024642
362,5.749056799686514e-05,1.0,0.6396554708480835,0.9142024642024642
363,5.7140445278491825e-05,1.0,0.6399402618408203,0.9142024642024642
364,5.6793509429553524e-05,1.0,0.6403228640556335,0.9142024642024642
365,5.6450837291777134e-05,1.0,0.6406636238098145,0.9142024642024642
366,5.6112417951226234e-05,1.0,0.6410465836524963,0.9142024642024642
367,5.57793173356913e-05,1.0,0.6413689851760864,0.9142024642024642
368,5.5447286285925657e-05,1.0,0.6417673230171204,0.9142024642024642
369,5.511738345376216e-05,1.0,0.6421670317649841,0.9142024642024642
370,5.478747334564105e-05,1.0,0.6424781084060669,0.9142024642024642
371,5.445969509310089e-05,1.0,0.6428834795951843,0.9142024642024642
372,5.4135107347974554e-05,1.0,0.6432481408119202,0.9142024642024642
373,5.381265873438679e-05,1.0,0.6435715556144714,0.9142024642024642
374,5.349019556888379e-05,1.0,0.6439857482910156,0.9142024642024642
375,5.317305476637557e-05,1.0,0.6443666219711304,0.9142024642024642
376,5.286974919727072e-05,1.0,0.644630491733551,0.9142024642024642
377,5.2550491091096774e-05,1.0,0.6450997591018677,0.9142024642024642
378,5.223973857937381e-05,1.0,0.6453338861465454,0.9142024642024642
379,5.193324250285514e-05,1.0,0.6457518339157104,0.9142024642024642
380,5.162993693375029e-05,1.0,0.6461248993873596,0.9142024642024642
381,5.1324506785022095e-05,1.0,0.6464275121688843,0.9142024642024642
382,5.102226714370772e-05,1.0,0.6468220353126526,0.9142024642024642
383,5.07221557199955e-05,1.0,0.6471299529075623,0.9142024642024642
384,5.043268174631521e-05,1.0,0.6475260853767395,0.9142024642024642
385,5.013576810597442e-05,1.0,0.6477988362312317,0.9142024642024642
386,4.984842598787509e-05,1.0,0.6481298804283142,0.9142024642024642
387,4.955363692715764e-05,1.0,0.648450493812561,0.9142024642024642
388,4.9275869969278574e-05,1.0,0.6488046050071716,0.9142024642024642
389,4.89778867631685e-05,1.0,0.6491421461105347,0.9142024642024642
390,4.870225166087039e-05,1.0,0.6494984030723572,0.9142024642024642
391,4.841384361498058e-05,1.0,0.6498250365257263,0.9142024642024642
392,4.813820487470366e-05,1.0,0.6501473784446716,0.9142024642024642
393,4.78689580631908e-05,1.0,0.650495707988739,0.9142024642024642
394,4.759012517752126e-05,1.0,0.6508274078369141,0.9142024642024642
395,4.7320874728029594e-05,1.0,0.6512362360954285,0.9142024642024642
396,4.7047364205354825e-05,1.0,0.6515628695487976,0.9142024642024642
397,4.677811739384197e-05,1.0,0.6518478989601135,0.9142024642024642
398,4.651631388696842e-05,1.0,0.6522030234336853,0.9142024642024642
399,4.6250253944890574e-05,1.0,0.6525911092758179,0.9142024642024642
400,4.598419400281273e-05,1.0,0.652858555316925,0.9142024642024642
401,4.572239049593918e-05,1.0,0.6532378196716309,0.9142024642024642
402,4.5463784772437066e-05,1.0,0.6535969972610474,0.9142024642024642
403,4.520517177297734e-05,1.0,0.6538734436035156,0.9142024642024642
404,4.495081884670071e-05,1.0,0.654232382774353,0.9142024642024642
405,4.469752821023576e-05,1.0,0.6545839905738831,0.9142024642024642
406,4.4452757720137015e-05,1.0,0.6548280715942383,0.9142024642024642
407,4.419946708367206e-05,1.0,0.6552654504776001,0.9142024642024642
408,4.3950432882411405e-05,1.0,0.6555796265602112,0.9142024642024642
409,4.370458918856457e-05,1.0,0.6559293866157532,0.9142024642024642
410,4.3459818698465824e-05,1.0,0.6562520265579224,0.9142024642024642
411,4.3218231439823285e-05,1.0,0.65652996301651,0.9142024642024642
412,4.297558552934788e-05,1.0,0.6569363474845886,0.9142024642024642
413,4.27361301262863e-05,1.0,0.6571784615516663,0.9142024642024642
414,4.2497737013036385e-05,1.0,0.6575151085853577,0.9142024642024642
415,4.226147211738862e-05,1.0,0.6578556895256042,0.9142024642024642
416,4.202840500511229e-05,1.0,0.6582149863243103,0.9142024642024642
417,4.180065661785193e-05,1.0,0.6585395932197571,0.9142024642024642
418,4.156865179538727e-05,1.0,0.6588363647460938,0.9142024642024642
419,4.1332386899739504e-05,1.0,0.6591287851333618,0.9142024642024642
420,4.110889494768344e-05,1.0,0.6594765782356262,0.9142024642024642
421,4.0885402995627373e-05,1.0,0.6597590446472168,0.9142024642024642
422,4.065977918799035e-05,1.0,0.6600752472877502,0.9142024642024642
423,4.0435224946122617e-05,1.0,0.6603871583938599,0.9142024642024642
424,4.0210667066276073e-05,1.0,0.6607152223587036,0.9142024642024642
425,3.999036198365502e-05,1.0,0.6610307097434998,0.9142024642024642
426,3.976580410380848e-05,1.0,0.6613407731056213,0.9142024642024642
427,3.9555081457365304e-05,1.0,0.6616493463516235,0.9142024642024642
428,3.934010601369664e-05,1.0,0.6620297431945801,0.9142024642024642
429,3.913044565706514e-05,1.0,0.6623167395591736,0.9142024642024642
430,3.891546293743886e-05,1.0,0.6626283526420593,0.9142024642024642
431,3.87004874937702e-05,1.0,0.6629571318626404,0.9142024642024642
432,3.8487636629724875e-05,1.0,0.6632565259933472,0.9142024642024642
433,3.828329863608815e-05,1.0,0.6635604500770569,0.9142024642024642
434,3.8075766497058794e-05,1.0,0.6638767123222351,0.9142024642024642
435,3.7871428503422067e-05,1.0,0.6641920208930969,0.9142024642024642
436,3.7672412872780114e-05,1.0,0.6644935607910156,0.9142024642024642
437,3.746914444491267e-05,1.0,0.6648334860801697,0.9142024642024642
438,3.7266931030899286e-05,1.0,0.6651132702827454,0.9142024642024642
439,3.706046481966041e-05,1.0,0.6654512286186218,0.9142024642024642
440,3.68635737686418e-05,1.0,0.6657875776290894,0.9142024642024642
441,3.666136399260722e-05,1.0,0.6660848259925842,0.9142024642024642
442,3.6469795304583386e-05,1.0,0.666384220123291,0.9142024642024642
443,3.626971738412976e-05,1.0,0.666748046875,0.9142024642024642
444,3.608133920351975e-05,1.0,0.6670807003974915,0.9142024642024642
445,3.588338950066827e-05,1.0,0.6674176454544067,0.9142024642024642
446,3.570246190065518e-05,1.0,0.6677722930908203,0.9142024642024642
447,3.550131805241108e-05,1.0,0.668036937713623,0.9142024642024642
448,3.531187758198939e-05,1.0,0.6684580445289612,0.9142024642024642
449,3.512882176437415e-05,1.0,0.6687406897544861,0.9142024642024642
450,3.494470365694724e-05,1.0,0.6690374612808228,0.9142024642024642
451,3.475845733191818e-05,1.0,0.6694189310073853,0.9142024642024642
452,3.457221100688912e-05,1.0,0.6697202920913696,0.9142024642024642
453,3.43966057698708e-05,1.0,0.6700543761253357,0.9142024642024642
454,3.421354995225556e-05,1.0,0.6703146696090698,0.9142024642024642
455,3.4033691918011755e-05,1.0,0.6706863045692444,0.9142024642024642
456,3.3850636100396514e-05,1.0,0.6709931492805481,0.9142024642024642
457,3.3678221370792016e-05,1.0,0.6713134050369263,0.9142024642024642
458,3.349836333654821e-05,1.0,0.6716333627700806,0.9142024642024642
459,3.332594860694371e-05,1.0,0.6719485521316528,0.9142024642024642
460,3.314821879030205e-05,1.0,0.6722561717033386,0.9142024642024642
461,3.297367584309541e-05,1.0,0.6725978851318359,0.9142024642024642
462,3.280871533206664e-05,1.0,0.6728962063789368,0.9142024642024642
463,3.262991231167689e-05,1.0,0.6732333898544312,0.9142024642024642
464,3.2462823583045974e-05,1.0,0.6735553741455078,0.9142024642024642
465,3.2291474781231955e-05,1.0,0.6738476157188416,0.9142024642024642
466,3.212332012481056e-05,1.0,0.6742261648178101,0.9142024642024642
467,3.1960484193405136e-05,1.0,0.6744800806045532,0.9142024642024642
468,3.179445775458589e-05,1.0,0.6747740507125854,0.9142024642024642
469,3.162417488056235e-05,1.0,0.6751335263252258,0.9142024642024642
470,3.1470921385334805e-05,1.0,0.6753947138786316,0.9142024642024642
471,3.130489130853675e-05,1.0,0.6757239699363708,0.9142024642024642
472,3.114099308731966e-05,1.0,0.6759809851646423,0.9142024642024642
473,3.098028537351638e-05,1.0,0.6763603091239929,0.9142024642024642
474,3.0823841370875016e-05,1.0,0.6766740083694458,0.9142024642024642
475,3.066313365707174e-05,1.0,0.6769774556159973,0.9142024642024642
476,3.0512004741467535e-05,1.0,0.6772292256355286,0.9142024642024642
477,3.0350232918863185e-05,1.0,0.6775599718093872,0.9142024642024642
478,3.0201235858839937e-05,1.0,0.6778433918952942,0.9142024642024642
479,3.004052814503666e-05,1.0,0.6781619191169739,0.9142024642024642
480,2.9886208722018637e-05,1.0,0.6784787774085999,0.9142024642024642
481,2.9737206205027178e-05,1.0,0.6787542104721069,0.9142024642024642
482,2.9581826311186887e-05,1.0,0.6790982484817505,0.9142024642024642
483,2.942218088719528e-05,1.0,0.6793497800827026,0.9142024642024642
484,2.9279564841999672e-05,1.0,0.679623007774353,0.9142024642024642
485,2.9135886506992392e-05,1.0,0.6799798607826233,0.9142024642024642
486,2.89847630483564e-05,1.0,0.6802263259887695,0.9142024642024642
487,2.8838952857768163e-05,1.0,0.6805635690689087,0.9142024642024642
488,2.868676165235229e-05,1.0,0.680846631526947,0.9142024642024642
489,2.8544147426146083e-05,1.0,0.6810817718505859,0.9142024642024642
490,2.8406851924955845e-05,1.0,0.6814146637916565,0.9142024642024642
491,2.826210948114749e-05,1.0,0.6817421317100525,0.9142024642024642
492,2.8112046493333764e-05,1.0,0.6820225715637207,0.9142024642024642
493,2.7976882847724482e-05,1.0,0.6823447346687317,0.9142024642024642
494,2.783107447612565e-05,1.0,0.6826104521751404,0.9142024642024642
495,2.7689526177709922e-05,1.0,0.6829010248184204,0.9142024642024642
496,2.7553296604310162e-05,1.0,0.6832724809646606,0.9142024642024642
497,2.7417068849899806e-05,1.0,0.6834902167320251,0.9142024642024642
498,2.7278711058897898e-05,1.0,0.6838286519050598,0.9142024642024642
499,2.7141417376697063e-05,1.0,0.684138298034668,0.9142024642024642
500,2.70051859843079e-05,1.0,0.6844135522842407,0.9142024642024642
501,2.687108462851029e-05,1.0,0.6847789883613586,0.9142024642024642
502,2.6736986910691485e-05,1.0,0.6850361227989197,0.9142024642024642
503,2.660714199009817e-05,1.0,0.6853677034378052,0.9142024642024642
504,2.6473042453289963e-05,1.0,0.6856713891029358,0.9142024642024642
505,2.6346391678089276e-05,1.0,0.6858822107315063,0.9142024642024642
506,2.6209096176899038e-05,1.0,0.6862500905990601,0.9142024642024642
507,2.6071804313687608e-05,1.0,0.6865385174751282,0.9142024642024642
508,2.595154001028277e-05,1.0,0.6868399977684021,0.9142024642024642
509,2.582063098088838e-05,1.0,0.6871102452278137,0.9142024642024642
510,2.569930256868247e-05,1.0,0.6874112486839294,0.9142024642024642
511,2.5567327611497603e-05,1.0,0.6877406239509583,0.9142024642024642
512,2.5440680474275723e-05,1.0,0.6879889369010925,0.9142024642024642
513,2.5312963771284558e-05,1.0,0.6883484125137329,0.9142024642024642
514,2.519376175769139e-05,1.0,0.6886107325553894,0.9142024642024642
515,2.5066048692679033e-05,1.0,0.6888998746871948,0.9142024642024642
516,2.4948976715677418e-05,1.0,0.6892579793930054,0.9142024642024642
517,2.4820195903885178e-05,1.0,0.6895318031311035,0.9142024642024642
518,2.4704188035684638e-05,1.0,0.689828097820282,0.9142024642024642
519,2.457327900629025e-05,1.0,0.6901763081550598,0.9142024642024642
520,2.445727113808971e-05,1.0,0.6903913617134094,0.9142024642024642
521,2.4339131414308213e-05,1.0,0.690734326839447,0.9142024642024642
522,2.4220997147494927e-05,1.0,0.6909908652305603,0.9142024642024642
523,2.4099665097310208e-05,1.0,0.6913275122642517,0.9142024642024642
524,2.3984723156900145e-05,1.0,0.6915876269340515,0.9142024642024642
525,2.385913467151113e-05,1.0,0.6918851733207703,0.9142024642024642
526,2.373993265791796e-05,1.0,0.6922010779380798,0.9142024642024642
527,2.363031126151327e-05,1.0,0.6924397349357605,0.9142024642024642
528,2.3515367502113804e-05,1.0,0.6927680969238281,0.9142024642024642
529,2.339935781492386e-05,1.0,0.6930433511734009,0.9142024642024642
530,2.328654045413714e-05,1.0,0.6932850480079651,0.9142024642024642
531,2.3176919057732448e-05,1.0,0.6936023831367493,0.9142024642024642
532,2.3063039407134056e-05,1.0,0.6938754320144653,0.9142024642024642
533,2.2944903321331367e-05,1.0,0.6941236257553101,0.9142024642024642
534,2.283634603372775e-05,1.0,0.6944593787193298,0.9142024642024642
535,2.2723526853951626e-05,1.0,0.6946995854377747,0.9142024642024642
536,2.2621354219154455e-05,1.0,0.6950249671936035,0.9142024642024642
537,2.2510665075969882e-05,1.0,0.6952562928199768,0.9142024642024642
538,2.2404236005968414e-05,1.0,0.6955844163894653,0.9142024642024642
539,2.2287162209977396e-05,1.0,0.695823073387146,0.9142024642024642
540,2.2180733139975928e-05,1.0,0.696135938167572,0.9142024642024642
541,2.2077496396377683e-05,1.0,0.6963720917701721,0.9142024642024642
542,2.1967873180983588e-05,1.0,0.6966976523399353,0.9142024642024642
543,2.1863570509594865e-05,1.0,0.6969265341758728,0.9142024642024642
544,2.1759269657195546e-05,1.0,0.6972285509109497,0.9142024642024642
545,2.16517746594036e-05,1.0,0.6974949240684509,0.9142024642024642
546,2.155705078621395e-05,1.0,0.6977810263633728,0.9142024642024642
547,2.1445299353217706e-05,1.0,0.698031485080719,0.9142024642024642
548,2.1346319044823758e-05,1.0,0.6983175277709961,0.9142024642024642
549,2.1245210518827662e-05,1.0,0.6985515356063843,0.9142024642024642
550,2.1145164282643236e-05,1.0,0.6988973021507263,0.9142024642024642
551,2.103660699503962e-05,1.0,0.6991094946861267,0.9142024642024642
552,2.094188312184997e-05,1.0,0.699429988861084,0.9142024642024642
553,2.0838646378251724e-05,1.0,0.6997193694114685,0.9142024642024642
554,2.074392068607267e-05,1.0,0.699976921081543,0.9142024642024642
555,2.063961983367335e-05,1.0,0.7002626657485962,0.9142024642024642
556,2.053744719887618e-05,1.0,0.7005313038825989,0.9142024642024642
557,2.0445915652089752e-05,1.0,0.7008270621299744,0.9142024642024642
558,2.0345873053884134e-05,1.0,0.701119601726532,0.9142024642024642
559,2.025540561589878e-05,1.0,0.7013899087905884,0.9142024642024642
560,2.015323298110161e-05,1.0,0.7017088532447815,0.9142024642024642
561,2.0061703253304586e-05,1.0,0.701964259147644,0.9142024642024642
562,1.9966977561125532e-05,1.0,0.7022483944892883,0.9142024642024642
563,1.9871189579134807e-05,1.0,0.7024999856948853,0.9142024642024642
564,1.9777531633735634e-05,1.0,0.7028051018714905,0.9142024642024642
565,1.967961543414276e-05,1.0,0.7030850052833557,0.9142024642024642
566,1.9589147996157408e-05,1.0,0.7033610343933105,0.9142024642024642
567,1.9498680558172055e-05,1.0,0.7036421895027161,0.9142024642024642
568,1.940289257618133e-05,1.0,0.7038728594779968,0.9142024642024642
569,1.931881342898123e-05,1.0,0.7041517496109009,0.9142024642024642
570,1.922621959238313e-05,1.0,0.7044011950492859,0.9142024642024642
571,1.913362393679563e-05,1.0,0.7046788334846497,0.9142024642024642
572,1.90463488252135e-05,1.0,0.7049509286880493,0.9142024642024642
573,1.89580114238197e-05,1.0,0.7052484154701233,0.9142024642024642
574,1.8863285731640644e-05,1.0,0.7055132985115051,0.9142024642024642
575,1.8774950149236247e-05,1.0,0.7057915329933167,0.9142024642024642
576,1.868235631263815e-05,1.0,0.7060796022415161,0.9142024642024642
577,1.8596145309857093e-05,1.0,0.706357479095459,0.9142024642024642
578,1.8505679690861143e-05,1.0,0.706630289554596,0.9142024642024642
579,1.8424791051074862e-05,1.0,0.7068949341773987,0.9142024642024642
580,1.8336451830691658e-05,1.0,0.7071657180786133,0.9142024642024642
581,1.8256629118695855e-05,1.0,0.7074310183525085,0.9142024642024642
582,1.8166161680710502e-05,1.0,0.707673966884613,0.9142024642024642
583,1.8084208932123147e-05,1.0,0.7079533338546753,0.9142024642024642
584,1.8002258002525195e-05,1.0,0.7081984877586365,0.9142024642024642
585,1.7918177036335692e-05,1.0,0.7084254622459412,0.9142024642024642
586,1.7837290215538815e-05,1.0,0.708724319934845,0.9142024642024642
587,1.775107921275776e-05,1.0,0.7089228630065918,0.9142024642024642
588,1.7673384718364105e-05,1.0,0.7092009782791138,0.9142024642024642
589,1.7586109606781974e-05,1.0,0.7094607353210449,0.9142024642024642
590,1.750841511238832e-05,1.0,0.7097136378288269,0.9142024642024642
591,1.741794949339237e-05,1.0,0.709965169429779,0.9142024642024642
592,1.7346641470794566e-05,1.0,0.7102373838424683,0.9142024642024642
593,1.726681693980936e-05,1.0,0.7104232907295227,0.9142024642024642
594,1.7180605937028304e-05,1.0,0.7106683850288391,0.9142024642024642
595,1.7105039660236798e-05,1.0,0.7109817266464233,0.9142024642024642
596,1.7022020983858965e-05,1.0,0.7112016677856445,0.9142024642024642
597,1.6946456526056863e-05,1.0,0.7114524841308594,0.9142024642024642
598,1.6871954358066432e-05,1.0,0.7117128968238831,0.9142024642024642
599,1.6792129827081226e-05,1.0,0.7119220495223999,0.9142024642024642
600,1.6713371223886497e-05,1.0,0.71217280626297,0.9142024642024642
601,1.6638869055896066e-05,1.0,0.7124578356742859,0.9142024642024642
602,1.6564366887905635e-05,1.0,0.7126498818397522,0.9142024642024642
603,1.648454235692043e-05,1.0,0.7129563689231873,0.9142024642024642
604,1.6408976080128923e-05,1.0,0.713175892829895,0.9142024642024642
605,1.633660212974064e-05,1.0,0.7134118676185608,0.9142024642024642
606,1.626209996175021e-05,1.0,0.7136911153793335,0.9142024642024642
607,1.618334135855548e-05,1.0,0.7139496803283691,0.9142024642024642
608,1.6113093806779943e-05,1.0,0.7141801714897156,0.9142024642024642
609,1.6035401131375693e-05,1.0,0.7143875956535339,0.9142024642024642
610,1.596621768840123e-05,1.0,0.7146404385566711,0.9142024642024642
611,1.58874590852065e-05,1.0,0.7149103879928589,0.9142024642024642
612,1.5824665752006695e-05,1.0,0.7150925993919373,0.9142024642024642
613,1.574803354742471e-05,1.0,0.7153872847557068,0.9142024642024642
614,1.5676723705837503e-05,1.0,0.7155981659889221,0.9142024642024642
615,1.5609672118443996e-05,1.0,0.715833306312561,0.9142024642024642
616,1.553623405925464e-05,1.0,0.7160882949829102,0.9142024642024642
617,1.5464922398678027e-05,1.0,0.7162811160087585,0.9142024642024642
618,1.539148433948867e-05,1.0,0.716540515422821,0.9142024642024642
619,1.5325496860896237e-05,1.0,0.7167949676513672,0.9142024642024642
620,1.5253122910507955e-05,1.0,0.71705561876297,0.9142024642024642
621,1.5181813978415448e-05,1.0,0.7172476053237915,0.9142024642024642
622,1.5116891518118791e-05,1.0,0.7175301909446716,0.9142024642024642
623,1.5050902220536955e-05,1.0,0.7178015112876892,0.9142024642024642
624,1.4978529179643374e-05,1.0,0.7180490493774414,0.9142024642024642
625,1.491466991865309e-05,1.0,0.718334972858429,0.9142024642024642
626,1.4849744729872327e-05,1.0,0.7185713052749634,0.9142024642024642
627,1.4785885468882043e-05,1.0,0.718859076499939,0.9142024642024642
628,1.4714575627294835e-05,1.0,0.7190966010093689,0.9142024642024642
629,1.464113847760018e-05,1.0,0.7193612456321716,0.9142024642024642
630,1.4576214198314119e-05,1.0,0.7196010947227478,0.9142024642024642
631,1.4510225810226984e-05,1.0,0.7198490500450134,0.9142024642024642
632,1.4447430658037774e-05,1.0,0.7201126217842102,0.9142024642024642
633,1.4376121725945268e-05,1.0,0.7203399538993835,0.9142024642024642
634,1.4318648027256131e-05,1.0,0.7206218838691711,0.9142024642024642
635,1.4252659639168996e-05,1.0,0.7208582758903503,0.9142024642024642
636,1.418667034158716e-05,1.0,0.721142590045929,0.9142024642024642
637,1.412813344359165e-05,1.0,0.7213543057441711,0.9142024642024642
638,1.4064273273106664e-05,1.0,0.721588671207428,0.9142024642024642
639,1.4003607248014305e-05,1.0,0.7218297123908997,0.9142024642024642
640,1.3934425624029245e-05,1.0,0.7220741510391235,0.9142024642024642
641,1.3875886907044332e-05,1.0,0.7223249077796936,0.9142024642024642
642,1.3813093573844526e-05,1.0,0.7225859761238098,0.9142024642024642
643,1.374710427626269e-05,1.0,0.7227820754051208,0.9142024642024642
644,1.368643825117033e-05,1.0,0.7230343222618103,0.9142024642024642
645,1.362151397188427e-05,1.0,0.723226010799408,0.9142024642024642
646,1.3568297617894132e-05,1.0,0.723490297794342,0.9142024642024642
647,1.351188802800607e-05,1.0,0.7237140536308289,0.9142024642024642
648,1.3452285202220082e-05,1.0,0.7239742875099182,0.9142024642024642
649,1.3390555068326648e-05,1.0,0.7241978645324707,0.9142024642024642
650,1.3329888133739587e-05,1.0,0.7244554758071899,0.9142024642024642
651,1.3261771528050303e-05,1.0,0.7246943116188049,0.9142024642024642
652,1.3206426046963315e-05,1.0,0.7249675393104553,0.9142024642024642
653,1.3148951438779477e-05,1.0,0.7251071929931641,0.9142024642024642
654,1.3097865121380892e-05,1.0,0.7254155874252319,0.9142024642024642
655,1.3036134077992756e-05,1.0,0.7256775498390198,0.9142024642024642
656,1.2976531252206769e-05,1.0,0.7258556485176086,0.9142024642024642
657,1.2926508134114556e-05,1.0,0.7261406183242798,0.9142024642024642
658,1.2866905308328569e-05,1.0,0.7263782620429993,0.9142024642024642
659,1.2805174264940433e-05,1.0,0.7266319990158081,0.9142024642024642
660,1.2754086128552444e-05,1.0,0.7268601059913635,0.9142024642024642
661,1.2693419193965383e-05,1.0,0.7271353006362915,0.9142024642024642
662,1.2640202839975245e-05,1.0,0.7273626327514648,0.9142024642024642
663,1.2584858268382959e-05,1.0,0.7276360392570496,0.9142024642024642
664,1.2527385479188524e-05,1.0,0.727886974811554,0.9142024642024642
665,1.2472039088606834e-05,1.0,0.7282052636146545,0.9142024642024642
666,1.2419886843417771e-05,1.0,0.728390634059906,0.9142024642024642
667,1.236773550772341e-05,1.0,0.7286838889122009,0.9142024642024642
668,1.2308132681937423e-05,1.0,0.7289043664932251,0.9142024642024642
669,1.2261300980753731e-05,1.0,0.7291611433029175,0.9142024642024642
670,1.220489230036037e-05,1.0,0.7293906807899475,0.9142024642024642
671,1.2147419511165936e-05,1.0,0.7296691536903381,0.9142024642024642
672,1.2097395483579021e-05,1.0,0.7298874258995056,0.9142024642024642
673,1.204098680318566e-05,1.0,0.730181872844696,0.9142024642024642
674,1.1992025065410417e-05,1.0,0.7303972840309143,0.9142024642024642
675,1.194093783851713e-05,1.0,0.7306718230247498,0.9142024642024642
676,1.1885592357430141e-05,1.0,0.7308598160743713,0.9142024642024642
677,1.1838762475235853e-05,1.0,0.7311868071556091,0.9142024642024642
678,1.1784482012444641e-05,1.0,0.7314544320106506,0.9142024642024642
679,1.1732329767255578e-05,1.0,0.7317113280296326,0.9142024642024642
680,1.1680176612571813e-05,1.0,0.731967568397522,0.9142024642024642
681,1.162376702268375e-05,1.0,0.7322167754173279,0.9142024642024642
682,1.1585450920392759e-05,1.0,0.732495129108429,0.9142024642024642
683,1.1522655768203549e-05,1.0,0.7327433228492737,0.9142024642024642
684,1.1477953194116708e-05,1.0,0.7329583168029785,0.9142024642024642
685,1.1434315638325643e-05,1.0,0.7332721948623657,0.9142024642024642
686,1.1385357538529206e-05,1.0,0.7334861755371094,0.9142024642024642
687,1.1330011147947516e-05,1.0,0.733759880065918,0.9142024642024642
688,1.1278923011559527e-05,1.0,0.734010636806488,0.9142024642024642
689,1.1226771675865166e-05,1.0,0.7342481017112732,0.9142024642024642
690,1.1181003173987847e-05,1.0,0.7345319986343384,0.9142024642024642
691,1.1139495654788334e-05,1.0,0.7347771525382996,0.9142024642024642
692,1.1090536645497195e-05,1.0,0.735023021697998,0.9142024642024642
693,1.1041576726711355e-05,1.0,0.7352433800697327,0.9142024642024642
694,1.0999004189216066e-05,1.0,0.7355194091796875,0.9142024642024642
695,1.0945786016236525e-05,1.0,0.7357850074768066,0.9142024642024642
696,1.0906405805144459e-05,1.0,0.7360039949417114,0.9142024642024642
697,1.0852124432858545e-05,1.0,0.7362889647483826,0.9142024642024642
698,1.0799972187669482e-05,1.0,0.7364829778671265,0.9142024642024642
699,1.0756334631878417e-05,1.0,0.7368078231811523,0.9142024642024642
700,1.071163387678098e-05,1.0,0.7370639443397522,0.9142024642024642
701,1.0671188647393137e-05,1.0,0.7372927665710449,0.9142024642024642
702,1.0623292837408371e-05,1.0,0.7375628352165222,0.9142024642024642
703,1.0574333828117233e-05,1.0,0.737822413444519,0.9142024642024642
704,1.0528567145229317e-05,1.0,0.738117516040802,0.9142024642024642
705,1.04870578070404e-05,1.0,0.7383395433425903,0.9142024642024642
706,1.0437034688948188e-05,1.0,0.7385885119438171,0.9142024642024642
707,1.039765356836142e-05,1.0,0.738855242729187,0.9142024642024642
708,1.035295190376928e-05,1.0,0.7391389012336731,0.9142024642024642
709,1.0299735549779143e-05,1.0,0.7393590807914734,0.9142024642024642
710,1.0262483556289226e-05,1.0,0.739585280418396,0.9142024642024642
711,1.0218845091003459e-05,1.0,0.7398699522018433,0.9142024642024642
712,1.0181594007008243e-05,1.0,0.740098774433136,0.9142024642024642
713,1.0136891432921402e-05,1.0,0.740384042263031,0.9142024642024642
714,1.0090060641232412e-05,1.0,0.7406274080276489,0.9142024642024642
715,1.0044293958344497e-05,1.0,0.740881621837616,0.9142024642024642
716,1.0001720511354506e-05,1.0,0.7411420941352844,0.9142024642024642
717,9.959147064364515e-06,1.0,0.7413967251777649,0.9142024642024642
718,9.922959179675672e-06,1.0,0.7416098713874817,0.9142024642024642
719,9.883579878078308e-06,1.0,0.7418938875198364,0.9142024642024642
720,9.83462086878717e-06,1.0,0.7421290278434753,0.9142024642024642
721,9.789917385205626e-06,1.0,0.7424151301383972,0.9142024642024642
722,9.749473065312486e-06,1.0,0.7426358461380005,0.9142024642024642
723,9.706898708827794e-06,1.0,0.7429233193397522,0.9142024642024642
724,9.665390280133579e-06,1.0,0.7431212663650513,0.9142024642024642
725,9.62388003244996e-06,1.0,0.7434453368186951,0.9142024642024642
726,9.579178367857821e-06,1.0,0.7436919212341309,0.9142024642024642
727,9.540861356072128e-06,1.0,0.7439525723457336,0.9142024642024642
728,9.505738489679061e-06,1.0,0.744193434715271,0.9142024642024642
729,9.462100933887996e-06,1.0,0.7444782257080078,0.9142024642024642
730,9.42272072279593e-06,1.0,0.7447419762611389,0.9142024642024642
731,9.381211384607013e-06,1.0,0.744962751865387,0.9142024642024642
732,9.336508810520172e-06,1.0,0.745273768901825,0.9142024642024642
733,9.300322744820733e-06,1.0,0.7454947829246521,0.9142024642024642
734,9.262004823540337e-06,1.0,0.7457686066627502,0.9142024642024642
735,9.22475283005042e-06,1.0,0.746006190776825,0.9142024642024642
736,9.186436727759428e-06,1.0,0.7462848424911499,0.9142024642024642
737,9.149184734269511e-06,1.0,0.7465516328811646,0.9142024642024642
738,9.104483069677372e-06,1.0,0.7467663884162903,0.9142024642024642
739,9.062974640983157e-06,1.0,0.7470574378967285,0.9142024642024642
740,9.034236427396536e-06,1.0,0.7472873330116272,0.9142024642024642
741,8.994857125799172e-06,1.0,0.7475919127464294,0.9142024642024642
742,8.958668331615627e-06,1.0,0.7478165626525879,0.9142024642024642
743,8.920352229324635e-06,1.0,0.7481532096862793,0.9142024642024642
744,8.885229362931568e-06,1.0,0.7484049201011658,0.9142024642024642
745,8.844784133543726e-06,1.0,0.7487507462501526,0.9142024642024642
746,8.809661267150659e-06,1.0,0.7490288615226746,0.9142024642024642
747,8.770280146563891e-06,1.0,0.7493576407432556,0.9142024642024642
748,8.73409317136975e-06,1.0,0.7496704459190369,0.9142024642024642
749,8.689390597282909e-06,1.0,0.7499523758888245,0.9142024642024642
750,8.65639594849199e-06,1.0,0.7502559423446655,0.9142024642024642
751,8.619143045507371e-06,1.0,0.7504987716674805,0.9142024642024642
752,8.58082694321638e-06,1.0,0.7508699297904968,0.9142024642024642
753,8.545704986318015e-06,1.0,0.7511193156242371,0.9142024642024642
754,8.512709428032394e-06,1.0,0.7514487504959106,0.9142024642024642
755,8.474393325741403e-06,1.0,0.7517501711845398,0.9142024642024642
756,8.436077223450411e-06,1.0,0.7519890666007996,0.9142024642024642
757,8.410532245761715e-06,1.0,0.7523306608200073,0.9142024642024642
758,8.375409379368648e-06,1.0,0.7525582909584045,0.9142024642024642
759,8.333900950674433e-06,1.0,0.7528696656227112,0.9142024642024642
760,8.303034519485664e-06,1.0,0.7531490325927734,0.9142024642024642
761,8.262589290097822e-06,1.0,0.7534651756286621,0.9142024642024642
762,8.225337296607904e-06,1.0,0.7537835240364075,0.9142024642024642
763,8.19127762952121e-06,1.0,0.7540799379348755,0.9142024642024642
764,8.164669452526141e-06,1.0,0.754385769367218,0.9142024642024642
765,8.128482477332e-06,1.0,0.7546762824058533,0.9142024642024642
766,8.09122957434738e-06,1.0,0.754998505115509,0.9142024642024642
767,8.062492270255461e-06,1.0,0.7552653551101685,0.9142024642024642
768,8.02630529506132e-06,1.0,0.7555727958679199,0.9142024642024642
769,7.990117410372477e-06,1.0,0.7558671236038208,0.9142024642024642
770,7.953930435178336e-06,1.0,0.7561455965042114,0.9142024642024642
771,7.925192221591715e-06,1.0,0.7564905285835266,0.9142024642024642
772,7.895390808698721e-06,1.0,0.756723940372467,0.9142024642024642
773,7.858138815208804e-06,1.0,0.757071316242218,0.9142024642024642
774,7.827272384020034e-06,1.0,0.7573316693305969,0.9142024642024642
775,7.79747097112704e-06,1.0,0.7576408386230469,0.9142024642024642
776,7.760218977637123e-06,1.0,0.757906436920166,0.9142024642024642
777,7.73041756474413e-06,1.0,0.758227527141571,0.9142024642024642
778,7.70380847825436e-06,1.0,0.758451521396637,0.9142024642024642
779,7.668685611861292e-06,1.0,0.758827805519104,0.9142024642024642
780,7.64101332606515e-06,1.0,0.7590894103050232,0.9142024642024642
781,7.6058890954300296e-06,1.0,0.7593806385993958,0.9142024642024642
782,7.570765319542261e-06,1.0,0.7596646547317505,0.9142024642024642
783,7.5377711254986934e-06,1.0,0.759931206703186,0.9142024642024642
784,7.503712822654052e-06,1.0,0.760226845741272,0.9142024642024642
785,7.479232408513781e-06,1.0,0.7604703903198242,0.9142024642024642
786,7.449430995620787e-06,1.0,0.7608113884925842,0.9142024642024642
787,7.418565019179368e-06,1.0,0.7610118985176086,0.9142024642024642
788,7.3834416980389506e-06,1.0,0.7613688707351685,0.9142024642024642
789,7.353639830398606e-06,1.0,0.7616335153579712,0.9142024642024642
790,7.321708835661411e-06,1.0,0.7619388699531555,0.9142024642024642
791,7.296165222214768e-06,1.0,0.7621791958808899,0.9142024642024642
792,7.256784556375351e-06,1.0,0.7624788284301758,0.9142024642024642
793,7.236561486934079e-06,1.0,0.7627080082893372,0.9142024642024642
794,7.198245384643087e-06,1.0,0.76298588514328,0.9142024642024642
795,7.169507171056466e-06,1.0,0.7632365226745605,0.9230769230769231
796,7.141835340007674e-06,1.0,0.7635451555252075,0.9230769230769231
797,7.10990480001783e-06,1.0,0.7637826204299927,0.9230769230769231
798,7.084360277076485e-06,1.0,0.7640983462333679,0.9230769230769231
799,7.051365628285566e-06,1.0,0.7643150687217712,0.9230769230769231
800,7.019435543043073e-06,1.0,0.7646699547767639,0.9230769230769231
801,6.992826001805952e-06,1.0,0.7649053335189819,0.9230769230769231
802,6.9640891524613835e-06,1.0,0.7651780247688293,0.9230769230769231
803,6.942801974219037e-06,1.0,0.765476644039154,0.9230769230769231
804,6.911936452524969e-06,1.0,0.7656927704811096,0.9230769230769231
805,6.882134130137274e-06,1.0,0.7660313248634338,0.9230769230769231
806,6.854461844341131e-06,1.0,0.7662688493728638,0.9230769230769231
807,6.822531304351287e-06,1.0,0.7665486931800842,0.9230769230769231
808,6.796986326662591e-06,1.0,0.7668117880821228,0.9230769230769231
809,6.768249477318022e-06,1.0,0.7671164870262146,0.9230769230769231
810,6.737383500876604e-06,1.0,0.7673249244689941,0.9230769230769231
811,6.721418230881682e-06,1.0,0.7676885724067688,0.9230769230769231
812,6.689487236144487e-06,1.0,0.7679322957992554,0.9230769230769231
813,6.658621714450419e-06,1.0,0.7682222127914429,0.9230769230769231
814,6.626691174460575e-06,1.0,0.7684562802314758,0.9230769230769231
815,6.597953870368656e-06,1.0,0.7687627077102661,0.9230769230769231
816,6.573473456228385e-06,1.0,0.7689984440803528,0.9230769230769231
817,6.5447361521364655e-06,1.0,0.7692965269088745,0.9230769230769231
818,6.518127520394046e-06,1.0,0.7695305943489075,0.9230769230769231
819,6.491518888651626e-06,1.0,0.7698031663894653,0.9230769230769231
820,6.4649102569092065e-06,1.0,0.7700762152671814,0.9230769230769231
821,6.435108389268862e-06,1.0,0.7703491449356079,0.9230769230769231
822,6.418078555725515e-06,1.0,0.7706533074378967,0.9230769230769231
823,6.3850843616819475e-06,1.0,0.7708849906921387,0.9230769230769231
824,6.363797183439601e-06,1.0,0.7712368965148926,0.9230769230769231
825,6.330802534648683e-06,1.0,0.7714734077453613,0.9230769230769231
826,6.309515356406337e-06,1.0,0.7718107104301453,0.9230769230769231
827,6.282906724663917e-06,1.0,0.7721018195152283,0.9230769230769231
828,6.257362201722572e-06,1.0,0.7724211812019348,0.9230769230769231
829,6.232882697077002e-06,1.0,0.7726896405220032,0.9230769230769231
830,6.206273155839881e-06,1.0,0.7729569673538208,0.9230769230769231
831,6.1849868870922364e-06,1.0,0.7732632756233215,0.9230769230769231
832,6.156249128252966e-06,1.0,0.7735403180122375,0.9230769230769231
833,6.126447715359973e-06,1.0,0.7738149762153625,0.9230769230769231
834,6.1051605371176265e-06,1.0,0.7740641236305237,0.9230769230769231
835,6.077487341826782e-06,1.0,0.7743700742721558,0.9230769230769231
836,6.054071945982287e-06,1.0,0.7745891213417053,0.9230769230769231
837,6.028527423040941e-06,1.0,0.7749497294425964,0.9230769230769231
838,6.0051120271964464e-06,1.0,0.7751469612121582,0.9230769230769231
839,5.983824394206749e-06,1.0,0.7754764556884766,0.9230769230769231
840,5.95721576246433e-06,1.0,0.7757830619812012,0.9230769230769231
841,5.935929038969334e-06,1.0,0.7760902643203735,0.9230769230769231
842,5.910384061280638e-06,1.0,0.7763352990150452,0.9230769230769231
843,5.88164721193607e-06,1.0,0.7767075300216675,0.9230769230769231
844,5.8571672525431495e-06,1.0,0.7769260406494141,0.9230769230769231
845,5.834815965499729e-06,1.0,0.7772348523139954,0.9230769230769231
846,5.810335551359458e-06,1.0,0.7775285840034485,0.9230769230769231
847,5.790112936665537e-06,1.0,0.7777943015098572,0.9230769230769231
848,5.766697540821042e-06,1.0,0.7780625224113464,0.9230769230769231
849,5.7486031437292695e-06,1.0,0.7783018946647644,0.9230769230769231
850,5.719866294384701e-06,1.0,0.7786329984664917,0.9230769230769231
851,5.69751455259393e-06,1.0,0.7788313627243042,0.9230769230769231
852,5.670906375598861e-06,1.0,0.779189944267273,0.9230769230769231
853,5.64003948966274e-06,1.0,0.7794474959373474,0.9230769230769231
854,5.617687747871969e-06,1.0,0.7797064185142517,0.9230769230769231
855,5.594272806774825e-06,1.0,0.7800217866897583,0.9230769230769231
856,5.5761784096830525e-06,1.0,0.7802478075027466,0.9230769230769231
857,5.552762559091207e-06,1.0,0.7805704474449158,0.9230769230769231
858,5.526154382096138e-06,1.0,0.7808208465576172,0.9230769230769231
859,5.5080599850043654e-06,1.0,0.7811260223388672,0.9230769230769231
860,5.495287950907368e-06,1.0,0.7814074754714966,0.9230769230769231
861,5.467615210363874e-06,1.0,0.7816583514213562,0.9230769230769231
862,5.445263468573103e-06,1.0,0.7820039987564087,0.9230769230769231
863,5.422911726782331e-06,1.0,0.7822120785713196,0.9230769230769231
864,5.395238986238837e-06,1.0,0.7825517058372498,0.9230769230769231
865,5.369694008550141e-06,1.0,0.7828294634819031,0.9230769230769231
866,5.360114755603718e-06,1.0,0.7831396460533142,0.9230769230769231
867,5.3324424698075745e-06,1.0,0.783445417881012,0.9230769230769231
868,5.313283509167377e-06,1.0,0.7837004065513611,0.9230769230769231
869,5.294125458021881e-06,1.0,0.7840093374252319,0.9230769230769231
870,5.265388153929962e-06,1.0,0.7842187881469727,0.9230769230769231
871,5.243036866886541e-06,1.0,0.7845655083656311,0.9230769230769231
872,5.229200269241119e-06,1.0,0.7848138213157654,0.9230769230769231
873,5.206848982197698e-06,1.0,0.785101592540741,0.9230769230769231
874,5.186625912756426e-06,1.0,0.7854156494140625,0.9230769230769231
875,5.16746786161093e-06,1.0,0.7856306433677673,0.9230769230769231
876,5.14511657456751e-06,1.0,0.7859706878662109,0.9230769230769231
877,5.124893505126238e-06,1.0,0.7862507700920105,0.9230769230769231
878,5.101478109281743e-06,1.0,0.7864897847175598,0.9230769230769231
879,5.0833841669373214e-06,1.0,0.7867927551269531,0.9230769230769231
880,5.057839189248625e-06,1.0,0.7870494723320007,0.9230769230769231
881,5.036552011006279e-06,1.0,0.787324845790863,0.9230769230769231
882,5.017393959860783e-06,1.0,0.7875595092773438,0.9230769230769231
883,5.004621925763786e-06,1.0,0.7879066467285156,0.9230769230769231
884,4.978012839274015e-06,1.0,0.788112223148346,0.9230769230769231
885,4.9588547881285194e-06,1.0,0.7884286046028137,0.9230769230769231
886,4.939696282235673e-06,1.0,0.7886649966239929,0.9230769230769231
887,4.9184091039933264e-06,1.0,0.7889731526374817,0.9230769230769231
888,4.898186489299405e-06,1.0,0.7892302870750427,0.9230769230769231
889,4.875835202255985e-06,1.0,0.7895191311836243,0.9230769230769231
890,4.8630631681589875e-06,1.0,0.7898194193840027,0.9230769230769231
891,4.839647317567142e-06,1.0,0.7900740504264832,0.9230769230769231
892,4.820489266421646e-06,1.0,0.7903456091880798,0.9230769230769231
893,4.798137524630874e-06,1.0,0.7906302213668823,0.9230769230769231
894,4.780043127539102e-06,1.0,0.7908995747566223,0.9230769230769231
895,4.763013748743106e-06,1.0,0.791172444820404,0.9230769230769231
896,4.744919806398684e-06,1.0,0.7914236783981323,0.9230769230769231
897,4.721503955806838e-06,1.0,0.7917666435241699,0.9230769230769231
898,4.705538685811916e-06,1.0,0.7919862866401672,0.9230769230769231
899,4.689573415816994e-06,1.0,0.7923266291618347,0.9230769230769231
900,4.672544037020998e-06,1.0,0.7925438284873962,0.9230769230769231
901,4.6459349505312275e-06,1.0,0.7928473353385925,0.9230769230769231
902,4.634227025235305e-06,1.0,0.7931092977523804,0.9230769230769231
903,4.611875738191884e-06,1.0,0.7933951020240784,0.9230769230769231
904,4.592717687046388e-06,1.0,0.7936447262763977,0.9230769230769231
905,4.576751962304115e-06,1.0,0.7939596772193909,0.9230769230769231
906,4.554400220513344e-06,1.0,0.7941245436668396,0.9230769230769231
907,4.5373708417173475e-06,1.0,0.7944584488868713,0.9230769230769231
908,4.5171482270234264e-06,1.0,0.7947248220443726,0.9230769230769231
909,4.5054403017275035e-06,1.0,0.7949991822242737,0.9230769230769231
910,4.484153123485157e-06,1.0,0.7953298687934875,0.9230769230769231
911,4.4649946175923105e-06,1.0,0.7955750226974487,0.9230769230769231
912,4.451158474694239e-06,1.0,0.7959145903587341,0.9230769230769231
913,4.429871296451893e-06,1.0,0.7961450815200806,0.9230769230769231
914,4.414970590005396e-06,1.0,0.79646235704422,0.9230769230769231
915,4.399004865263123e-06,1.0,0.7966812252998352,0.9230769230769231
916,4.379846814117627e-06,1.0,0.7970638275146484,0.9230769230769231
917,4.359623744676355e-06,1.0,0.7972582578659058,0.9230769230769231
918,4.339401129982434e-06,1.0,0.7975806593894958,0.9230769230769231
919,4.327693204686511e-06,1.0,0.7978770136833191,0.9230769230769231
920,4.3042773540946655e-06,1.0,0.7981661558151245,0.9230769230769231
921,4.2883120840997435e-06,1.0,0.798426628112793,0.9230769230769231
922,4.2723468141048215e-06,1.0,0.7987666726112366,0.9230769230769231
923,4.253188308211975e-06,1.0,0.798995852470398,0.9230769230769231
924,4.238287601765478e-06,1.0,0.7992944121360779,0.9230769230769231
925,4.222322331770556e-06,1.0,0.7995462417602539,0.9230769230769231
926,4.208485279377783e-06,1.0,0.7998820543289185,0.9230769230769231
927,4.189326773484936e-06,1.0,0.8000598549842834,0.9230769230769231
928,4.173361503490014e-06,1.0,0.8004170060157776,0.9230769230769231
929,4.1595253605919424e-06,1.0,0.8007355332374573,0.9230769230769231
930,4.132916274102172e-06,1.0,0.8009584546089172,0.9230769230769231
931,4.122272912354674e-06,1.0,0.801282525062561,0.9230769230769231
932,4.105243078811327e-06,1.0,0.8015584945678711,0.9230769230769231
933,4.092470589966979e-06,1.0,0.8017922043800354,0.9230769230769231
934,4.0669260670256335e-06,1.0,0.8021419644355774,0.9230769230769231
935,4.053089469380211e-06,1.0,0.8023340106010437,0.9230769230769231
936,4.033931418234715e-06,1.0,0.8027030825614929,0.9230769230769231
937,4.024351710540941e-06,1.0,0.8029723763465881,0.9230769230769231
938,4.003064532298595e-06,1.0,0.803249180316925,0.9230769230769231
939,3.988163825852098e-06,1.0,0.8035515546798706,0.9230769230769231
940,3.9775204641046e-06,1.0,0.8038567304611206,0.9230769230769231
941,3.9583619582117535e-06,1.0,0.8041337132453918,0.9230769230769231
942,3.945589469367405e-06,1.0,0.8044388890266418,0.9230769230769231
943,3.928559635824058e-06,1.0,0.8046603798866272,0.9230769230769231
944,3.911529802280711e-06,1.0,0.8050100207328796,0.9230769230769231
945,3.903015567630064e-06,1.0,0.805258572101593,0.9230769230769231
946,3.879599717038218e-06,1.0,0.805567741394043,0.9230769230769231
947,3.87108502764022e-06,1.0,0.8058255314826965,0.9230769230769231
948,3.850861958198948e-06,1.0,0.8060951232910156,0.9230769230769231
949,3.839154032903025e-06,1.0,0.8063223958015442,0.9230769230769231
950,3.822124654107029e-06,1.0,0.8066838383674622,0.9230769230769231
951,3.801901812039432e-06,1.0,0.806950569152832,0.9230769230769231
952,3.7880652143940097e-06,1.0,0.8072667717933655,0.9230769230769231
953,3.7742283893749118e-06,1.0,0.8074861168861389,0.9230769230769231
954,3.7603917917294893e-06,1.0,0.8078312873840332,0.9230769230769231
955,3.748684093807242e-06,1.0,0.8080463409423828,0.9230769230769231
956,3.7327185964386445e-06,1.0,0.8084051012992859,0.9230769230769231
957,3.7199463349679718e-06,1.0,0.808634340763092,0.9230769230769231
958,3.706109509948874e-06,1.0,0.8089547157287598,0.9230769230769231
959,3.6869512314297026e-06,1.0,0.8091827630996704,0.9230769230769231
960,3.6773719784832792e-06,1.0,0.809484601020813,0.9230769230769231
961,3.657149363789358e-06,1.0,0.8097209930419922,0.9230769230769231
962,3.6433125387702603e-06,1.0,0.8100285530090332,0.9230769230769231
963,3.628411604950088e-06,1.0,0.8102975487709045,0.9230769230769231
964,3.6103176626056666e-06,1.0,0.810590386390686,0.9230769230769231
965,3.5975451737613184e-06,1.0,0.8109217286109924,0.9230769230769231
966,3.583708576115896e-06,1.0,0.8111335039138794,0.9230769230769231
967,3.5698719784704736e-06,1.0,0.811514675617218,0.9230769230769231
968,3.549649136402877e-06,1.0,0.8117256760597229,0.9230769230769231
969,3.5400698834564537e-06,1.0,0.8120142817497253,0.9230769230769231
970,3.5241043860878563e-06,1.0,0.8122888207435608,0.9230769230769231
971,3.5155899240635335e-06,1.0,0.8125346302986145,0.9230769230769231
972,3.5006889902433613e-06,1.0,0.8128080368041992,0.9230769230769231
973,3.486852392597939e-06,1.0,0.8130550384521484,0.9230769230769231
974,3.4730157949525164e-06,1.0,0.813390851020813,0.9230769230769231
975,3.454921397860744e-06,1.0,0.8136120438575745,0.9230769230769231
976,3.444277808739571e-06,1.0,0.8139458298683167,0.9230769230769231
977,3.4304412110941485e-06,1.0,0.8141580820083618,0.9230769230769231
978,3.4176689496234758e-06,1.0,0.8144674897193909,0.9230769230769231
979,3.402767788429628e-06,1.0,0.8147169351577759,0.9230769230769231
980,3.3910598631337052e-06,1.0,0.8149976134300232,0.9230769230769231
981,3.3740302569640335e-06,1.0,0.8152422904968262,0.9230769230769231
982,3.360193659318611e-06,1.0,0.8155714869499207,0.9230769230769231
983,3.347421170474263e-06,1.0,0.8157544136047363,0.9230769230769231
984,3.3378423722751904e-06,1.0,0.8160849809646606,0.9230769230769231
985,3.3186838663823437e-06,1.0,0.8162888288497925,0.9230769230769231
986,3.31123328578542e-06,1.0,0.8165991902351379,0.9230769230769231
987,3.294203679615748e-06,1.0,0.8168302774429321,0.9230769230769231
988,3.282495754319825e-06,1.0,0.8172024488449097,0.9230769230769231
989,3.271852165198652e-06,1.0,0.8174245953559875,0.9230769230769231
990,3.2558866678300546e-06,1.0,0.8177857398986816,0.9230769230769231
991,3.2473715236847056e-06,1.0,0.8180035352706909,0.9230769230769231
992,3.234599716961384e-06,1.0,0.8182977437973022,0.9230769230769231
993,3.220762891942286e-06,1.0,0.8184991478919983,0.9230769230769231
994,3.206926066923188e-06,1.0,0.8188684582710266,0.9230769230769231
995,3.189896233379841e-06,1.0,0.8190404176712036,0.9230769230769231
996,3.179252871632343e-06,1.0,0.8193692564964294,0.9230769230769231
997,3.164351937812171e-06,1.0,0.8196081519126892,0.9230769230769231
998,3.151579448967823e-06,1.0,0.8198942542076111,0.9230769230769231
999,3.1409358598466497e-06,1.0,0.8201664686203003,0.9230769230769231
