,loss,recall,val_loss,val_recall
0,0.6564925312995911,0.634090909090909,0.708365797996521,0.1875
1,0.6114743947982788,0.7450049950049948,0.6918462514877319,0.40773809523809523
2,0.5737947225570679,0.7906153370439084,0.6448707580566406,0.7414373325087611
3,0.5420914888381958,0.8549036281179138,0.584197461605072,0.7512154512154511
4,0.5189140439033508,0.8368764172335601,0.5553424954414368,0.7664399092970521
5,0.5025632977485657,0.8727607709750567,0.5405478477478027,0.7605202337345195
6,0.494517982006073,0.87531179138322,0.524613082408905,0.7769601430315715
7,0.4830584228038788,0.8635487528344671,0.5070198774337769,0.7705498866213152
8,0.4727462828159332,0.87531179138322,0.5037884712219238,0.8300736961451246
9,0.4623453617095947,0.87531179138322,0.4716123044490814,0.8085850657279228
10,0.45054611563682556,0.8775793650793651,0.459187775850296,0.8204898276326847
11,0.4414539933204651,0.8845238095238095,0.4567298889160156,0.8458333333333333
12,0.43259868025779724,0.8934523809523809,0.46407943964004517,0.8672052154195011
13,0.42405328154563904,0.8922619047619048,0.4510497450828552,0.8660714285714286
14,0.41959598660469055,0.9011054421768707,0.4472547471523285,0.8731575963718822
15,0.4095112979412079,0.9011054421768707,0.44852572679519653,0.8860544217687075
16,0.40360793471336365,0.9113095238095238,0.49031978845596313,0.8315759637188208
17,0.4018343389034271,0.9011054421768707,0.43963488936424255,0.8968253968253969
18,0.3928660452365875,0.9183673469387755,0.44168850779533386,0.8922902494331065
19,0.3818762004375458,0.9129251700680273,0.44532695412635803,0.9087301587301587
20,0.3742675185203552,0.9373840445269017,0.42655354738235474,0.8860544217687075
21,0.3686329424381256,0.9254792826221399,0.4156349003314972,0.9087301587301587
22,0.36373814940452576,0.9523809523809524,0.43497487902641296,0.8908730158730158
23,0.3567974269390106,0.9373840445269017,0.4544767737388611,0.9087301587301587
24,0.353037029504776,0.9373840445269017,0.42564138770103455,0.885062358276644
25,0.3498289883136749,0.9373840445269017,0.4226019084453583,0.8333376940519797
26,0.34473615884780884,0.9523809523809524,0.40613245964050293,0.9087301587301587
27,0.3452520966529846,0.9438775510204083,0.41145753860473633,0.9136904761904762
28,0.3394855856895447,0.9438775510204083,0.4143974184989929,0.8934523809523809
29,0.3390181362628937,0.9373840445269017,0.40097758173942566,0.8494897959183673
30,0.331565797328949,0.9880952380952381,0.40405958890914917,0.851591662305948
31,0.32717087864875793,0.9523809523809524,0.41842272877693176,0.8968253968253969
32,0.3223119378089905,0.9438775510204083,0.3966120183467865,0.9027777777777777
33,0.3131301701068878,1.0,0.4033099114894867,0.8678048142333857
34,0.30763715505599976,0.9761904761904762,0.401741087436676,0.9027777777777777
35,0.3012140393257141,1.0,0.4015105664730072,0.8754011861154718
36,0.2983408272266388,1.0,0.3890096843242645,0.8958333333333333
37,0.29325899481773376,1.0,0.38964036107063293,0.8781179138321995
38,0.29331278800964355,1.0,0.3873535692691803,0.8749123891981034
39,0.28751856088638306,1.0,0.39497074484825134,0.9027777777777777
40,0.2867858111858368,1.0,0.384681761264801,0.8379011861154718
41,0.2872037887573242,1.0,0.37751641869544983,0.866671027385313
42,0.29177504777908325,0.9523809523809524,0.3793780505657196,0.8914399092970522
43,0.2827938497066498,1.0,0.38429543375968933,0.8958333333333333
44,0.27716073393821716,1.0,0.37282794713974,0.9107142857142857
45,0.27050283551216125,1.0,0.37107929587364197,0.8672593279736136
46,0.267575740814209,1.0,0.37008801102638245,0.8975881261595546
47,0.26197975873947144,1.0,0.390548437833786,0.8808956916099773
48,0.2593047618865967,1.0,0.37154287099838257,0.8623626373626373
49,0.2561790347099304,1.0,0.3688701093196869,0.8592447235304378
50,0.25348734855651855,1.0,0.37272724509239197,0.8987219130076273
51,0.24916277825832367,1.0,0.3652985692024231,0.8541666666666666
52,0.25060564279556274,1.0,0.37205368280410767,0.9217687074829931
53,0.2468976527452469,1.0,0.37050294876098633,0.8592447235304378
54,0.24296438694000244,1.0,0.38097286224365234,0.9036281179138321
55,0.24188032746315002,1.0,0.35700032114982605,0.869417883703598
56,0.23987343907356262,1.0,0.3508036434650421,0.869417883703598
57,0.23883607983589172,1.0,0.40363603830337524,0.9027777777777777
58,0.23817966878414154,1.0,0.36371639370918274,0.9027777777777777
59,0.231209859251976,1.0,0.36199280619621277,0.8592447235304378
60,0.22896988689899445,1.0,0.3591870367527008,0.9039983825698111
61,0.2230900675058365,1.0,0.361978679895401,0.869417883703598
62,0.21914367377758026,1.0,0.34999531507492065,0.8700156985871271
63,0.21724319458007812,1.0,0.36062750220298767,0.8904805511948368
64,0.2133234590291977,1.0,0.3608455955982208,0.8700156985871271
65,0.21085332334041595,1.0,0.35229548811912537,0.8830542473399616
66,0.20771707594394684,1.0,0.3514189124107361,0.8700156985871271
67,0.2068445384502411,1.0,0.3551346957683563,0.8920936206650492
68,0.20495064556598663,1.0,0.3509054481983185,0.8700156985871271
69,0.20267680287361145,1.0,0.365092009305954,0.8742673992673992
70,0.20337526500225067,1.0,0.3416733145713806,0.8801888587602873
71,0.20162545144557953,1.0,0.3531549870967865,0.8920936206650492
72,0.2011260688304901,1.0,0.3435882031917572,0.862419326705041
73,0.19792412221431732,1.0,0.3549935817718506,0.898076923076923
74,0.19658760726451874,1.0,0.3431205153465271,0.8700156985871271
75,0.19344279170036316,1.0,0.3439353406429291,0.8920936206650492
76,0.1917959451675415,1.0,0.34620046615600586,0.8592447235304378
77,0.18932677805423737,1.0,0.3470180928707123,0.866671027385313
78,0.18633094429969788,1.0,0.3494882583618164,0.8700156985871271
79,0.18381153047084808,1.0,0.3343757688999176,0.8801888587602873
80,0.18239791691303253,1.0,0.3492794334888458,0.881920460491889
81,0.18239320814609528,1.0,0.3448587954044342,0.866671027385313
82,0.18150345981121063,1.0,0.34376540780067444,0.869417883703598
83,0.17991292476654053,1.0,0.3322159945964813,0.8700156985871271
84,0.17699885368347168,1.0,0.34057310223579407,0.881920460491889
85,0.17605945467948914,1.0,0.3461351692676544,0.881920460491889
86,0.17437781393527985,1.0,0.33791425824165344,0.8700156985871271
87,0.17684103548526764,1.0,0.33622339367866516,0.8592447235304378
88,0.17671585083007812,1.0,0.34434738755226135,0.9247776033490318
89,0.17169120907783508,1.0,0.33231186866760254,0.8700156985871271
90,0.16870439052581787,1.0,0.32911014556884766,0.8920936206650492
91,0.16634811460971832,1.0,0.3363317549228668,0.881920460491889
92,0.16327165067195892,1.0,0.3363262712955475,0.881920460491889
93,0.16130897402763367,1.0,0.3303637206554413,0.8700156985871271
94,0.15870121121406555,1.0,0.32782217860221863,0.881920460491889
95,0.15696869790554047,1.0,0.33032599091529846,0.8920936206650492
96,0.15530194342136383,1.0,0.33682897686958313,0.881920460491889
97,0.1540035456418991,1.0,0.32654163241386414,0.8801888587602873
98,0.15367574989795685,1.0,0.3217228353023529,0.8920936206650492
99,0.1514929234981537,1.0,0.33709660172462463,0.881920460491889
100,0.15024100244045258,1.0,0.33122941851615906,0.881920460491889
101,0.14887651801109314,1.0,0.3213304877281189,0.9057299843014128
102,0.14799821376800537,1.0,0.3298165798187256,0.862419326705041
103,0.14745505154132843,1.0,0.3270970284938812,0.881920460491889
104,0.1458124965429306,1.0,0.3189370632171631,0.8920936206650492
105,0.14405883848667145,1.0,0.3221612274646759,0.8700156985871271
106,0.1431778371334076,1.0,0.33020082116127014,0.866671027385313
107,0.14349065721035004,1.0,0.3288211524486542,0.881920460491889
108,0.14342521131038666,1.0,0.31597089767456055,0.8801888587602873
109,0.14425408840179443,1.0,0.3319608271121979,0.851591662305948
110,0.14347495138645172,1.0,0.3159950077533722,0.8920936206650492
111,0.14175797998905182,1.0,0.31816163659095764,0.8700156985871271
112,0.13997845351696014,1.0,0.325873464345932,0.881920460491889
113,0.1406688541173935,1.0,0.33165058493614197,0.8547662654805511
114,0.1409408152103424,1.0,0.32142946124076843,0.915903144474573
115,0.13877813518047333,1.0,0.3257928192615509,0.869417883703598
116,0.13796834647655487,1.0,0.3100108206272125,0.8920936206650492
117,0.1356593519449234,1.0,0.3225417137145996,0.8547662654805511
118,0.13392622768878937,1.0,0.32351210713386536,0.8920936206650492
119,0.13250873982906342,1.0,0.309115469455719,0.881920460491889
120,0.13097919523715973,1.0,0.32053661346435547,0.8700156985871271
121,0.12877753376960754,1.0,0.31270286440849304,0.8920936206650492
122,0.1264888197183609,1.0,0.3169451653957367,0.8700156985871271
123,0.1252337396144867,1.0,0.3153715133666992,0.8700156985871271
124,0.12453721463680267,1.0,0.31872186064720154,0.8920936206650492
125,0.12389569729566574,1.0,0.31592756509780884,0.881920460491889
126,0.12386669963598251,1.0,0.3199518620967865,0.8920936206650492
127,0.12384138256311417,1.0,0.3089125454425812,0.881920460491889
128,0.12222938984632492,1.0,0.3238345980644226,0.866671027385313
129,0.12048577517271042,1.0,0.30883923172950745,0.881920460491889
130,0.11903633922338486,1.0,0.3188122808933258,0.8801888587602873
131,0.11746541410684586,1.0,0.31152018904685974,0.8700156985871271
132,0.11628953367471695,1.0,0.31505149602890015,0.881920460491889
133,0.11511368304491043,1.0,0.31129711866378784,0.8801888587602873
134,0.11407320201396942,1.0,0.31054815649986267,0.881920460491889
135,0.11299198120832443,1.0,0.31277814507484436,0.881920460491889
136,0.11206166446208954,1.0,0.310442179441452,0.881920460491889
137,0.11118344217538834,1.0,0.3113483488559723,0.881920460491889
138,0.11032247543334961,1.0,0.3112764060497284,0.8920936206650492
139,0.10951096564531326,1.0,0.3084637522697449,0.881920460491889
140,0.10867675393819809,1.0,0.31044864654541016,0.881920460491889
141,0.10786320269107819,1.0,0.3088817298412323,0.881920460491889
142,0.10708637535572052,1.0,0.3098585307598114,0.881920460491889
143,0.10632654279470444,1.0,0.30929532647132874,0.881920460491889
144,0.10558649152517319,1.0,0.3097262978553772,0.881920460491889
145,0.10486239939928055,1.0,0.30890822410583496,0.881920460491889
146,0.10417456179857254,1.0,0.3090856373310089,0.881920460491889
147,0.1035221591591835,1.0,0.3082980811595917,0.881920460491889
148,0.1028473973274231,1.0,0.30836910009384155,0.881920460491889
149,0.10222683846950531,1.0,0.30624040961265564,0.881920460491889
150,0.10169057548046112,1.0,0.30994483828544617,0.881920460491889
151,0.10116752237081528,1.0,0.3082060217857361,0.881920460491889
152,0.10082888603210449,1.0,0.3063639998435974,0.881920460491889
153,0.1009024903178215,1.0,0.30926066637039185,0.881920460491889
154,0.10133959352970123,1.0,0.31727054715156555,0.8743240886098028
155,0.1018880233168602,1.0,0.29932549595832825,0.8920936206650492
156,0.10138708353042603,1.0,0.30726009607315063,0.8700156985871271
157,0.10111016035079956,1.0,0.30635765194892883,0.866671027385313
158,0.10216697305440903,1.0,0.31668391823768616,0.881920460491889
159,0.10282806307077408,1.0,0.3008177876472473,0.895015698587127
160,0.10292088240385056,1.0,0.31504419445991516,0.8438252223966509
161,0.10268858820199966,1.0,0.29727134108543396,0.8920936206650492
162,0.10385143011808395,1.0,0.3108353316783905,0.8700156985871271
163,0.10459604114294052,1.0,0.30802297592163086,0.881920460491889
164,0.10356070846319199,1.0,0.3096533417701721,0.898076923076923
165,0.10162869840860367,1.0,0.2994059920310974,0.8920936206650492
166,0.09930490702390671,1.0,0.3104398548603058,0.881920460491889
167,0.0972665473818779,1.0,0.3025490343570709,0.8920936206650492
168,0.09611428529024124,1.0,0.30250486731529236,0.881920460491889
169,0.0948333740234375,1.0,0.31336137652397156,0.8742673992673992
170,0.09336192905902863,1.0,0.3022986948490143,0.881920460491889
171,0.09261304885149002,1.0,0.29350990056991577,0.8920936206650492
172,0.09078414738178253,1.0,0.297221839427948,0.8801888587602873
173,0.08987603336572647,1.0,0.3138521611690521,0.866671027385313
174,0.08891420066356659,1.0,0.3013305366039276,0.8920936206650492
175,0.08813745528459549,1.0,0.3011280596256256,0.881920460491889
176,0.08715318143367767,1.0,0.3124938905239105,0.8700156985871271
177,0.08678310364484787,1.0,0.29537874460220337,0.8920936206650492
178,0.08649354428052902,1.0,0.30757516622543335,0.8700156985871271
179,0.08630985021591187,1.0,0.309125691652298,0.866671027385313
180,0.08633226901292801,1.0,0.3054943084716797,0.8801888587602873
181,0.08568038046360016,1.0,0.30723056197166443,0.881920460491889
182,0.08444343507289886,1.0,0.3073940575122833,0.881920460491889
183,0.08352677524089813,1.0,0.29712367057800293,0.8920936206650492
184,0.08304528146982193,1.0,0.303157240152359,0.881920460491889
185,0.08240149915218353,1.0,0.3022780418395996,0.8920936206650492
186,0.08195800334215164,1.0,0.30278000235557556,0.881920460491889
187,0.08117357641458511,1.0,0.30561235547065735,0.881920460491889
188,0.080324187874794,1.0,0.2997158467769623,0.881920460491889
189,0.08006428927183151,1.0,0.30140119791030884,0.881920460491889
190,0.07967423647642136,1.0,0.3067173659801483,0.881920460491889
191,0.07913243770599365,1.0,0.2941575050354004,0.881920460491889
192,0.07908805459737778,1.0,0.3081183433532715,0.881920460491889
193,0.07874426990747452,1.0,0.2986873686313629,0.8920936206650492
194,0.07809597253799438,1.0,0.30073004961013794,0.881920460491889
195,0.077327199280262,1.0,0.30601707100868225,0.881920460491889
196,0.07666395604610443,1.0,0.30188196897506714,0.8920936206650492
197,0.07598640024662018,1.0,0.3060159981250763,0.881920460491889
198,0.07541866600513458,1.0,0.3022063076496124,0.881920460491889
199,0.07468730956315994,1.0,0.30269452929496765,0.8920936206650492
200,0.07402704656124115,1.0,0.3036990165710449,0.881920460491889
201,0.07355161756277084,1.0,0.3050742745399475,0.881920460491889
202,0.07308613508939743,1.0,0.29804274439811707,0.881920460491889
203,0.07268522679805756,1.0,0.3073689937591553,0.881920460491889
204,0.07240501791238785,1.0,0.2993462085723877,0.881920460491889
205,0.07208897918462753,1.0,0.3025934100151062,0.8920936206650492
206,0.07183169573545456,1.0,0.2958216667175293,0.881920460491889
207,0.07174783200025558,1.0,0.3112752139568329,0.881920460491889
208,0.07206039875745773,1.0,0.29859185218811035,0.881920460491889
209,0.07176344841718674,1.0,0.3068513870239258,0.8700156985871271
210,0.07113845646381378,1.0,0.29604312777519226,0.881920460491889
211,0.07057244330644608,1.0,0.30454033613204956,0.8920936206650492
212,0.07060107588768005,1.0,0.30315956473350525,0.881920460491889
213,0.07019522041082382,1.0,0.3026087284088135,0.8920936206650492
214,0.07001329958438873,1.0,0.30184945464134216,0.881920460491889
215,0.06982512772083282,1.0,0.295991450548172,0.881920460491889
216,0.06973888725042343,1.0,0.30282852053642273,0.8920936206650492
217,0.07003571838140488,1.0,0.31480851769447327,0.866671027385313
218,0.07055262476205826,1.0,0.2929515838623047,0.8920936206650492
219,0.0692855566740036,1.0,0.29971298575401306,0.881920460491889
220,0.06796693056821823,1.0,0.2993154525756836,0.8920936206650492
221,0.06712815910577774,1.0,0.29363372921943665,0.8873317159031444
222,0.0663333609700203,1.0,0.3104942739009857,0.881920460491889
223,0.06557446718215942,1.0,0.29210537672042847,0.8920936206650492
224,0.06487196683883667,1.0,0.2974214553833008,0.881920460491889
225,0.06459067016839981,1.0,0.3049008548259735,0.881920460491889
226,0.06423071026802063,1.0,0.2934717833995819,0.8920936206650492
227,0.06412934511899948,1.0,0.3110508918762207,0.8743240886098028
228,0.06370105594396591,1.0,0.2947466969490051,0.8920936206650492
229,0.06315694749355316,1.0,0.2961573600769043,0.881920460491889
230,0.06263431161642075,1.0,0.30248817801475525,0.881920460491889
231,0.06239736080169678,1.0,0.29764434695243835,0.8873317159031444
232,0.06195851042866707,1.0,0.3057279586791992,0.881920460491889
233,0.06157618388533592,1.0,0.29517367482185364,0.8920936206650492
234,0.06126232072710991,1.0,0.30669206380844116,0.881920460491889
235,0.061103787273168564,1.0,0.2986307740211487,0.8920936206650492
236,0.06059670448303223,1.0,0.29867658019065857,0.881920460491889
237,0.06037234142422676,1.0,0.30019688606262207,0.881920460491889
238,0.06000734493136406,1.0,0.30007657408714294,0.881920460491889
239,0.05946725979447365,1.0,0.30446717143058777,0.881920460491889
240,0.05929241701960564,1.0,0.30036091804504395,0.881920460491889
241,0.059184279292821884,1.0,0.2957914173603058,0.8920936206650492
242,0.05908773094415665,1.0,0.31145772337913513,0.8743240886098028
243,0.05874734744429588,1.0,0.2990399897098541,0.8920936206650492
244,0.05835037678480148,1.0,0.29998260736465454,0.881920460491889
245,0.05799276381731033,1.0,0.29981592297554016,0.8920936206650492
246,0.057977285236120224,1.0,0.30115944147109985,0.881920460491889
247,0.05788499861955643,1.0,0.29875579476356506,0.881920460491889
248,0.05739166960120201,1.0,0.29314932227134705,0.881920460491889
249,0.05701834708452225,1.0,0.30850720405578613,0.881920460491889
250,0.0570538304746151,1.0,0.2959945499897003,0.8920936206650492
251,0.05666019394993782,1.0,0.29825395345687866,0.8801888587602873
252,0.056441519409418106,1.0,0.3128817081451416,0.881920460491889
253,0.05592530593276024,1.0,0.30091261863708496,0.8920936206650492
254,0.05545498803257942,1.0,0.29958969354629517,0.881920460491889
255,0.054940223693847656,1.0,0.3015940487384796,0.881920460491889
256,0.054625604301691055,1.0,0.2996642291545868,0.881920460491889
257,0.05432593822479248,1.0,0.31204527616500854,0.866671027385313
258,0.05427377671003342,1.0,0.29472827911376953,0.8920936206650492
259,0.05397755652666092,1.0,0.30620864033699036,0.881920460491889
260,0.05353673920035362,1.0,0.30494245886802673,0.881920460491889
261,0.05316706746816635,1.0,0.2999056875705719,0.881920460491889
262,0.052978988736867905,1.0,0.30428647994995117,0.881920460491889
263,0.05265065282583237,1.0,0.3016257882118225,0.8920936206650492
264,0.05235365405678749,1.0,0.30315855145454407,0.881920460491889
265,0.05223718658089638,1.0,0.31041622161865234,0.8743240886098028
266,0.052110280841588974,1.0,0.29191258549690247,0.8920936206650492
267,0.05208698287606239,1.0,0.31543421745300293,0.881920460491889
268,0.052054036408662796,1.0,0.3001420199871063,0.881920460491889
269,0.05148453265428543,1.0,0.2972157597541809,0.8873317159031444
270,0.05115142837166786,1.0,0.3096749186515808,0.881920460491889
271,0.050813209265470505,1.0,0.29674604535102844,0.8873317159031444
272,0.050663579255342484,1.0,0.30865678191185,0.881920460491889
273,0.050056856125593185,1.0,0.2985043525695801,0.8920936206650492
274,0.04964334890246391,1.0,0.3005945086479187,0.881920460491889
275,0.049754269421100616,1.0,0.3111666142940521,0.866671027385313
276,0.05021713301539421,1.0,0.29272598028182983,0.9021585557299842
277,0.050256043672561646,1.0,0.3095252513885498,0.881920460491889
278,0.0506761260330677,1.0,0.2853826880455017,0.9021585557299842
279,0.04975191131234169,1.0,0.3090822696685791,0.8771585557299842
280,0.04929928109049797,1.0,0.3016299903392792,0.8920936206650492
281,0.050917208194732666,1.0,0.2963699698448181,0.9021585557299842
282,0.053720805794000626,1.0,0.3432873785495758,0.866671027385313
283,0.05715656280517578,1.0,0.29286471009254456,0.9140633176347462
284,0.0582721121609211,1.0,0.3004778325557709,0.8646559789416932
285,0.057432450354099274,1.0,0.3007284700870514,0.8843864468864469
286,0.055221524089574814,1.0,0.28232863545417786,0.881920460491889
287,0.05451706796884537,1.0,0.2926867604255676,0.8920936206650492
288,0.056285347789525986,1.0,0.3060210049152374,0.881920460491889
289,0.06137299910187721,1.0,0.30823779106140137,0.8742673992673992
290,0.06265848129987717,1.0,0.31772714853286743,0.881920460491889
291,0.06354615092277527,1.0,0.28266510367393494,0.9225048760763046
292,0.057778630405664444,1.0,0.30060166120529175,0.8819204604918891
293,0.05519169569015503,1.0,0.3007139563560486,0.866671027385313
294,0.05433526262640953,1.0,0.28742715716362,0.8902537938252223
295,0.05020121857523918,1.0,0.29160061478614807,0.881920460491889
296,0.04791479557752609,1.0,0.28996768593788147,0.8801888587602873
297,0.04700315743684769,1.0,0.2869047224521637,0.881920460491889
298,0.046914927661418915,1.0,0.2812114357948303,0.9021585557299842
299,0.047056231647729874,1.0,0.2985963225364685,0.881920460491889
300,0.04665644094347954,1.0,0.28741738200187683,0.8873317159031444
301,0.04584189131855965,1.0,0.28383496403694153,0.8873317159031444
302,0.04502406716346741,1.0,0.3040013313293457,0.8920936206650492
303,0.04389991983771324,1.0,0.28587087988853455,0.8873317159031444
304,0.04332054778933525,1.0,0.2998521029949188,0.8920936206650492
305,0.042739398777484894,1.0,0.2925119996070862,0.8873317159031444
306,0.04228938743472099,1.0,0.295666366815567,0.881920460491889
307,0.04199519753456116,1.0,0.29491153359413147,0.8920936206650492
308,0.04170927032828331,1.0,0.29295656085014343,0.8920936206650492
309,0.041498273611068726,1.0,0.29494085907936096,0.8873317159031444
310,0.041343219578266144,1.0,0.29680463671684265,0.8920936206650492
311,0.0411272831261158,1.0,0.2982943058013916,0.881920460491889
312,0.040912412106990814,1.0,0.29637712240219116,0.8920936206650492
313,0.04059848561882973,1.0,0.29863807559013367,0.8920936206650492
314,0.04038850590586662,1.0,0.29609033465385437,0.8920936206650492
315,0.04025859385728836,1.0,0.29627150297164917,0.881920460491889
316,0.04012322425842285,1.0,0.3010272681713104,0.881920460491889
317,0.03986392170190811,1.0,0.2974734604358673,0.8920936206650492
318,0.03968415409326553,1.0,0.29837292432785034,0.8920936206650492
319,0.03954123705625534,1.0,0.2993190586566925,0.881920460491889
320,0.03926604613661766,1.0,0.29850438237190247,0.881920460491889
321,0.03899940475821495,1.0,0.298554390668869,0.8920936206650492
322,0.038794223219156265,1.0,0.29970139265060425,0.881920460491889
323,0.038647864013910294,1.0,0.29954126477241516,0.881920460491889
324,0.038503486663103104,1.0,0.30123087763786316,0.881920460491889
325,0.03831924870610237,1.0,0.298902690410614,0.8920936206650492
326,0.038107000291347504,1.0,0.30187782645225525,0.881920460491889
327,0.0378570593893528,1.0,0.29918739199638367,0.8920936206650492
328,0.037631332874298096,1.0,0.30064699053764343,0.881920460491889
329,0.03743939474225044,1.0,0.29847559332847595,0.8920936206650492
330,0.03726286441087723,1.0,0.3013276755809784,0.881920460491889
331,0.03707646578550339,1.0,0.29933810234069824,0.8920936206650492
332,0.03694230318069458,1.0,0.30244800448417664,0.881920460491889
333,0.03681671991944313,1.0,0.29935845732688904,0.8920936206650492
334,0.0368298664689064,1.0,0.30283695459365845,0.8920936206650492
335,0.036801595240831375,1.0,0.29996320605278015,0.881920460491889
336,0.036673419177532196,1.0,0.30528849363327026,0.8920936206650492
337,0.03651536628603935,1.0,0.29868587851524353,0.881920460491889
338,0.03618725761771202,1.0,0.30232587456703186,0.881920460491889
339,0.03615540638566017,1.0,0.30170726776123047,0.8920936206650492
340,0.035887617617845535,1.0,0.3041013181209564,0.881920460491889
341,0.03573762997984886,1.0,0.3029608726501465,0.881920460491889
342,0.03561166301369667,1.0,0.3064711391925812,0.881920460491889
343,0.035796552896499634,1.0,0.3018687069416046,0.8873317159031444
344,0.03547597676515579,1.0,0.3046753406524658,0.881920460491889
345,0.03521615266799927,1.0,0.3023301064968109,0.881920460491889
346,0.0351606085896492,1.0,0.30420252680778503,0.8920936206650492
347,0.03501270338892937,1.0,0.3020950257778168,0.8920936206650492
348,0.03505687043070793,1.0,0.3042449355125427,0.881920460491889
349,0.034896183758974075,1.0,0.30464664101600647,0.8873317159031444
350,0.03490389138460159,1.0,0.30082273483276367,0.881920460491889
351,0.034670569002628326,1.0,0.3096502423286438,0.881920460491889
352,0.03432920202612877,1.0,0.3028009235858917,0.8873317159031444
353,0.03428823500871658,1.0,0.3126108646392822,0.881920460491889
354,0.033945269882678986,1.0,0.301094114780426,0.8920936206650492
355,0.033793818205595016,1.0,0.3105979561805725,0.881920460491889
356,0.03354256972670555,1.0,0.3036867678165436,0.8920936206650492
357,0.033388953655958176,1.0,0.3108832538127899,0.881920460491889
358,0.03320510685443878,1.0,0.30454570055007935,0.8873317159031444
359,0.03304216265678406,1.0,0.31409576535224915,0.881920460491889
360,0.03285042196512222,1.0,0.30281659960746765,0.8920936206650492
361,0.032577674835920334,1.0,0.3094840347766876,0.881920460491889
362,0.03242248669266701,1.0,0.30578428506851196,0.8920936206650492
363,0.03220682963728905,1.0,0.30969324707984924,0.881920460491889
364,0.0320456400513649,1.0,0.30497097969055176,0.8873317159031444
365,0.03191377967596054,1.0,0.3090159296989441,0.881920460491889
366,0.03176301345229149,1.0,0.306052029132843,0.8920936206650492
367,0.03166491165757179,1.0,0.3071146011352539,0.8920936206650492
368,0.03167003020644188,1.0,0.3072323501110077,0.8920936206650492
369,0.031585387885570526,1.0,0.31300488114356995,0.881920460491889
370,0.03148140758275986,1.0,0.3077901005744934,0.881920460491889
371,0.031304214149713516,1.0,0.306081622838974,0.8873317159031444
372,0.03118916228413582,1.0,0.3135375380516052,0.881920460491889
373,0.031076237559318542,1.0,0.3040698170661926,0.8920936206650492
374,0.030828779563307762,1.0,0.31138676404953003,0.881920460491889
375,0.030613329261541367,1.0,0.30889108777046204,0.881920460491889
376,0.030528930947184563,1.0,0.31278350949287415,0.8920936206650492
377,0.030493546277284622,1.0,0.31098756194114685,0.881920460491889
378,0.030236708000302315,1.0,0.30822378396987915,0.881920460491889
379,0.03022732026875019,1.0,0.3112325370311737,0.881920460491889
380,0.030066460371017456,1.0,0.3130633533000946,0.881920460491889
381,0.030032632872462273,1.0,0.31427818536758423,0.881920460491889
382,0.029951300472021103,1.0,0.30262213945388794,0.8920936206650492
383,0.03002231940627098,1.0,0.31335362792015076,0.881920460491889
384,0.029817264527082443,1.0,0.3097650110721588,0.8920936206650492
385,0.029624104499816895,1.0,0.311018705368042,0.8771585557299842
386,0.029500853270292282,1.0,0.30721983313560486,0.8873317159031444
387,0.029405193403363228,1.0,0.3096287250518799,0.881920460491889
388,0.029424387961626053,1.0,0.30900686979293823,0.8873317159031444
389,0.02925640530884266,1.0,0.3173061013221741,0.881920460491889
390,0.029157981276512146,1.0,0.3075697124004364,0.8873317159031444
391,0.02905590832233429,1.0,0.31729286909103394,0.881920460491889
392,0.028858790174126625,1.0,0.3020575940608978,0.8873317159031444
393,0.028629345819354057,1.0,0.31603455543518066,0.881920460491889
394,0.028451770544052124,1.0,0.309087336063385,0.8873317159031444
395,0.028348276391625404,1.0,0.3130617141723633,0.881920460491889
396,0.02831391990184784,1.0,0.3098011910915375,0.8873317159031444
397,0.0280280951410532,1.0,0.31274595856666565,0.881920460491889
398,0.027918236330151558,1.0,0.30962109565734863,0.8920936206650492
399,0.02778870239853859,1.0,0.31302759051322937,0.8920936206650492
400,0.0277041494846344,1.0,0.3134962022304535,0.8771585557299842
401,0.027656039223074913,1.0,0.3162360191345215,0.881920460491889
402,0.02760869637131691,1.0,0.3082631230354309,0.8873317159031444
403,0.027513599023222923,1.0,0.3171793818473816,0.881920460491889
404,0.027530482038855553,1.0,0.30649396777153015,0.8873317159031444
405,0.027507359161973,1.0,0.31686148047447205,0.881920460491889
406,0.027345921844244003,1.0,0.3115866780281067,0.8873317159031444
407,0.027138175442814827,1.0,0.31604188680648804,0.881920460491889
408,0.027019763365387917,1.0,0.3103885352611542,0.8873317159031444
409,0.026947051286697388,1.0,0.3171940743923187,0.881920460491889
410,0.02683226764202118,1.0,0.31211477518081665,0.8873317159031444
411,0.02660701796412468,1.0,0.3165726065635681,0.881920460491889
412,0.026433471590280533,1.0,0.31253793835639954,0.8771585557299842
413,0.02638549916446209,1.0,0.3176385760307312,0.881920460491889
414,0.026202306151390076,1.0,0.3111804127693176,0.8873317159031444
415,0.026083191856741905,1.0,0.3205747604370117,0.881920460491889
416,0.02595505490899086,1.0,0.30974170565605164,0.8873317159031444
417,0.025812922045588493,1.0,0.3164120614528656,0.881920460491889
418,0.02580241858959198,1.0,0.3107530176639557,0.8873317159031444
419,0.02574734203517437,1.0,0.32183367013931274,0.881920460491889
420,0.025711065158247948,1.0,0.31269532442092896,0.8873317159031444
421,0.02554374374449253,1.0,0.3166579604148865,0.881920460491889
422,0.02536657080054283,1.0,0.3165927827358246,0.8873317159031444
423,0.025213386863470078,1.0,0.3159952461719513,0.881920460491889
424,0.025144483894109726,1.0,0.31336668133735657,0.8873317159031444
425,0.025019168853759766,1.0,0.32084888219833374,0.881920460491889
426,0.02491001784801483,1.0,0.3142642378807068,0.8920936206650492
427,0.024806048721075058,1.0,0.31692782044410706,0.8873317159031444
428,0.02475731261074543,1.0,0.3187076449394226,0.8771585557299842
429,0.02462996169924736,1.0,0.31930118799209595,0.881920460491889
430,0.024662943556904793,1.0,0.3152998089790344,0.881920460491889
431,0.02469177357852459,1.0,0.3200981616973877,0.8771585557299842
432,0.02455802448093891,1.0,0.3150494694709778,0.881920460491889
433,0.024379083886742592,1.0,0.3169845640659332,0.8873317159031444
434,0.024265572428703308,1.0,0.31166213750839233,0.881920460491889
435,0.024099942296743393,1.0,0.3161037266254425,0.8920936206650492
436,0.024035152047872543,1.0,0.31583306193351746,0.881920460491889
437,0.0240057110786438,1.0,0.3178306519985199,0.8873317159031444
438,0.023926930502057076,1.0,0.32119593024253845,0.881920460491889
439,0.023851338773965836,1.0,0.3119620680809021,0.8873317159031444
440,0.023703129962086678,1.0,0.3199158310890198,0.8771585557299842
441,0.02362651936709881,1.0,0.31124696135520935,0.8873317159031444
442,0.023475822061300278,1.0,0.32691940665245056,0.881920460491889
443,0.023413239046931267,1.0,0.31323838233947754,0.8920936206650492
444,0.02321532741189003,1.0,0.3177254796028137,0.8873317159031444
445,0.0231389869004488,1.0,0.3217603266239166,0.8771585557299842
446,0.023167503997683525,1.0,0.3205872178077698,0.881920460491889
447,0.022973477840423584,1.0,0.31423935294151306,0.8873317159031444
448,0.02277080900967121,1.0,0.32282596826553345,0.881920460491889
449,0.022694945335388184,1.0,0.3169625401496887,0.8920936206650492
450,0.02266043610870838,1.0,0.32146260142326355,0.881920460491889
451,0.022538335993885994,1.0,0.3198424279689789,0.8873317159031444
452,0.02239624224603176,1.0,0.3229075074195862,0.8920936206650492
453,0.0223058070987463,1.0,0.31804922223091125,0.8873317159031444
454,0.02228412963449955,1.0,0.3194906413555145,0.881920460491889
455,0.022189298644661903,1.0,0.32137081027030945,0.881920460491889
456,0.022047284990549088,1.0,0.32532253861427307,0.8771585557299842
457,0.0219550933688879,1.0,0.31906193494796753,0.8873317159031444
458,0.02188076265156269,1.0,0.32239222526550293,0.881920460491889
459,0.021784190088510513,1.0,0.3222125172615051,0.881920460491889
460,0.021804863587021828,1.0,0.32309556007385254,0.8771585557299842
461,0.021768871694803238,1.0,0.3199617862701416,0.8920936206650492
462,0.021605640649795532,1.0,0.3247372806072235,0.881920460491889
463,0.021578093990683556,1.0,0.3214744031429291,0.8873317159031444
464,0.021581429988145828,1.0,0.324558287858963,0.8771585557299842
465,0.021464088931679726,1.0,0.3245387375354767,0.881920460491889
466,0.021244877949357033,1.0,0.3240320086479187,0.881920460491889
467,0.021165756508708,1.0,0.3188350200653076,0.8873317159031444
468,0.021097470074892044,1.0,0.3282659947872162,0.881920460491889
469,0.021060368046164513,1.0,0.32106637954711914,0.8873317159031444
470,0.02102128602564335,1.0,0.32565948367118835,0.881920460491889
471,0.020976778119802475,1.0,0.3227672874927521,0.8873317159031444
472,0.020807724446058273,1.0,0.33138802647590637,0.881920460491889
473,0.02072308585047722,1.0,0.31828758120536804,0.8920936206650492
474,0.0206607636064291,1.0,0.3265000283718109,0.8771585557299842
475,0.020708611235022545,1.0,0.3245076835155487,0.881920460491889
476,0.020606640726327896,1.0,0.32964321970939636,0.881920460491889
477,0.02055259980261326,1.0,0.32224956154823303,0.881920460491889
478,0.02049405686557293,1.0,0.3272607624530792,0.8920936206650492
479,0.020488107576966286,1.0,0.3259386420249939,0.881920460491889
480,0.020432308316230774,1.0,0.3211502432823181,0.8771585557299842
481,0.020491838455200195,1.0,0.3270536959171295,0.881920460491889
482,0.020578142255544662,1.0,0.32375645637512207,0.8873317159031444
483,0.020601356402039528,1.0,0.32711514830589294,0.881920460491889
484,0.02076885476708412,1.0,0.3184043765068054,0.8754269539983826
485,0.02065672166645527,1.0,0.323272168636322,0.881920460491889
486,0.020880529657006264,1.0,0.317892849445343,0.8902537938252223
487,0.02067284658551216,1.0,0.33400389552116394,0.8742673992673992
488,0.02066091075539589,1.0,0.3142842948436737,0.8920936206650492
489,0.02047293819487095,1.0,0.31762340664863586,0.8920936206650492
490,0.020687978714704514,1.0,0.31624874472618103,0.8771585557299842
491,0.021972233429551125,1.0,0.33381780982017517,0.8742673992673992
492,0.02607164904475212,1.0,0.30613160133361816,0.8932840968555255
493,0.037241000682115555,1.0,0.4348851144313812,0.8743240886098028
494,0.10260654985904694,0.9880952380952381,0.6208130717277527,0.7846132042560613
495,0.18654713034629822,0.9197278911564626,1.2418458461761475,0.8280303030303029
496,0.20403540134429932,0.8732142857142857,0.34148117899894714,0.8760204081632653
497,0.127529114484787,0.9816017316017316,0.42816615104675293,0.8658730158730158
498,0.1058095321059227,0.9935064935064936,0.32069164514541626,0.9029761904761904
499,0.0922045037150383,1.0,0.33865219354629517,0.872623408337694
500,0.09779010713100433,0.9761904761904762,0.307732492685318,0.9020124716553288
501,0.07160460948944092,0.9761904761904762,0.2662821412086487,0.916893424036281
502,0.05688980221748352,1.0,0.28987741470336914,0.8840421483278625
503,0.04494961351156235,1.0,0.3056755065917969,0.8967817896389324
504,0.03772342577576637,1.0,0.27943140268325806,0.9030743066457351
505,0.032261304557323456,1.0,0.2792806923389435,0.8890633176347461
506,0.02905072085559368,1.0,0.2708815336227417,0.8980460016174302
507,0.027217119932174683,1.0,0.2696235775947571,0.9081109366823652
508,0.025836795568466187,1.0,0.2755715250968933,0.8932840968555255
509,0.024670397862792015,1.0,0.27724674344062805,0.8932840968555255
510,0.02385690249502659,1.0,0.2783002257347107,0.8932840968555255
511,0.023167122155427933,1.0,0.27824273705482483,0.8932840968555255
512,0.022565940394997597,1.0,0.2775939106941223,0.8932840968555255
513,0.022046135738492012,1.0,0.27764153480529785,0.8932840968555255
514,0.02159523032605648,1.0,0.27815091609954834,0.8932840968555255
515,0.021171828731894493,1.0,0.27791959047317505,0.8932840968555255
516,0.020788222551345825,1.0,0.27932554483413696,0.8932840968555255
517,0.0204380601644516,1.0,0.27941685914993286,0.8932840968555255
518,0.020151900127530098,1.0,0.2796773314476013,0.8932840968555255
519,0.019884610548615456,1.0,0.27896949648857117,0.8932840968555255
520,0.019611699506640434,1.0,0.2797448933124542,0.8932840968555255
521,0.019342053681612015,1.0,0.2793673574924469,0.8932840968555255
522,0.0191363375633955,1.0,0.2795259654521942,0.9081109366823652
523,0.018910320475697517,1.0,0.28061211109161377,0.9081109366823652
524,0.01872682385146618,1.0,0.2823529839515686,0.9081109366823652
525,0.018514303490519524,1.0,0.2805114686489105,0.8932840968555255
526,0.01834850199520588,1.0,0.2818255126476288,0.9081109366823652
527,0.018163148313760757,1.0,0.28238654136657715,0.9081109366823652
528,0.018029524013400078,1.0,0.28360822796821594,0.9081109366823652
529,0.01785188727080822,1.0,0.281063973903656,0.9081109366823652
530,0.0177095178514719,1.0,0.2837482988834381,0.9081109366823652
531,0.017577406018972397,1.0,0.28398725390434265,0.9081109366823652
532,0.017463097348809242,1.0,0.28431418538093567,0.9081109366823652
533,0.017304832115769386,1.0,0.28297704458236694,0.9081109366823652
534,0.01720011606812477,1.0,0.28457823395729065,0.9081109366823652
535,0.017097095027565956,1.0,0.28351807594299316,0.9081109366823652
536,0.0169979277998209,1.0,0.28576865792274475,0.9081109366823652
537,0.01685309037566185,1.0,0.28417444229125977,0.9081109366823652
538,0.016736429184675217,1.0,0.28649893403053284,0.9081109366823652
539,0.016626721248030663,1.0,0.2852279543876648,0.9081109366823652
540,0.016529621556401253,1.0,0.28644901514053345,0.9081109366823652
541,0.016432663425803185,1.0,0.2851890027523041,0.91287284144427
542,0.01632133685052395,1.0,0.28592756390571594,0.91287284144427
543,0.01622355356812477,1.0,0.2856273353099823,0.91287284144427
544,0.016161803156137466,1.0,0.2893016040325165,0.9081109366823652
545,0.016111595556139946,1.0,0.28603050112724304,0.91287284144427
546,0.016035253182053566,1.0,0.2871370315551758,0.91287284144427
547,0.015954582020640373,1.0,0.2866691052913666,0.91287284144427
548,0.01581401564180851,1.0,0.28827551007270813,0.9081109366823652
549,0.0157276913523674,1.0,0.28780221939086914,0.9081109366823652
550,0.01565703935921192,1.0,0.2882471978664398,0.91287284144427
551,0.015515015460550785,1.0,0.28976359963417053,0.91287284144427
552,0.01543512661010027,1.0,0.28992000222206116,0.9081109366823652
553,0.015322786755859852,1.0,0.2883572280406952,0.91287284144427
554,0.015248226001858711,1.0,0.28926101326942444,0.91287284144427
555,0.01516851969063282,1.0,0.2887107729911804,0.9081109366823652
556,0.015124120749533176,1.0,0.2899515926837921,0.91287284144427
557,0.01511046476662159,1.0,0.2882389724254608,0.91287284144427
558,0.015113689005374908,1.0,0.2915458381175995,0.91287284144427
559,0.015078723430633545,1.0,0.2885952591896057,0.91287284144427
560,0.015014730393886566,1.0,0.29222583770751953,0.91287284144427
561,0.014963927678763866,1.0,0.2903671860694885,0.91287284144427
562,0.01478584948927164,1.0,0.2911014258861542,0.91287284144427
563,0.014739306643605232,1.0,0.2908196449279785,0.91287284144427
564,0.014668540097773075,1.0,0.2926787734031677,0.91287284144427
565,0.01459483988583088,1.0,0.29028937220573425,0.91287284144427
566,0.01450483687222004,1.0,0.29321715235710144,0.91287284144427
567,0.014477583579719067,1.0,0.29123374819755554,0.91287284144427
568,0.014404939487576485,1.0,0.2932426929473877,0.91287284144427
569,0.014313653111457825,1.0,0.293637216091156,0.91287284144427
570,0.014214751310646534,1.0,0.2920897901058197,0.91287284144427
571,0.014168934896588326,1.0,0.29214730858802795,0.91287284144427
572,0.014139024540781975,1.0,0.29474565386772156,0.91287284144427
573,0.014119608327746391,1.0,0.29384884238243103,0.91287284144427
574,0.0140595817938447,1.0,0.29391956329345703,0.91287284144427
575,0.01395997405052185,1.0,0.2909257709980011,0.91287284144427
576,0.013900249265134335,1.0,0.2971957325935364,0.91287284144427
577,0.013862003572285175,1.0,0.29610079526901245,0.91287284144427
578,0.013807692565023899,1.0,0.29631558060646057,0.91287284144427
579,0.0137484697625041,1.0,0.2949318289756775,0.91287284144427
580,0.013747451826930046,1.0,0.29481250047683716,0.91287284144427
581,0.01373689342290163,1.0,0.2942843437194824,0.91287284144427
582,0.013614663854241371,1.0,0.2962358295917511,0.91287284144427
583,0.01352676097303629,1.0,0.2958829700946808,0.91287284144427
584,0.01350151002407074,1.0,0.2988589107990265,0.91287284144427
585,0.013407894410192966,1.0,0.29524269700050354,0.91287284144427
586,0.01334305014461279,1.0,0.29563841223716736,0.91287284144427
587,0.013327866792678833,1.0,0.297685831785202,0.91287284144427
588,0.01326579786837101,1.0,0.2988468110561371,0.91287284144427
589,0.013212406076490879,1.0,0.2966999411582947,0.91287284144427
590,0.013229458592832088,1.0,0.29843467473983765,0.91287284144427
591,0.013272034004330635,1.0,0.29627755284309387,0.91287284144427
592,0.013174064457416534,1.0,0.3036775290966034,0.91287284144427
593,0.013137253001332283,1.0,0.29767999053001404,0.91287284144427
594,0.013059720396995544,1.0,0.29856711626052856,0.91287284144427
595,0.012922105379402637,1.0,0.3020035922527313,0.91287284144427
596,0.012847249396145344,1.0,0.2984789311885834,0.91287284144427
597,0.012847687117755413,1.0,0.2973122000694275,0.91287284144427
598,0.01282491534948349,1.0,0.300965279340744,0.91287284144427
599,0.01273940596729517,1.0,0.3001788556575775,0.91287284144427
600,0.01271121483296156,1.0,0.30146345496177673,0.91287284144427
601,0.012638704851269722,1.0,0.30050966143608093,0.91287284144427
602,0.012636224739253521,1.0,0.301545113325119,0.91287284144427
603,0.012550113722682,1.0,0.29960009455680847,0.91287284144427
604,0.01254372950643301,1.0,0.2998543083667755,0.91287284144427
605,0.01248981524258852,1.0,0.3002763092517853,0.91287284144427
606,0.012416592799127102,1.0,0.30176275968551636,0.91287284144427
607,0.012392471544444561,1.0,0.3022182881832123,0.91287284144427
608,0.012319992296397686,1.0,0.298637330532074,0.91287284144427
609,0.012279098853468895,1.0,0.3027002811431885,0.91287284144427
610,0.012236446142196655,1.0,0.30325832962989807,0.91287284144427
611,0.01225303579121828,1.0,0.3022885322570801,0.91287284144427
612,0.01221206784248352,1.0,0.30091652274131775,0.91287284144427
613,0.012136968784034252,1.0,0.302808940410614,0.91287284144427
614,0.012077836319804192,1.0,0.2998266816139221,0.91287284144427
615,0.012101239524781704,1.0,0.3067159354686737,0.91287284144427
616,0.012061752378940582,1.0,0.3071611225605011,0.91287284144427
617,0.01198227796703577,1.0,0.29967811703681946,0.91287284144427
618,0.011928384192287922,1.0,0.3038875460624695,0.91287284144427
619,0.011912206187844276,1.0,0.3020196557044983,0.91287284144427
620,0.0119156613945961,1.0,0.3064766824245453,0.91287284144427
621,0.011821171268820763,1.0,0.3061421513557434,0.91287284144427
622,0.011781121604144573,1.0,0.30596277117729187,0.91287284144427
623,0.011696537025272846,1.0,0.30499452352523804,0.91287284144427
624,0.01165896188467741,1.0,0.30315253138542175,0.91287284144427
625,0.011627611704170704,1.0,0.3101719915866852,0.91287284144427
626,0.011617236770689487,1.0,0.3038358986377716,0.91287284144427
627,0.011576003395020962,1.0,0.30447250604629517,0.91287284144427
628,0.011552794836461544,1.0,0.3069345951080322,0.91287284144427
629,0.011490129865705967,1.0,0.3054657578468323,0.91287284144427
630,0.011547388508915901,1.0,0.3046412169933319,0.91287284144427
631,0.011418106965720654,1.0,0.30592527985572815,0.91287284144427
632,0.011293871328234673,1.0,0.3083840012550354,0.91287284144427
633,0.011351176537573338,1.0,0.30614638328552246,0.91287284144427
634,0.011309726163744926,1.0,0.307052344083786,0.91287284144427
635,0.0112411854788661,1.0,0.30532923340797424,0.91287284144427
636,0.011267215013504028,1.0,0.3058280050754547,0.91287284144427
637,0.01118761207908392,1.0,0.3106411099433899,0.91287284144427
638,0.011126205325126648,1.0,0.30372053384780884,0.91287284144427
639,0.011180325411260128,1.0,0.31043103337287903,0.91287284144427
640,0.011223404668271542,1.0,0.3100716769695282,0.91287284144427
641,0.01107027381658554,1.0,0.3087494671344757,0.91287284144427
642,0.010946842841804028,1.0,0.3086790144443512,0.91287284144427
643,0.010869592428207397,1.0,0.3046260178089142,0.91287284144427
644,0.01087111234664917,1.0,0.31170234084129333,0.91287284144427
645,0.010888698510825634,1.0,0.3110449016094208,0.91287284144427
646,0.010821477510035038,1.0,0.30548304319381714,0.91287284144427
647,0.010780404321849346,1.0,0.31035536527633667,0.91287284144427
648,0.010737637989223003,1.0,0.3095400929450989,0.91287284144427
649,0.010739722289144993,1.0,0.31150302290916443,0.91287284144427
650,0.010726082138717175,1.0,0.3100356161594391,0.91287284144427
651,0.010677644051611423,1.0,0.30736494064331055,0.91287284144427
652,0.010591593571007252,1.0,0.3097114861011505,0.91287284144427
653,0.01056540198624134,1.0,0.31097620725631714,0.91287284144427
654,0.010546599514782429,1.0,0.3128812909126282,0.91287284144427
655,0.010615619830787182,1.0,0.3075411021709442,0.91287284144427
656,0.010519847273826599,1.0,0.31303170323371887,0.91287284144427
657,0.010463272221386433,1.0,0.3139486014842987,0.91287284144427
658,0.010390492156147957,1.0,0.3088532090187073,0.91287284144427
659,0.01038416475057602,1.0,0.3139529526233673,0.91287284144427
660,0.010345319285988808,1.0,0.3122739791870117,0.91287284144427
661,0.010319984517991543,1.0,0.3124542832374573,0.91287284144427
662,0.010250999592244625,1.0,0.3110350966453552,0.91287284144427
663,0.010262071155011654,1.0,0.3115995228290558,0.91287284144427
664,0.010243743658065796,1.0,0.31375107169151306,0.91287284144427
665,0.010225338861346245,1.0,0.31328505277633667,0.91287284144427
666,0.010125534608960152,1.0,0.31105735898017883,0.91287284144427
667,0.010075273923575878,1.0,0.3122498393058777,0.91287284144427
668,0.01005431730300188,1.0,0.3156173825263977,0.91287284144427
669,0.010018886998295784,1.0,0.31119051575660706,0.91287284144427
670,0.010003316216170788,1.0,0.3151552975177765,0.91287284144427
671,0.010035310871899128,1.0,0.3159165382385254,0.91287284144427
672,0.009971022605895996,1.0,0.3110527992248535,0.91287284144427
673,0.009881863370537758,1.0,0.3141959607601166,0.91287284144427
674,0.009854530915617943,1.0,0.3127668499946594,0.91287284144427
675,0.00989536102861166,1.0,0.31636935472488403,0.91287284144427
676,0.009856000542640686,1.0,0.31615930795669556,0.91287284144427
677,0.009762950241565704,1.0,0.31342247128486633,0.91287284144427
678,0.009727695025503635,1.0,0.3170006573200226,0.91287284144427
679,0.009729037992656231,1.0,0.31467512249946594,0.91287284144427
680,0.009674429893493652,1.0,0.31515631079673767,0.91287284144427
681,0.009654347784817219,1.0,0.31512361764907837,0.91287284144427
682,0.009592609480023384,1.0,0.3150478005409241,0.91287284144427
683,0.009565110318362713,1.0,0.32087865471839905,0.91287284144427
684,0.00962521880865097,1.0,0.3141164481639862,0.91287284144427
685,0.009523587301373482,1.0,0.3173491656780243,0.91287284144427
686,0.009454092010855675,1.0,0.3208004832267761,0.91287284144427
687,0.009439624845981598,1.0,0.31213751435279846,0.91287284144427
688,0.009439324028789997,1.0,0.321461945772171,0.91287284144427
689,0.009373820386826992,1.0,0.3214571475982666,0.91287284144427
690,0.00932301115244627,1.0,0.3137513995170593,0.91287284144427
691,0.009307957254350185,1.0,0.323762446641922,0.91287284144427
692,0.009306737221777439,1.0,0.3204226791858673,0.91287284144427
693,0.009279799647629261,1.0,0.31372812390327454,0.91287284144427
694,0.009231251664459705,1.0,0.3191966414451599,0.91287284144427
695,0.009212070144712925,1.0,0.32021936774253845,0.91287284144427
696,0.00916976761072874,1.0,0.3200789988040924,0.91287284144427
697,0.009191291406750679,1.0,0.3161080479621887,0.91287284144427
698,0.009161385707557201,1.0,0.31983932852745056,0.91287284144427
699,0.009090612642467022,1.0,0.32482999563217163,0.91287284144427
700,0.009075461886823177,1.0,0.3164821267127991,0.91287284144427
701,0.009076741524040699,1.0,0.32156094908714294,0.91287284144427
702,0.009036843664944172,1.0,0.32364287972450256,0.91287284144427
703,0.008959263563156128,1.0,0.3139823079109192,0.91287284144427
704,0.008971278555691242,1.0,0.32634708285331726,0.91287284144427
705,0.008995003998279572,1.0,0.3249413073062897,0.91287284144427
706,0.008883124217391014,1.0,0.3148810565471649,0.91287284144427
707,0.008811984211206436,1.0,0.3246707022190094,0.91287284144427
708,0.008831429295241833,1.0,0.3237907290458679,0.91287284144427
709,0.008808190934360027,1.0,0.3178379237651825,0.91287284144427
710,0.008739796467125416,1.0,0.32334545254707336,0.91287284144427
711,0.008688432164490223,1.0,0.32172802090644836,0.91287284144427
712,0.008701394312083721,1.0,0.3260624408721924,0.9081109366823652
713,0.00872325710952282,1.0,0.3260287344455719,0.91287284144427
714,0.008620061911642551,1.0,0.31768709421157837,0.91287284144427
715,0.008594860322773457,1.0,0.32462364435195923,0.91287284144427
716,0.008623522706329823,1.0,0.32418662309646606,0.91287284144427
717,0.008586994372308254,1.0,0.3223232924938202,0.91287284144427
718,0.008525753393769264,1.0,0.3253456950187683,0.91287284144427
719,0.008502071723341942,1.0,0.3217485249042511,0.91287284144427
720,0.008452227339148521,1.0,0.3233746588230133,0.91287284144427
721,0.008446348831057549,1.0,0.325732946395874,0.91287284144427
722,0.008397812955081463,1.0,0.32393985986709595,0.91287284144427
723,0.008364704437553883,1.0,0.32272031903266907,0.91287284144427
724,0.008348078466951847,1.0,0.3254297375679016,0.91287284144427
725,0.008329829201102257,1.0,0.3299638628959656,0.91287284144427
726,0.00832036230713129,1.0,0.32310861349105835,0.91287284144427
727,0.008311615325510502,1.0,0.32305407524108887,0.91287284144427
728,0.00825597532093525,1.0,0.33043599128723145,0.91287284144427
729,0.008243230171501637,1.0,0.32567068934440613,0.91287284144427
730,0.008240912109613419,1.0,0.32662609219551086,0.91287284144427
731,0.008176186122000217,1.0,0.3286511301994324,0.91287284144427
732,0.008132316172122955,1.0,0.32555508613586426,0.91287284144427
733,0.008105667307972908,1.0,0.3269808888435364,0.91287284144427
734,0.00808180496096611,1.0,0.3266283869743347,0.91287284144427
735,0.008067230693995953,1.0,0.327425092458725,0.91287284144427
736,0.0080934539437294,1.0,0.327849805355072,0.91287284144427
737,0.008004364557564259,1.0,0.324786901473999,0.91287284144427
738,0.007965252734720707,1.0,0.3295268714427948,0.91287284144427
739,0.008024320937693119,1.0,0.32919543981552124,0.91287284144427
740,0.007926316000521183,1.0,0.32601645588874817,0.91287284144427
741,0.007884194143116474,1.0,0.3300487697124481,0.91287284144427
742,0.007902068085968494,1.0,0.32683131098747253,0.91287284144427
743,0.00786646455526352,1.0,0.32897043228149414,0.91287284144427
744,0.007817419245839119,1.0,0.33114075660705566,0.91287284144427
745,0.007818983867764473,1.0,0.32433027029037476,0.91287284144427
746,0.007814374752342701,1.0,0.3311043381690979,0.91287284144427
747,0.0077918535098433495,1.0,0.33285802602767944,0.91287284144427
748,0.007773172575980425,1.0,0.32435211539268494,0.91287284144427
749,0.007718589622527361,1.0,0.33145982027053833,0.91287284144427
750,0.007721476722508669,1.0,0.3324851989746094,0.91287284144427
751,0.007701416965574026,1.0,0.32545143365859985,0.91287284144427
752,0.007676355540752411,1.0,0.32971876859664917,0.91287284144427
753,0.007628983817994595,1.0,0.33302968740463257,0.91287284144427
754,0.007596885319799185,1.0,0.32908234000205994,0.91287284144427
755,0.007582257501780987,1.0,0.3240419924259186,0.91287284144427
756,0.007578115910291672,1.0,0.33531227707862854,0.91287284144427
757,0.007549666333943605,1.0,0.33514025807380676,0.91287284144427
758,0.007498370949178934,1.0,0.3251568675041199,0.91287284144427
759,0.007505030371248722,1.0,0.33567342162132263,0.91287284144427
760,0.007547781337052584,1.0,0.33290258049964905,0.91287284144427
761,0.007432033307850361,1.0,0.32632976770401,0.91287284144427
762,0.007377065252512693,1.0,0.335938036441803,0.91287284144427
763,0.007407836616039276,1.0,0.3341519236564636,0.91287284144427
764,0.007385521661490202,1.0,0.3268423080444336,0.91287284144427
765,0.007312230300158262,1.0,0.3331579566001892,0.91287284144427
766,0.0073063257150352,1.0,0.33416077494621277,0.91287284144427
767,0.007276449352502823,1.0,0.33129456639289856,0.91287284144427
768,0.007262419909238815,1.0,0.3309110105037689,0.91287284144427
769,0.007227379363030195,1.0,0.3320938050746918,0.91287284144427
770,0.007193485740572214,1.0,0.3362084925174713,0.91287284144427
771,0.007190619595348835,1.0,0.33171573281288147,0.91287284144427
772,0.0071834661066532135,1.0,0.3338417112827301,0.91287284144427
773,0.007135108578950167,1.0,0.33631452918052673,0.91287284144427
774,0.00710800988599658,1.0,0.3314206600189209,0.91287284144427
775,0.007084794342517853,1.0,0.3359312415122986,0.91287284144427
776,0.007072626147419214,1.0,0.33302420377731323,0.91287284144427
777,0.007050585001707077,1.0,0.3326239585876465,0.91287284144427
778,0.007011916022747755,1.0,0.3359256684780121,0.91287284144427
779,0.007000509649515152,1.0,0.33531469106674194,0.91287284144427
780,0.006952169816941023,1.0,0.33470889925956726,0.91287284144427
781,0.006938411388546228,1.0,0.3355069160461426,0.91287284144427
782,0.00693064508959651,1.0,0.33835500478744507,0.91287284144427
783,0.006918537430465221,1.0,0.3338051438331604,0.91287284144427
784,0.006906184367835522,1.0,0.3355410397052765,0.91287284144427
785,0.006845523603260517,1.0,0.3356371819972992,0.91287284144427
786,0.006812083534896374,1.0,0.33284029364585876,0.91287284144427
787,0.006802956573665142,1.0,0.33815357089042664,0.91287284144427
788,0.0067993649281561375,1.0,0.33595022559165955,0.91287284144427
789,0.006780828814953566,1.0,0.33639663457870483,0.91287284144427
790,0.006751352455466986,1.0,0.3372669219970703,0.91287284144427
791,0.006737715099006891,1.0,0.33371850848197937,0.91287284144427
792,0.006726284045726061,1.0,0.3407091498374939,0.91287284144427
793,0.0067494274117052555,1.0,0.337262362241745,0.91287284144427
794,0.006690093781799078,1.0,0.3322882056236267,0.91287284144427
795,0.006641038693487644,1.0,0.34258002042770386,0.91287284144427
796,0.006673544179648161,1.0,0.339506059885025,0.91287284144427
797,0.006658891681581736,1.0,0.33378881216049194,0.91287284144427
798,0.006617368198931217,1.0,0.3398101329803467,0.91287284144427
799,0.006596810184419155,1.0,0.33929404616355896,0.91287284144427
800,0.006567292381078005,1.0,0.3373013138771057,0.91287284144427
801,0.006540468893945217,1.0,0.33814284205436707,0.91287284144427
802,0.006558912340551615,1.0,0.33892515301704407,0.91287284144427
803,0.006529881153255701,1.0,0.3430333733558655,0.91287284144427
804,0.006481710821390152,1.0,0.3374391198158264,0.91287284144427
805,0.0064833154901862144,1.0,0.3360431492328644,0.91287284144427
806,0.006456124596297741,1.0,0.34281620383262634,0.91287284144427
807,0.006405845284461975,1.0,0.3380793035030365,0.91287284144427
808,0.0063974387012422085,1.0,0.34099772572517395,0.91287284144427
809,0.0063905310817062855,1.0,0.34019532799720764,0.91287284144427
810,0.006356910336762667,1.0,0.3379674553871155,0.91287284144427
811,0.006318222731351852,1.0,0.3426041603088379,0.91287284144427
812,0.006306032184511423,1.0,0.33960410952568054,0.91287284144427
813,0.006327938754111528,1.0,0.33879685401916504,0.91287284144427
814,0.006282000802457333,1.0,0.3423619270324707,0.91287284144427
815,0.0062269046902656555,1.0,0.34256863594055176,0.91287284144427
816,0.006209606770426035,1.0,0.3401854634284973,0.91287284144427
817,0.006217848043888807,1.0,0.337496817111969,0.91287284144427
818,0.006188575644046068,1.0,0.3448125422000885,0.91287284144427
819,0.006165330298244953,1.0,0.34315595030784607,0.91287284144427
820,0.006127546075731516,1.0,0.33870014548301697,0.91287284144427
821,0.006120591424405575,1.0,0.3440767228603363,0.91287284144427
822,0.006136979442089796,1.0,0.3418186604976654,0.91287284144427
823,0.00611125910654664,1.0,0.3431205153465271,0.91287284144427
824,0.006079569924622774,1.0,0.3419930934906006,0.91287284144427
825,0.0060568260960280895,1.0,0.3426184058189392,0.91287284144427
826,0.006020925939083099,1.0,0.3434686064720154,0.91287284144427
827,0.006013262551277876,1.0,0.33962032198905945,0.91287284144427
828,0.006005014758557081,1.0,0.3458309769630432,0.91287284144427
829,0.005986663978546858,1.0,0.34332746267318726,0.91287284144427
830,0.0059572868049144745,1.0,0.34106168150901794,0.91287284144427
831,0.0059374538250267506,1.0,0.3446289598941803,0.91287284144427
832,0.005920589901506901,1.0,0.34287720918655396,0.91287284144427
833,0.0059143840335309505,1.0,0.3428756296634674,0.91287284144427
834,0.005886073689907789,1.0,0.34525713324546814,0.91287284144427
835,0.0058500319719314575,1.0,0.3423590660095215,0.91287284144427
836,0.00584324961528182,1.0,0.34778499603271484,0.91287284144427
837,0.005860968958586454,1.0,0.34657272696495056,0.9081109366823652
838,0.005817739758640528,1.0,0.3439823091030121,0.91287284144427
839,0.00580780440941453,1.0,0.3467217981815338,0.91287284144427
840,0.005780847277492285,1.0,0.34029579162597656,0.91287284144427
841,0.005778712686151266,1.0,0.34639421105384827,0.91287284144427
842,0.005774422083050013,1.0,0.3480052947998047,0.91287284144427
843,0.005739263258874416,1.0,0.3428043723106384,0.91287284144427
844,0.005723743699491024,1.0,0.3475162386894226,0.91287284144427
845,0.0057174875400960445,1.0,0.34653615951538086,0.91287284144427
846,0.0056878081522881985,1.0,0.3453717529773712,0.91287284144427
847,0.005663429386913776,1.0,0.3477872312068939,0.91287284144427
848,0.005648340098559856,1.0,0.34543392062187195,0.91287284144427
849,0.005628042854368687,1.0,0.3453696072101593,0.91287284144427
850,0.0056000337935984135,1.0,0.34491804242134094,0.91287284144427
851,0.005574360955506563,1.0,0.34922879934310913,0.91287284144427
852,0.00554831326007843,1.0,0.3483635485172272,0.91287284144427
853,0.005514637101441622,1.0,0.34688520431518555,0.91287284144427
854,0.005509416572749615,1.0,0.3515736162662506,0.91287284144427
855,0.005521898157894611,1.0,0.3472176492214203,0.91287284144427
856,0.005489078350365162,1.0,0.34505337476730347,0.91287284144427
857,0.005466830916702747,1.0,0.3505699932575226,0.91287284144427
858,0.005444266367703676,1.0,0.34641483426094055,0.91287284144427
859,0.0054387846030294895,1.0,0.3519044518470764,0.91287284144427
860,0.005479610059410334,1.0,0.3495285212993622,0.91287284144427
861,0.005426706280559301,1.0,0.34341463446617126,0.91287284144427
862,0.005390863865613937,1.0,0.3534128665924072,0.91287284144427
863,0.005381033290177584,1.0,0.35019832849502563,0.91287284144427
864,0.00538641819730401,1.0,0.34676074981689453,0.91287284144427
865,0.005359601695090532,1.0,0.3481510579586029,0.91287284144427
866,0.005352820735424757,1.0,0.3519650995731354,0.91287284144427
867,0.005300105549395084,1.0,0.34870222210884094,0.9081109366823652
868,0.005301501136273146,1.0,0.34924259781837463,0.91287284144427
869,0.005313717760145664,1.0,0.3537443280220032,0.91287284144427
870,0.005265804473310709,1.0,0.3508296608924866,0.91287284144427
871,0.005235603544861078,1.0,0.3469915986061096,0.91287284144427
872,0.0052530961111187935,1.0,0.35375651717185974,0.91287284144427
873,0.005243891384452581,1.0,0.34989336133003235,0.91287284144427
874,0.005198515951633453,1.0,0.3498222827911377,0.91287284144427
875,0.0051861777901649475,1.0,0.35591480135917664,0.91287284144427
876,0.005163500551134348,1.0,0.3478633463382721,0.91287284144427
877,0.005144849419593811,1.0,0.3507923185825348,0.91287284144427
878,0.00514577329158783,1.0,0.3544798195362091,0.91287284144427
879,0.00511260237544775,1.0,0.35158225893974304,0.91287284144427
880,0.00508433673530817,1.0,0.35138818621635437,0.91287284144427
881,0.005075717810541391,1.0,0.3524048328399658,0.91287284144427
882,0.005072027910500765,1.0,0.3510649800300598,0.91287284144427
883,0.005067463964223862,1.0,0.3516760468482971,0.91287284144427
884,0.005040863063186407,1.0,0.3551233410835266,0.91287284144427
885,0.005032438784837723,1.0,0.3547036647796631,0.9081109366823652
886,0.005009929649531841,1.0,0.3500102162361145,0.91287284144427
887,0.004980840254575014,1.0,0.3531370759010315,0.91287284144427
888,0.004975894931703806,1.0,0.3568229079246521,0.91287284144427
889,0.00495887640863657,1.0,0.35219645500183105,0.91287284144427
890,0.004947590176016092,1.0,0.3547005355358124,0.91287284144427
891,0.004963290877640247,1.0,0.35360458493232727,0.91287284144427
892,0.004936739802360535,1.0,0.35138577222824097,0.91287284144427
893,0.0049027432687580585,1.0,0.36183637380599976,0.91287284144427
894,0.00490880012512207,1.0,0.3553195297718048,0.9081109366823652
895,0.004898743238300085,1.0,0.34791678190231323,0.91287284144427
896,0.004862952046096325,1.0,0.3582364022731781,0.91287284144427
897,0.004847516771405935,1.0,0.3595885932445526,0.9081109366823652
898,0.004858185071498156,1.0,0.35635706782341003,0.91287284144427
899,0.004926892463117838,1.0,0.3528449237346649,0.91287284144427
900,0.005385058466345072,1.0,0.33866816759109497,0.91287284144427
901,0.029956713318824768,1.0,0.4792521893978119,0.8500893947322518
902,0.09366021305322647,0.9619047619047619,3.63843035697937,0.1875
903,0.16214898228645325,0.9077922077922078,0.6028240323066711,0.832738095238095
904,0.1145755723118782,0.9435064935064935,0.5908689498901367,0.7432539682539682
905,0.10340771824121475,0.9761904761904762,0.8469876050949097,0.7333333333333333
906,0.07130000740289688,0.9557823129251701,0.33334383368492126,0.8917233560090703
907,0.045361701399087906,1.0,0.2945884168148041,0.8921812314669458
908,0.028458932414650917,1.0,0.27935123443603516,0.8922327672327671
909,0.021986545994877815,1.0,0.27168160676956177,0.9116823652537936
910,0.016950974240899086,1.0,0.268356055021286,0.9316457352171638
911,0.013828923925757408,1.0,0.27182942628860474,0.9081109366823652
912,0.01241082139313221,1.0,0.27671533823013306,0.9316457352171638
913,0.011356167495250702,1.0,0.2756061851978302,0.9316457352171638
914,0.01057391706854105,1.0,0.27329736948013306,0.9316457352171638
915,0.009970029816031456,1.0,0.27587655186653137,0.9316457352171638
916,0.00950330775231123,1.0,0.27831706404685974,0.9316457352171638
917,0.009120569564402103,1.0,0.2787562310695648,0.9316457352171638
918,0.008793283253908157,1.0,0.2786044776439667,0.9316457352171638
919,0.00850622821599245,1.0,0.27959680557250977,0.9316457352171638
920,0.008256279863417149,1.0,0.28201425075531006,0.9316457352171638
921,0.008030349388718605,1.0,0.2832312285900116,0.9316457352171638
922,0.007834342308342457,1.0,0.28369438648223877,0.9366823652537938
923,0.007650482002645731,1.0,0.2848554849624634,0.9366823652537938
924,0.0074892304837703705,1.0,0.28601786494255066,0.9366823652537938
925,0.0073303347453475,1.0,0.2877524197101593,0.9366823652537938
926,0.007186644710600376,1.0,0.28793030977249146,0.9366823652537938
927,0.007058329880237579,1.0,0.2885694205760956,0.9366823652537938
928,0.006927839946001768,1.0,0.29084739089012146,0.91287284144427
929,0.006805874407291412,1.0,0.29161033034324646,0.91287284144427
930,0.006695960648357868,1.0,0.2920158803462982,0.91287284144427
931,0.006588705815374851,1.0,0.2930678725242615,0.91287284144427
932,0.006492335349321365,1.0,0.29427042603492737,0.91287284144427
933,0.006398051977157593,1.0,0.295803040266037,0.91287284144427
934,0.006303747184574604,1.0,0.29568055272102356,0.91287284144427
935,0.006215547677129507,1.0,0.29635435342788696,0.91287284144427
936,0.006131458096206188,1.0,0.29746776819229126,0.91287284144427
937,0.006051447708159685,1.0,0.298828125,0.91287284144427
938,0.0059761302545666695,1.0,0.2993003726005554,0.91287284144427
939,0.005901488475501537,1.0,0.3003471791744232,0.91287284144427
940,0.005832607392221689,1.0,0.3005787432193756,0.91287284144427
941,0.005764827132225037,1.0,0.3016315996646881,0.91287284144427
942,0.005696584470570087,1.0,0.30266591906547546,0.91287284144427
943,0.005635148845613003,1.0,0.3030283749103546,0.91287284144427
944,0.00557349668815732,1.0,0.30416521430015564,0.91287284144427
945,0.005516218952834606,1.0,0.305166095495224,0.91287284144427
946,0.005457599181681871,1.0,0.3057403564453125,0.91287284144427
947,0.005402290262281895,1.0,0.30612704157829285,0.91287284144427
948,0.005349149461835623,1.0,0.3070536255836487,0.91287284144427
949,0.005299207754433155,1.0,0.308021605014801,0.91287284144427
950,0.0052496036514639854,1.0,0.3091806471347809,0.91287284144427
951,0.005202268250286579,1.0,0.30975809693336487,0.91287284144427
952,0.005157025996595621,1.0,0.31058937311172485,0.91287284144427
953,0.005111169070005417,1.0,0.31025752425193787,0.91287284144427
954,0.005069075617939234,1.0,0.31054195761680603,0.91287284144427
955,0.00502412673085928,1.0,0.31151753664016724,0.91287284144427
956,0.004984295926988125,1.0,0.3125612735748291,0.91287284144427
957,0.004946946166455746,1.0,0.3128221929073334,0.91287284144427
958,0.004906180314719677,1.0,0.31269755959510803,0.91287284144427
959,0.004870790988206863,1.0,0.3141905665397644,0.91287284144427
960,0.004835459869354963,1.0,0.31456518173217773,0.91287284144427
961,0.004797011613845825,1.0,0.314185231924057,0.91287284144427
962,0.004761986434459686,1.0,0.3149647116661072,0.91287284144427
963,0.004729422274976969,1.0,0.31584295630455017,0.91287284144427
964,0.004694611299782991,1.0,0.31647613644599915,0.91287284144427
965,0.004666016437113285,1.0,0.3175376355648041,0.91287284144427
966,0.004633611533790827,1.0,0.31697574257850647,0.91287284144427
967,0.004603254143148661,1.0,0.31716686487197876,0.91287284144427
968,0.004571277182549238,1.0,0.3183284401893616,0.91287284144427
969,0.004543002229183912,1.0,0.3185841739177704,0.91287284144427
970,0.004517488647252321,1.0,0.31918373703956604,0.91287284144427
971,0.004490911960601807,1.0,0.3196047246456146,0.91287284144427
972,0.004465120378881693,1.0,0.3206380307674408,0.91287284144427
973,0.004436997231096029,1.0,0.32015755772590637,0.91287284144427
974,0.004412307869642973,1.0,0.3207949995994568,0.91287284144427
975,0.004384639672935009,1.0,0.32083839178085327,0.91287284144427
976,0.004358678124845028,1.0,0.32113775610923767,0.91287284144427
977,0.004333402030169964,1.0,0.3223552405834198,0.91287284144427
978,0.004308460745960474,1.0,0.32223987579345703,0.91287284144427
979,0.004287089686840773,1.0,0.3230341374874115,0.91287284144427
980,0.0042626457288861275,1.0,0.32311922311782837,0.91287284144427
981,0.004242036957293749,1.0,0.32392916083335876,0.91287284144427
982,0.004218909423798323,1.0,0.32279735803604126,0.91287284144427
983,0.0041962191462516785,1.0,0.3236784338951111,0.91287284144427
984,0.004170888103544712,1.0,0.32447943091392517,0.91287284144427
985,0.004149504937231541,1.0,0.32559695839881897,0.91287284144427
986,0.00412824098020792,1.0,0.3252686858177185,0.91287284144427
987,0.004109126515686512,1.0,0.3261943459510803,0.91287284144427
988,0.004089174326509237,1.0,0.3247034549713135,0.91287284144427
989,0.004071482922881842,1.0,0.3258994519710541,0.91287284144427
990,0.004049903713166714,1.0,0.32618993520736694,0.91287284144427
991,0.004031225573271513,1.0,0.32654133439064026,0.91287284144427
992,0.0040130107663571835,1.0,0.32749971747398376,0.91287284144427
993,0.00399446627125144,1.0,0.32803329825401306,0.91287284144427
994,0.003974709194153547,1.0,0.3270554840564728,0.91287284144427
995,0.003956396598368883,1.0,0.32810455560684204,0.91287284144427
996,0.003936463966965675,1.0,0.3277670443058014,0.91287284144427
997,0.003919461742043495,1.0,0.3278910517692566,0.91287284144427
998,0.0039002166595309973,1.0,0.3287801444530487,0.91287284144427
999,0.003884038655087352,1.0,0.32993432879447937,0.91287284144427
