,loss,recall,val_loss,val_recall
0,0.6983651518821716,0.2544642857142857,0.6636703610420227,0.3125
1,0.6631739735603333,0.33482142857142855,0.700602114200592,0.3125
2,0.6335617303848267,0.33482142857142855,0.6606749296188354,0.3125
3,0.6386722326278687,0.33482142857142855,0.6603237390518188,0.3125
4,0.6384513974189758,0.33482142857142855,0.6622115969657898,0.3125
5,0.6353996992111206,0.33482142857142855,0.6691455245018005,0.3125
6,0.6330596804618835,0.33482142857142855,0.667442798614502,0.3125
7,0.631497323513031,0.33482142857142855,0.6632529497146606,0.3125
8,0.6317034363746643,0.33482142857142855,0.6624295115470886,0.3125
9,0.6314377784729004,0.33482142857142855,0.6634368896484375,0.3125
10,0.6303591728210449,0.33482142857142855,0.6637105345726013,0.3125
11,0.6290616393089294,0.33482142857142855,0.662418007850647,0.3125
12,0.6279791593551636,0.33482142857142855,0.6611430048942566,0.3125
13,0.6268592476844788,0.33482142857142855,0.6603442430496216,0.3125
14,0.625167727470398,0.33482142857142855,0.6589206457138062,0.3125
15,0.622940182685852,0.33482142857142855,0.6567765474319458,0.3125
16,0.6204100847244263,0.33482142857142855,0.6541833877563477,0.3125
17,0.615327775478363,0.33482142857142855,0.6483670473098755,0.3125
18,0.609103798866272,0.33482142857142855,0.6408920884132385,0.3125
19,0.5945916771888733,0.33482142857142855,0.6173310279846191,0.3125
20,0.5639627575874329,0.33482142857142855,0.5648607015609741,0.3125
21,0.518265962600708,0.33482142857142855,0.5537515878677368,0.3125
22,0.5027456283569336,0.33482142857142855,0.4929333031177521,0.3125
23,0.5237906575202942,0.4988553113553114,0.5423653721809387,0.7647435897435898
24,0.4513571262359619,0.7009363652220795,0.5078809857368469,0.5259844322344323
25,0.4386928975582123,0.7564879564879564,0.4783042371273041,0.7756519274376418
26,0.409940242767334,0.8031549799406942,0.4610869586467743,0.796031746031746
27,0.4105861186981201,0.8021629164486307,0.46489545702934265,0.7923185941043084
28,0.3855985999107361,0.8261141636141637,0.4518511891365051,0.7808390022675737
29,0.38703325390815735,0.7913919413919415,0.4467628300189972,0.8015022675736961
30,0.36223363876342773,0.8332570207570208,0.4376595616340637,0.8015873015873015
31,0.36716315150260925,0.7913919413919415,0.42185086011886597,0.8183106575963718
32,0.35224324464797974,0.8263125763125763,0.41286036372184753,0.8321995464852607
33,0.34594082832336426,0.8263125763125763,0.4131363332271576,0.8197278911564626
34,0.3470907211303711,0.8036368393511252,0.4057486951351166,0.8522675736961451
35,0.3385189473628998,0.8213522588522588,0.4059641361236572,0.8356009070294784
36,0.3338950276374817,0.8156179138321996,0.42153260111808777,0.794465058750773
37,0.33982500433921814,0.8146258503401361,0.4288237988948822,0.7930839002267573
38,0.34889110922813416,0.8086734693877552,0.4073183834552765,0.8424036281179138
39,0.3280491530895233,0.8332570207570208,0.4020431935787201,0.8310657596371882
40,0.3215007781982422,0.8215702947845804,0.42095303535461426,0.805777159348588
41,0.3285079002380371,0.8180555555555555,0.43966224789619446,0.7675170068027211
42,0.3344126045703888,0.8170634920634922,0.3998951017856598,0.8522675736961451
43,0.32062405347824097,0.8399463631606489,0.3929755687713623,0.8403628117913833
44,0.3056586682796478,0.8509353741496598,0.3966573178768158,0.8362811791383219
45,0.3280656337738037,0.8079648526077098,0.4370630085468292,0.8261853226138941
46,0.37812843918800354,0.7929318697175839,0.4353838860988617,0.8310657596371882
47,0.39361998438835144,0.8414434771577629,0.4864937365055084,0.7648938363224077
48,0.3669714331626892,0.8207766439909298,0.4472220242023468,0.7861317254174397
49,0.34214574098587036,0.8297850958565244,0.3981645107269287,0.8522675736961451
50,0.31982308626174927,0.8391439909297053,0.4090277850627899,0.8183055040197897
51,0.30847427248954773,0.8341022073164931,0.3913998603820801,0.8403628117913833
52,0.29479271173477173,0.8442460317460317,0.4199480414390564,0.8153628117913831
53,0.2964312732219696,0.8299603174603174,0.41986075043678284,0.8251082251082252
54,0.2888765335083008,0.8366496598639456,0.416224867105484,0.8357142857142857
55,0.28318649530410767,0.8464002267573696,0.41696223616600037,0.8244588744588743
56,0.29560479521751404,0.8458049886621316,0.41599223017692566,0.8234384662956092
57,0.3383994400501251,0.8191609977324263,0.4235973060131073,0.8403628117913833
58,0.3282485604286194,0.84533621140764,0.4185096323490143,0.8361678004535147
59,0.3193356990814209,0.8343820861678005,0.44763293862342834,0.7926684426684426
60,0.29149988293647766,0.839138837353123,0.3863377869129181,0.8522675736961451
61,0.2862611413002014,0.8503401360544218,0.4258909225463867,0.7832270903699475
62,0.2865969240665436,0.8248582766439909,0.4153158664703369,0.8038961038961039
63,0.25956806540489197,0.8463566195709052,0.3814888596534729,0.8414115646258502
64,0.2517523169517517,0.8513736263736265,0.35557934641838074,0.8363945578231293
65,0.21982261538505554,0.8628633271490413,0.3661772906780243,0.8348278705421563
66,0.20634877681732178,0.872387136672851,0.3807027339935303,0.8709477030905602
67,0.221832275390625,0.937012987012987,0.38657623529434204,0.8526077097505669
68,0.34609025716781616,0.8761904761904761,0.4370625913143158,0.8584415584415584
69,0.3666019141674042,0.8452380952380951,0.3952101767063141,0.8062532705389848
70,0.2955823838710785,0.9095238095238095,0.3672422468662262,0.8363945578231293
71,0.2590324282646179,0.8622448979591837,0.3684113621711731,0.7863636363636363
72,0.2361585944890976,0.8763736263736263,0.37089136242866516,0.8065934065934065
73,0.2112158238887787,0.9011904761904762,0.3684159815311432,0.8537981859410431
74,0.19006159901618958,0.8749607535321822,0.3764033019542694,0.8773329844758415
75,0.175702765583992,0.8980769230769231,0.4225172996520996,0.8736549165120593
76,0.1771920919418335,0.8797868797868797,0.4632572829723358,0.8738095238095237
77,0.18676452338695526,0.8761072261072261,0.5274345874786377,0.8666666666666666
78,0.1978200525045395,0.8702424559567417,0.6438764333724976,0.8478283621140764
79,0.22225476801395416,0.9017857142857143,0.37266114354133606,0.8692743764172335
80,0.19484660029411316,0.8827838827838826,0.3423407971858978,0.8701504844361987
81,0.1792883425951004,0.9210884353741496,0.46192440390586853,0.8584415584415584
82,0.17746421694755554,0.8921245421245422,0.4978482723236084,0.8666666666666666
83,0.16879622638225555,0.9052197802197802,0.3754766583442688,0.8601937744794886
84,0.14711399376392365,0.9086865515436944,0.35593441128730774,0.851633683776541
85,0.1407482624053955,0.9673160173160174,0.37964725494384766,0.8948051948051948
86,0.17513473331928253,0.9618429189857761,0.43077701330184937,0.8925324675324674
87,0.2724321782588959,0.8723871366728508,0.7733291983604431,0.8790328718900149
88,0.2742096185684204,0.8674500103071532,0.3668053448200226,0.8465136054421769
89,0.2113616019487381,0.8518315018315018,0.5015145540237427,0.8615812758669902
90,0.20195184648036957,0.8946886446886447,0.35512059926986694,0.8416383219954647
91,0.18242542445659637,0.8713453213453214,0.5467089414596558,0.8615812758669902
92,0.19066640734672546,0.9052197802197802,0.349225789308548,0.8421201814058957
93,0.14826235175132751,0.9067717996289425,0.49597790837287903,0.8666666666666666
94,0.14964525401592255,0.9022977022977025,0.47725075483322144,0.8736549165120593
95,0.13355979323387146,0.9106310356310355,0.3945643901824951,0.8750206143063285
96,0.1136888638138771,0.938404452690167,0.478667289018631,0.877972027972028
97,0.13614985346794128,0.9683364254792827,0.5809060335159302,0.8699134199134199
98,0.15812645852565765,0.90569906284192,0.8745070695877075,0.8670591313448457
99,0.23711934685707092,0.9157287157287158,0.4027109742164612,0.8579648526077097
100,0.16560934484004974,0.8913265306122449,0.468151718378067,0.8584415584415584
101,0.13829609751701355,0.9196137196137196,0.4006330072879791,0.8842490842490843
102,0.1133437529206276,0.9229282622139765,0.3924088478088379,0.8964285714285714
103,0.10888589173555374,0.9748299319727891,0.5048980116844177,0.877972027972028
104,0.12314324826002121,0.9322820037105751,0.6759809851646423,0.8648113790970934
105,0.1629212200641632,0.9142024642024642,0.549255907535553,0.8736549165120593
106,0.13762322068214417,0.9000999000999002,0.378119558095932,0.8449237270665841
107,0.13631068170070648,0.949969078540507,0.42197513580322266,0.8925324675324674
108,0.16642414033412933,0.9564316635745208,0.6174229383468628,0.8807953950811093
109,0.1607767790555954,0.9022977022977025,0.44026798009872437,0.8820948892377464
110,0.13113431632518768,0.9065934065934067,0.37433648109436035,0.8601937744794886
111,0.1099601611495018,0.9241187384044526,0.49214816093444824,0.8699134199134199
112,0.11001452058553696,0.9196137196137196,0.3937529921531677,0.9071428571428571
113,0.08818509429693222,0.9744588744588745,0.4825529158115387,0.8913919413919414
114,0.09925700724124908,0.9683364254792827,0.6053358316421509,0.8728699871557015
115,0.10980706661939621,0.9322820037105751,0.7143996953964233,0.8648113790970934
116,0.14187414944171906,0.9106310356310355,0.42846712470054626,0.867650999793857
117,0.08834376186132431,0.9744588744588745,0.40867671370506287,0.8769480519480519
118,0.11685861647129059,0.9748299319727891,0.45583486557006836,0.8964285714285714
119,0.18903161585330963,0.9172541743970315,0.6852262616157532,0.8423505066362209
120,0.17544493079185486,0.8913308913308915,0.5218084454536438,0.8533395176252319
121,0.15739469230175018,0.9250868179439607,0.3456910252571106,0.8701504844361987
122,0.1391477733850479,0.8940519797662655,0.5708160996437073,0.8615812758669902
123,0.14766129851341248,0.923992673992674,0.3520011603832245,0.8537981859410431
124,0.1316884607076645,0.9503401360544218,0.5761281251907349,0.8615646258503401
125,0.1301063895225525,0.9142024642024642,0.4115277826786041,0.8871315192743764
126,0.08695290982723236,0.938404452690167,0.4226025938987732,0.8964285714285714
127,0.07780271768569946,0.9833333333333334,0.5818752646446228,0.8874958374958375
128,0.0852828249335289,0.9319109461966605,0.5145370364189148,0.8964285714285714
129,0.06853370368480682,0.9744588744588745,0.5304244160652161,0.9011904761904761
130,0.0732327550649643,0.9748299319727891,0.6987427473068237,0.882393796679511
131,0.08448602259159088,0.9683364254792827,0.8047231435775757,0.8648113790970934
132,0.1278683990240097,0.937012987012987,0.6538457274436951,0.8685528756957328
133,0.10433846712112427,0.9373840445269017,0.5047641396522522,0.8274350649350649
134,0.15192052721977234,0.9253746253746254,0.3979635238647461,0.8662337662337661
135,0.16344057023525238,0.9391156462585034,0.6171504259109497,0.8615646258503401
136,0.13488037884235382,0.9284881784881784,0.4577755928039551,0.8862899005756149
137,0.10981839150190353,0.9417011559868703,0.3737773597240448,0.8528241599670172
138,0.09701545536518097,0.9241187384044526,0.5804826617240906,0.8615646258503401
139,0.10597177594900131,0.9196137196137196,0.3822498023509979,0.8423366316223458
140,0.07710401713848114,0.9748299319727891,0.6181005239486694,0.8780766852195424
141,0.0849921703338623,0.9407854050711194,0.513774573802948,0.9011904761904761
142,0.06475969403982162,0.9744588744588745,0.47764235734939575,0.8892857142857142
143,0.07338530570268631,0.969047619047619,0.728409469127655,0.8780766852195424
144,0.0762404054403305,0.9322820037105751,0.6811655759811401,0.882393796679511
145,0.07875267416238785,0.9489177489177489,0.501007616519928,0.8799886621315193
146,0.06607020646333694,0.9601731601731601,0.5531132221221924,0.8964285714285714
147,0.08618242293596268,0.9748299319727891,0.6771825551986694,0.882393796679511
148,0.07393669337034225,0.9322820037105751,0.7076889276504517,0.8819727891156462
149,0.10239776223897934,0.9587079587079587,0.46375876665115356,0.8799886621315193
150,0.06132534518837929,0.9744588744588745,0.53956538438797,0.8913919413919414
151,0.06096682697534561,0.9768398268398268,0.5708425641059875,0.8874958374958375
152,0.04869886115193367,0.9768398268398268,0.5782188773155212,0.8910518053375196
153,0.04660662263631821,0.9833333333333334,0.5375316739082336,0.8892857142857142
154,0.061485059559345245,0.969047619047619,0.7225032448768616,0.882393796679511
155,0.053982872515916824,0.9768398268398268,0.7782765626907349,0.882393796679511
156,0.06443733721971512,0.9458874458874459,0.9559937715530396,0.8807953950811093
157,0.07469458878040314,0.9696969696969697,0.5132378935813904,0.8833333333333332
158,0.053340088576078415,0.9773809523809524,0.6590954065322876,0.8874958374958375
159,0.07717625796794891,0.9683364254792827,0.7757128477096558,0.8685528756957328
160,0.06919805705547333,0.9264996907854052,0.7088034749031067,0.8728699871557015
161,0.11598361283540726,0.9518398268398268,0.9968582987785339,0.8564792350506636
162,0.13275103271007538,0.9379251700680272,0.4793621897697449,0.8458307565450423
163,0.10034400969743729,0.9740450026164312,0.45063042640686035,0.8587301587301587
164,0.14981667697429657,0.923747680890538,0.5416207909584045,0.8862899005756149
165,0.1731313318014145,0.9450937950937951,0.8233808875083923,0.8564792350506636
166,0.17684035003185272,0.9413919413919414,0.40194252133369446,0.8663213770356627
167,0.12521912157535553,0.9404452690166976,0.629928708076477,0.8564792350506636
168,0.12510041892528534,0.923992673992674,0.362788587808609,0.855746237889095
169,0.09887762367725372,0.9605442176870749,0.7723623514175415,0.8564792350506636
170,0.11584843695163727,0.9464285714285714,0.4079841673374176,0.8458307565450423
171,0.08815436065196991,0.969047619047619,0.7812382578849792,0.8533395176252319
172,0.08270572125911713,0.9458874458874459,0.4535861909389496,0.846588332302618
173,0.04892914369702339,0.9833333333333334,0.8560466170310974,0.8648113790970934
174,0.07450060546398163,0.9637445887445887,0.49273091554641724,0.8585600907029478
175,0.055899422615766525,0.9833333333333334,0.9234038591384888,0.8648113790970934
176,0.059968721121549606,0.9577922077922078,0.5488329529762268,0.8799886621315193
177,0.041419319808483124,0.9833333333333334,0.8444390296936035,0.8728699871557015
178,0.03869686648249626,0.9696969696969697,0.5642181634902954,0.8585600907029478
179,0.05812860652804375,0.9833333333333334,1.147814393043518,0.8807953950811093
180,0.07898908853530884,0.9577922077922078,0.9284161329269409,0.8685528756957328
181,0.11528807878494263,0.9424860853432282,0.520715594291687,0.8583848690991548
182,0.07532893121242523,0.9790816326530613,0.5708143711090088,0.8862899005756149
183,0.06732714921236038,0.9683364254792827,0.6777061820030212,0.882393796679511
184,0.05024152994155884,0.9875541125541126,0.5189885497093201,0.8458307565450423
185,0.11120563745498657,0.9517006802721089,0.7656882405281067,0.8570810142238713
186,0.07818996906280518,0.9322820037105751,0.716833233833313,0.8791470434327577
187,0.07081826031208038,0.9467377860235003,0.501490592956543,0.8458307565450423
188,0.10035472363233566,0.969047619047619,0.7812075614929199,0.874829931972789
189,0.09800431877374649,0.9199847771276344,0.8599552512168884,0.8756933542647829
190,0.12886129319667816,0.9468031968031968,0.44144532084465027,0.8636878994021852
191,0.06834220141172409,0.969047619047619,0.7473333477973938,0.8913134484563054
192,0.07534967362880707,0.9696969696969697,0.45693379640579224,0.8439033189033189
193,0.05974404886364937,0.9748299319727891,0.9902611374855042,0.8674682460396745
194,0.10791774094104767,0.9518398268398268,0.48619821667671204,0.8481550195835911
195,0.04319139942526817,0.9833333333333334,0.8158990144729614,0.8653061224489795
196,0.058772359043359756,0.9875541125541126,0.6204873919487,0.841125541125541
197,0.09890491515398026,0.9731292517006802,0.7574887275695801,0.882393796679511
198,0.16656000912189484,0.9498556998556998,1.120344877243042,0.8564792350506636
199,0.24720115959644318,0.9375,0.4357842803001404,0.884090909090909
200,0.07606063783168793,0.9892857142857142,0.6266674995422363,0.8588340231197373
201,0.09699760377407074,0.9294039294039295,0.35103803873062134,0.819640280354566
202,0.08069838583469391,0.9748299319727891,0.6674976348876953,0.881789638932496
203,0.09203868359327316,0.9825174825174825,0.40542763471603394,0.8691558441558441
204,0.10773970931768417,0.9503401360544218,0.9969993829727173,0.8564792350506636
205,0.1366151124238968,0.9418498168498168,0.42801806330680847,0.8639713461142033
206,0.0903719887137413,0.968452380952381,0.9746989011764526,0.8564792350506636
207,0.13785876333713531,0.9489795918367346,0.624569296836853,0.8550324675324675
208,0.22570006549358368,0.879076479076479,1.0073570013046265,0.8564792350506636
209,0.17129738628864288,0.9205259026687599,0.4280284345149994,0.857142857142857
210,0.13646765053272247,0.9151404151404152,0.6854718923568726,0.8564792350506636
211,0.1657271832227707,0.9489795918367346,0.33364343643188477,0.846588332302618
212,0.12186175584793091,0.9325396825396826,0.4231867790222168,0.882393796679511
213,0.08755690604448318,0.9777555777555778,0.41939717531204224,0.8862899005756149
214,0.061890844255685806,0.9696969696969697,0.3891603946685791,0.8737528344671202
215,0.04670223221182823,0.9833333333333334,0.5470796227455139,0.882393796679511
216,0.04291197657585144,0.9935064935064936,0.4591750502586365,0.8614151721294577
217,0.04474306479096413,0.979591836734694,0.8063697814941406,0.8780766852195424
218,0.05055481567978859,0.9875541125541126,0.5280770063400269,0.8458307565450423
219,0.08024536073207855,0.9605442176870749,1.3248498439788818,0.8564792350506636
220,0.14534159004688263,0.9418498168498168,0.4751227796077728,0.846588332302618
221,0.039816346019506454,0.9833333333333334,0.6868823170661926,0.8685528756957328
222,0.055224061012268066,0.9827922077922079,0.44576123356819153,0.819640280354566
223,0.07309045642614365,0.9541666666666666,0.9102627038955688,0.8780481423338566
224,0.0862482413649559,0.9875541125541126,0.5837868452072144,0.8451504844361988
225,0.15259088575839996,0.9193877551020408,1.0183188915252686,0.8588340231197373
226,0.12162008136510849,0.9518398268398268,0.4393724501132965,0.8414862914862916
227,0.04485704377293587,0.9833333333333334,0.6197932958602905,0.882393796679511
228,0.05769604817032814,0.9827922077922079,0.4286520183086395,0.8614151721294577
229,0.05361468344926834,0.979591836734694,0.7108684778213501,0.8780766852195424
230,0.0550350621342659,0.9825174825174825,0.4722181260585785,0.8365337043908473
231,0.07229317724704742,0.9748299319727891,1.2181438207626343,0.8564792350506636
232,0.12139631807804108,0.9487179487179487,0.6097725033760071,0.8704339311482169
233,0.1335277557373047,0.9223356009070295,1.1834555864334106,0.8564792350506636
234,0.13927529752254486,0.9468031968031968,0.5904516577720642,0.8697845804988662
235,0.15422339737415314,0.9294784580498866,1.150797724723816,0.8564792350506636
236,0.19823335111141205,0.8946886446886447,0.6272026300430298,0.849654710368996
237,0.2497970163822174,0.9112244897959183,1.1226569414138794,0.7929127420198849
238,0.31007832288742065,0.7699404761904762,0.37297913432121277,0.8452380952380951
239,0.27467241883277893,0.873611111111111,0.3116392493247986,0.8414862914862916
240,0.13703809678554535,0.9761904761904762,0.48291072249412537,0.8564792350506636
241,0.14368155598640442,0.9663919413919414,0.33366483449935913,0.8582199546485262
242,0.10259395837783813,0.9435064935064935,0.3405677378177643,0.8538239538239539
243,0.07270139455795288,0.9702380952380951,0.45174098014831543,0.8780766852195424
244,0.06506363302469254,0.9875541125541126,0.4373076260089874,0.8769928484214199
245,0.049884162843227386,0.9761904761904762,0.44949954748153687,0.8769928484214199
246,0.036288946866989136,1.0,0.5269138216972351,0.8862899005756149
247,0.02811560034751892,1.0,0.5573711395263672,0.8913919413919414
248,0.022030459716916084,0.9880952380952381,0.6950000524520874,0.8862899005756149
249,0.018367698416113853,1.0,0.6784071922302246,0.8964285714285714
250,0.015872305259108543,0.9880952380952381,0.898192822933197,0.882393796679511
251,0.016103610396385193,0.9935064935064936,0.7452844977378845,0.8964285714285714
252,0.013212770223617554,0.9880952380952381,1.0583420991897583,0.882393796679511
253,0.015395447611808777,0.9935064935064936,0.7924090623855591,0.8871315192743764
254,0.011016881093382835,0.9880952380952381,1.163400650024414,0.8780766852195424
255,0.01433394942432642,0.9935064935064936,0.8698334097862244,0.8913919413919414
256,0.006280728615820408,1.0,1.140081524848938,0.882393796679511
257,0.004788524005562067,1.0,0.958662211894989,0.8913919413919414
258,0.004533000290393829,1.0,1.205087661743164,0.8862899005756149
259,0.003153095720335841,1.0,1.062776803970337,0.8913919413919414
260,0.00271957041695714,1.0,1.1825826168060303,0.8862899005756149
261,0.0013199554523453116,1.0,1.2800794839859009,0.8862899005756149
262,0.0010777688585221767,1.0,1.1766563653945923,0.8913919413919414
263,0.0008972432115115225,1.0,1.2659059762954712,0.8913919413919414
264,0.0005100036505609751,1.0,1.3881269693374634,0.8862899005756149
265,0.000470212398795411,1.0,1.3979440927505493,0.8862899005756149
266,0.0003599195624701679,1.0,1.414204716682434,0.8862899005756149
267,0.0002944761945400387,1.0,1.4707005023956299,0.8862899005756149
268,0.00023898648214526474,1.0,1.530741810798645,0.8862899005756149
269,0.00020723789930343628,1.0,1.56960928440094,0.8862899005756149
270,0.00018091089441441,1.0,1.594513177871704,0.8862899005756149
271,0.00015813113714102656,1.0,1.6201776266098022,0.8862899005756149
272,0.00013997686619404703,1.0,1.6500953435897827,0.8862899005756149
273,0.000125489808851853,1.0,1.6793830394744873,0.8862899005756149
274,0.00011428241850808263,1.0,1.704174280166626,0.8862899005756149
275,0.00010521801596041769,1.0,1.724604606628418,0.8862899005756149
276,9.737031359691173e-05,1.0,1.743402361869812,0.8862899005756149
277,9.058557043317705e-05,1.0,1.7619292736053467,0.8862899005756149
278,8.463877747999504e-05,1.0,1.7802687883377075,0.8862899005756149
279,7.944081880850717e-05,1.0,1.7977516651153564,0.8862899005756149
280,7.48419770388864e-05,1.0,1.814007043838501,0.8862899005756149
281,7.071060827001929e-05,1.0,1.8292901515960693,0.8862899005756149
282,6.696600758004934e-05,1.0,1.8438255786895752,0.8862899005756149
283,6.356251105898991e-05,1.0,1.85785710811615,0.8862899005756149
284,6.044912515790202e-05,1.0,1.8716992139816284,0.8862899005756149
285,5.7622703025117517e-05,1.0,1.885206937789917,0.8862899005756149
286,5.503647480509244e-05,1.0,1.898162603378296,0.8862899005756149
287,5.2657527703559026e-05,1.0,1.9105234146118164,0.8862899005756149
288,5.045716170570813e-05,1.0,1.922389268875122,0.8862899005756149
289,4.841625559492968e-05,1.0,1.9339412450790405,0.8862899005756149
290,4.6513541747117415e-05,1.0,1.9452091455459595,0.8862899005756149
291,4.476606409298256e-05,1.0,1.9559823274612427,0.8862899005756149
292,4.309725045459345e-05,1.0,1.9667547941207886,0.8913919413919414
293,4.156772047281265e-05,1.0,1.977051854133606,0.8913919413919414
294,4.010837074019946e-05,1.0,1.9873402118682861,0.8913919413919414
295,3.874790490954183e-05,1.0,1.9974021911621094,0.8913919413919414
296,3.7491645343834534e-05,1.0,2.006887197494507,0.8913919413919414
297,3.630345599958673e-05,1.0,2.016043186187744,0.8913919413919414
298,3.516204742481932e-05,1.0,2.025270700454712,0.8913919413919414
299,3.407805706956424e-05,1.0,2.034396171569824,0.8913919413919414
300,3.307701990706846e-05,1.0,2.0430569648742676,0.8913919413919414
301,3.212278534192592e-05,1.0,2.051421880722046,0.8913919413919414
302,3.1203642720356584e-05,1.0,2.0598018169403076,0.8913919413919414
303,3.0329165383591317e-05,1.0,2.0680572986602783,0.8913919413919414
304,2.9513188565033488e-05,1.0,2.075870990753174,0.8913919413919414
305,2.8725926313200034e-05,1.0,2.0834720134735107,0.8913919413919414
306,2.7965254048467614e-05,1.0,2.091156482696533,0.8913919413919414
307,2.725138074310962e-05,1.0,2.0985794067382812,0.8913919413919414
308,2.656197284522932e-05,1.0,2.106050491333008,0.8913919413919414
309,2.5907662347890437e-05,1.0,2.1132447719573975,0.8913919413919414
310,2.5274626750615425e-05,1.0,2.120441198348999,0.8913919413919414
311,2.467988451826386e-05,1.0,2.127336025238037,0.8913919413919414
312,2.4106415366986766e-05,1.0,2.1340346336364746,0.8913919413919414
313,2.3540391339338385e-05,1.0,2.14085054397583,0.8913919413919414
314,2.3006283299764618e-05,1.0,2.1476006507873535,0.8913919413919414
315,2.2498763428302482e-05,1.0,2.154033899307251,0.8913919413919414
316,2.2006139261065982e-05,1.0,2.160310983657837,0.8913919413919414
317,2.1527346689254045e-05,1.0,2.1667168140411377,0.8913919413919414
318,2.1064506654511206e-05,1.0,2.173105239868164,0.8913919413919414
319,2.062613384623546e-05,1.0,2.1792080402374268,0.8913919413919414
320,2.0203722669975832e-05,1.0,2.1851272583007812,0.8913919413919414
321,1.978343425435014e-05,1.0,2.1911799907684326,0.8913919413919414
322,1.9385484847589396e-05,1.0,2.1970632076263428,0.8913919413919414
323,1.899498784041498e-05,1.0,2.2030386924743652,0.8913919413919414
324,1.862576391431503e-05,1.0,2.2087855339050293,0.8913919413919414
325,1.8257602278026752e-05,1.0,2.2145936489105225,0.8913919413919414
326,1.791391332517378e-05,1.0,2.2201650142669678,0.8913919413919414
327,1.7573413060745224e-05,1.0,2.2257821559906006,0.8913919413919414
328,1.7245680282940157e-05,1.0,2.231192111968994,0.8913919413919414
329,1.6925394447753206e-05,1.0,2.2366693019866943,0.8913919413919414
330,1.6621068425592966e-05,1.0,2.241983652114868,0.8913919413919414
331,1.6325253454851918e-05,1.0,2.2472078800201416,0.8913919413919414
332,1.603050077392254e-05,1.0,2.2525410652160645,0.8913919413919414
333,1.5748517398606054e-05,1.0,2.2578647136688232,0.8913919413919414
334,1.547823558212258e-05,1.0,2.2629482746124268,0.8913919413919414
335,1.5213273400149774e-05,1.0,2.267911672592163,0.8913919413919414
336,1.4950439435779117e-05,1.0,2.2729954719543457,0.8913919413919414
337,1.4701436157338321e-05,1.0,2.2779345512390137,0.8913919413919414
338,1.4457754332397599e-05,1.0,2.2827608585357666,0.8913919413919414
339,1.4218328033166472e-05,1.0,2.2876858711242676,0.8913919413919414
340,1.3983155440655537e-05,1.0,2.292604446411133,0.8913919413919414
341,1.3759688954451121e-05,1.0,2.2973179817199707,0.8913919413919414
342,1.3543669410864823e-05,1.0,2.3019192218780518,0.8913919413919414
343,1.3330843103176448e-05,1.0,2.3064982891082764,0.8913919413919414
344,1.3116951777192298e-05,1.0,2.31122088432312,0.8913919413919414
345,1.291157150262734e-05,1.0,2.315964460372925,0.8913919413919414
346,1.2717895515379496e-05,1.0,2.3205158710479736,0.8913919413919414
347,1.2525286365416832e-05,1.0,2.3249869346618652,0.8913919413919414
348,1.2332674486970063e-05,1.0,2.329406261444092,0.8913919413919414
349,1.214644726132974e-05,1.0,2.3339195251464844,0.8913919413919414
350,1.1966604688495863e-05,1.0,2.338297128677368,0.8913919413919414
351,1.1789952623075806e-05,1.0,2.3427577018737793,0.8913919413919414
352,1.162075022875797e-05,1.0,2.347050905227661,0.8913919413919414
353,1.1455805179139134e-05,1.0,2.351264238357544,0.8913919413919414
354,1.1289793292235117e-05,1.0,2.355597734451294,0.8913919413919414
355,1.1126973731734324e-05,1.0,2.3598225116729736,0.8913919413919414
356,1.0975862096529454e-05,1.0,2.364013671875,0.8913919413919414
357,1.0822620424733032e-05,1.0,2.3683016300201416,0.8913919413919414
358,1.0673633369151503e-05,1.0,2.3724420070648193,0.8913919413919414
359,1.0528904567763675e-05,1.0,2.376493215560913,0.8913919413919414
360,1.0383110748080071e-05,1.0,2.3806326389312744,0.8913919413919414
361,1.0244765690003987e-05,1.0,2.384645462036133,0.8913919413919414
362,1.0104291504831053e-05,1.0,2.3887202739715576,0.8913919413919414
363,9.971268809749745e-06,1.0,2.3926503658294678,0.8913919413919414
364,9.83611425908748e-06,1.0,2.3965182304382324,0.8913919413919414
365,9.707347089715768e-06,1.0,2.4004952907562256,0.8913919413919414
366,9.582834536558948e-06,1.0,2.4043755531311035,0.8913919413919414
367,9.458322892896831e-06,1.0,2.4082183837890625,0.8913919413919414
368,9.334874448541086e-06,1.0,2.4121642112731934,0.8913919413919414
369,9.218876584782265e-06,1.0,2.415990114212036,0.8913919413919414
370,9.101813702727668e-06,1.0,2.4197468757629395,0.8913919413919414
371,8.984749911178369e-06,1.0,2.423600673675537,0.8913919413919414
372,8.876199899532367e-06,1.0,2.4273126125335693,0.8913919413919414
373,8.763393452682067e-06,1.0,2.431121826171875,0.8913919413919414
374,8.658035767439287e-06,1.0,2.434831142425537,0.8913919413919414
375,8.550548955099657e-06,1.0,2.4385125637054443,0.8913919413919414
376,8.444126251561102e-06,1.0,2.44230580329895,0.8913919413919414
377,8.343025911017321e-06,1.0,2.445985794067383,0.8913919413919414
378,8.242987860285211e-06,1.0,2.449617624282837,0.8913919413919414
379,8.144014827848878e-06,1.0,2.4533581733703613,0.8913919413919414
380,8.047170013014693e-06,1.0,2.456979990005493,0.8913919413919414
381,7.952453415782657e-06,1.0,2.4606595039367676,0.8913919413919414
382,7.860929144953843e-06,1.0,2.4642105102539062,0.8913919413919414
383,7.76940487412503e-06,1.0,2.4676883220672607,0.8913919413919414
384,7.681073839194141e-06,1.0,2.471120834350586,0.8913919413919414
385,7.5916782407148276e-06,1.0,2.474663257598877,0.8913919413919414
386,7.503346296289237e-06,1.0,2.4781155586242676,0.8913919413919414
387,7.418207133014221e-06,1.0,2.4816431999206543,0.8913919413919414
388,7.336260296142427e-06,1.0,2.485053539276123,0.8913919413919414
389,7.254313004523283e-06,1.0,2.48840069770813,0.8913919413919414
390,7.176623967097839e-06,1.0,2.491729974746704,0.8913919413919414
391,7.094676675478695e-06,1.0,2.4951727390289307,0.8913919413919414
392,7.0191158556554e-06,1.0,2.498530626296997,0.8913919413919414
393,6.941424999240553e-06,1.0,2.5018343925476074,0.8913919413919414
394,6.8669278334709816e-06,1.0,2.505239248275757,0.8913919413919414
395,6.7934947765024845e-06,1.0,2.508542776107788,0.8913919413919414
396,6.718997155985562e-06,1.0,2.511791706085205,0.8913919413919414
397,6.647691861871863e-06,1.0,2.515127182006836,0.8913919413919414
398,6.579579348908737e-06,1.0,2.518357753753662,0.8913919413919414
399,6.508274054795038e-06,1.0,2.5215237140655518,0.8913919413919414
400,6.439097433030838e-06,1.0,2.524787664413452,0.8913919413919414
401,6.372048574121436e-06,1.0,2.5279533863067627,0.8913919413919414
402,6.3071288423088845e-06,1.0,2.5310683250427246,0.8913919413919414
403,6.243273674044758e-06,1.0,2.5341758728027344,0.8913919413919414
404,6.178353487484856e-06,1.0,2.537397623062134,0.8913919413919414
405,6.112368737376528e-06,1.0,2.5405635833740234,0.8913919413919414
406,6.053834113117773e-06,1.0,2.543680191040039,0.8913919413919414
407,5.99317127125687e-06,1.0,2.5468924045562744,0.8913919413919414
408,5.932507974648615e-06,1.0,2.5500025749206543,0.8913919413919414
409,5.871844678040361e-06,1.0,2.553048849105835,0.8913919413919414
410,5.81650283493218e-06,1.0,2.556067943572998,0.8913919413919414
411,5.7590323194745e-06,1.0,2.5590779781341553,0.8913919413919414
412,5.700497240468394e-06,1.0,2.5622005462646484,0.8913919413919414
413,5.645154942612862e-06,1.0,2.565239429473877,0.8913919413919414
414,5.587684427155182e-06,1.0,2.568321704864502,0.8913919413919414
415,5.535534910450224e-06,1.0,2.571293354034424,0.8913919413919414
416,5.484449957293691e-06,1.0,2.574188232421875,0.8913919413919414
417,5.430171313491883e-06,1.0,2.577047824859619,0.8913919413919414
418,5.379086815082701e-06,1.0,2.580005168914795,0.8913919413919414
419,5.329065515979892e-06,1.0,2.5828769207000732,0.8913919413919414
420,5.279044671624433e-06,1.0,2.5857129096984863,0.8913919413919414
421,5.227958808973199e-06,1.0,2.5885488986968994,0.8913919413919414
422,5.17793796461774e-06,1.0,2.591496706008911,0.8913919413919414
423,5.130045337864431e-06,1.0,2.594467878341675,0.8913919413919414
424,5.08215225636377e-06,1.0,2.5973126888275146,0.8913919413919414
425,5.038516974309459e-06,1.0,2.6000888347625732,0.8913919413919414
426,4.99062434755615e-06,1.0,2.6028671264648438,0.8913919413919414
427,4.943795374856563e-06,1.0,2.605651617050171,0.8913919413919414
428,4.898031875200104e-06,1.0,2.608546495437622,0.8913919413919414
429,4.855460247199517e-06,1.0,2.6113815307617188,0.8913919413919414
430,4.810760401596781e-06,1.0,2.614278554916382,0.8913919413919414
431,4.770316991198342e-06,1.0,2.617079496383667,0.8913919413919414
432,4.724552582047181e-06,1.0,2.6198174953460693,0.8913919413919414
433,4.6841096263960935e-06,1.0,2.6225314140319824,0.8913919413919414
434,4.640474344341783e-06,1.0,2.6253466606140137,0.8913919413919414
435,4.600030933943344e-06,1.0,2.628086566925049,0.8913919413919414
436,4.559587978292257e-06,1.0,2.6307876110076904,0.8913919413919414
437,4.5212732402433176e-06,1.0,2.633565664291382,0.8913919413919414
438,4.4797661757911555e-06,1.0,2.6362712383270264,0.8913919413919414
439,4.439323220140068e-06,1.0,2.6389429569244385,0.8913919413919414
440,4.402073045639554e-06,1.0,2.64159893989563,0.8913919413919414
441,4.363757852843264e-06,1.0,2.64433217048645,0.8913919413919414
442,4.32650767834275e-06,1.0,2.646998167037964,0.8913919413919414
443,4.290321612643311e-06,1.0,2.6496241092681885,0.8913919413919414
444,4.254136456438573e-06,1.0,2.6523280143737793,0.8913919413919414
445,4.219014044792857e-06,1.0,2.6549696922302246,0.8913919413919414
446,4.180699306743918e-06,1.0,2.657572031021118,0.8913919413919414
447,4.145577349845553e-06,1.0,2.660154104232788,0.8913919413919414
448,4.1104558476945385e-06,1.0,2.662841320037842,0.8913919413919414
449,4.077462563145673e-06,1.0,2.6654789447784424,0.8913919413919414
450,4.043405169795733e-06,1.0,2.668091058731079,0.8913919413919414
451,4.010411885246867e-06,1.0,2.6706721782684326,0.8913919413919414
452,3.975289928348502e-06,1.0,2.673330068588257,0.8913919413919414
453,3.94548942495021e-06,1.0,2.675905227661133,0.8913919413919414
454,3.910367468051845e-06,1.0,2.678431272506714,0.8913919413919414
455,3.879502855852479e-06,1.0,2.680931568145752,0.8913919413919414
456,3.848637788905762e-06,1.0,2.683419704437256,0.8913919413919414
457,3.81883728550747e-06,1.0,2.6859965324401855,0.8913919413919414
458,3.7858440009586047e-06,1.0,2.6885368824005127,0.8913919413919414
459,3.754979161385563e-06,1.0,2.69105863571167,0.8913919413919414
460,3.725178885360947e-06,1.0,2.6935582160949707,0.8913919413919414
461,3.6953781545889797e-06,1.0,2.69612717628479,0.8913919413919414
462,3.667706096166512e-06,1.0,2.6986498832702637,0.8913919413919414
463,3.6379055927682202e-06,1.0,2.701134443283081,0.8913919413919414
464,3.608104861996253e-06,1.0,2.7035887241363525,0.8913919413919414
465,3.580433030947461e-06,1.0,2.7061097621917725,0.8913919413919414
466,3.5506323001754936e-06,1.0,2.708559036254883,0.8913919413919414
467,3.5240245779277757e-06,1.0,2.71095871925354,0.8913919413919414
468,3.4974168556800578e-06,1.0,2.713358163833618,0.8913919413919414
469,3.4718734696070896e-06,1.0,2.7157485485076904,0.8913919413919414
470,3.4442016385582974e-06,1.0,2.7182202339172363,0.8913919413919414
471,3.4175939163105795e-06,1.0,2.7206482887268066,0.8913919413919414
472,3.3909857393155107e-06,1.0,2.7230546474456787,0.8913919413919414
473,3.364378017067793e-06,1.0,2.7254433631896973,0.8913919413919414
474,3.3388346309948247e-06,1.0,2.727895975112915,0.8913919413919414
475,3.3111623451986816e-06,1.0,2.730280637741089,0.8913919413919414
476,3.2845546229509637e-06,1.0,2.732628345489502,0.8913919413919414
477,3.261139454480144e-06,1.0,2.734964609146118,0.8913919413919414
478,3.2366606319556013e-06,1.0,2.73736310005188,0.8913919413919414
479,3.212181127310032e-06,1.0,2.7397091388702393,0.8913919413919414
480,3.189830749761313e-06,1.0,2.7420248985290527,0.8913919413919414
481,3.16322280013992e-06,1.0,2.744335174560547,0.8913919413919414
482,3.1419365313922754e-06,1.0,2.7467267513275146,0.8913919413919414
483,3.118521362921456e-06,1.0,2.7490828037261963,0.8913919413919414
484,3.0919138680474134e-06,1.0,2.751417875289917,0.8913919413919414
485,3.0716917081008432e-06,1.0,2.7537455558776855,0.8913919413919414
486,3.049341103178449e-06,1.0,2.75606107711792,0.8913919413919414
487,3.0248615985328797e-06,1.0,2.7584474086761475,0.8913919413919414
488,3.0035753297852352e-06,1.0,2.760770559310913,0.8913919413919414
489,2.981224724862841e-06,1.0,2.7630584239959717,0.8913919413919414
490,2.9578095563920215e-06,1.0,2.765331983566284,0.8913919413919414
491,2.9375876238191267e-06,1.0,2.7676773071289062,0.8913919413919414
492,2.917365691246232e-06,1.0,2.7699787616729736,0.8913919413919414
493,2.896079195124912e-06,1.0,2.7722489833831787,0.8913919413919414
494,2.8747929263772676e-06,1.0,2.7745039463043213,0.8913919413919414
495,2.853506657629623e-06,1.0,2.776766061782837,0.8913919413919414
496,2.835412942658877e-06,1.0,2.7791078090667725,0.8913919413919414
497,2.814126446537557e-06,1.0,2.7813949584960938,0.8913919413919414
498,2.7939045139646623e-06,1.0,2.783635377883911,0.8913919413919414
499,2.774746690192842e-06,1.0,2.7858526706695557,0.8913919413919414
500,2.753460194071522e-06,1.0,2.7880618572235107,0.8913919413919414
501,2.7332382614986273e-06,1.0,2.7903428077697754,0.8913919413919414
502,2.715145001275232e-06,1.0,2.7925684452056885,0.8913919413919414
503,2.6970515136781614e-06,1.0,2.7947659492492676,0.8913919413919414
504,2.67789323515899e-06,1.0,2.7969634532928467,0.8913919413919414
505,2.6608643111103447e-06,1.0,2.7991650104522705,0.8913919413919414
506,2.6395778149890248e-06,1.0,2.8013675212860107,0.8913919413919414
507,2.621484327391954e-06,1.0,2.803558588027954,0.8913919413919414
508,2.601262167445384e-06,1.0,2.8058111667633057,0.8913919413919414
509,2.586361460998887e-06,1.0,2.808013916015625,0.8913919413919414
510,2.5693323095765663e-06,1.0,2.8102009296417236,0.8913919413919414
511,2.5512388219794957e-06,1.0,2.8123812675476074,0.8913919413919414
512,2.532080770834e-06,1.0,2.8145623207092285,0.8913919413919414
513,2.5161164103337796e-06,1.0,2.8167457580566406,0.8913919413919414
514,2.500151367712533e-06,1.0,2.819000244140625,0.8913919413919414
515,2.482057652741787e-06,1.0,2.8211958408355713,0.8913919413919414
516,2.465028501319466e-06,1.0,2.8233561515808105,0.8913919413919414
517,2.4469350137223955e-06,1.0,2.825500011444092,0.8913919413919414
518,2.4320343072758988e-06,1.0,2.827624797821045,0.8913919413919414
519,2.415005155853578e-06,1.0,2.829737424850464,0.8913919413919414
520,2.397976004431257e-06,1.0,2.8319172859191895,0.8913919413919414
521,2.383075070611085e-06,1.0,2.834049940109253,0.8913919413919414
522,2.368174818911939e-06,1.0,2.8361546993255615,0.8913919413919414
523,2.3522097762906924e-06,1.0,2.8382458686828613,0.8913919413919414
524,2.335180397494696e-06,1.0,2.840348482131958,0.8913919413919414
525,2.321344027222949e-06,1.0,2.8424527645111084,0.8913919413919414
526,2.3064435481501278e-06,1.0,2.8445510864257812,0.8913919413919414
527,2.2894141693541314e-06,1.0,2.846712827682495,0.8913919413919414
528,2.2734493541065603e-06,1.0,2.8488049507141113,0.8913919413919414
529,2.2596129838348133e-06,1.0,2.8508639335632324,0.8913919413919414
530,2.2436481685872423e-06,1.0,2.8528964519500732,0.8913919413919414
531,2.228747689514421e-06,1.0,2.8549246788024902,0.8913919413919414
532,2.2138467556942487e-06,1.0,2.8569629192352295,0.8913919413919414
533,2.200010612796177e-06,1.0,2.8590030670166016,0.8913919413919414
534,2.18617424252443e-06,1.0,2.8611226081848145,0.8913919413919414
535,2.1723380996263586e-06,1.0,2.86320161819458,0.8913919413919414
536,2.1595660655293614e-06,1.0,2.8652665615081787,0.8913919413919414
537,2.1436012502817903e-06,1.0,2.867321491241455,0.8913919413919414
538,2.131893552359543e-06,1.0,2.869359254837036,0.8913919413919414
539,2.118057182087796e-06,1.0,2.8713908195495605,0.8913919413919414
540,2.104220811816049e-06,1.0,2.873431921005249,0.8913919413919414
541,2.090384441544302e-06,1.0,2.875556468963623,0.8913919413919414
542,2.0733550627483055e-06,1.0,2.8776180744171143,0.8913919413919414
543,2.0627119283744833e-06,1.0,2.8796417713165283,0.8913919413919414
544,2.0488755581027362e-06,1.0,2.881636142730713,0.8913919413919414
545,2.0382321963552386e-06,1.0,2.88362717628479,0.8913919413919414
546,2.0233314899087418e-06,1.0,2.8856189250946045,0.8913919413919414
547,2.0105594558117446e-06,1.0,2.8876144886016846,0.8913919413919414
548,1.998851757889497e-06,1.0,2.8895955085754395,0.8913919413919414
549,1.9860797237925e-06,1.0,2.891578197479248,0.8913919413919414
550,1.9754365894186776e-06,1.0,2.89363431930542,0.8913919413919414
551,1.9594713194237556e-06,1.0,2.8956427574157715,0.8913919413919414
552,1.9466992853267584e-06,1.0,2.897629499435425,0.8913919413919414
553,1.937120487127686e-06,1.0,2.899617910385132,0.8913919413919414
554,1.9243482256570132e-06,1.0,2.9015958309173584,0.8913919413919414
555,1.9126407551084412e-06,1.0,2.9035685062408447,0.8913919413919414
556,1.900932943499356e-06,1.0,2.9055399894714355,0.8913919413919414
557,1.8892252455771086e-06,1.0,2.907506227493286,0.8913919413919414
558,1.8764530977932736e-06,1.0,2.909533739089966,0.8913919413919414
559,1.8668741859073634e-06,1.0,2.9115071296691895,0.8913919413919414
560,1.854102265497204e-06,1.0,2.9134433269500732,0.8913919413919414
561,1.841330117713369e-06,1.0,2.91536545753479,0.8913919413919414
562,1.8306866422790335e-06,1.0,2.917283296585083,0.8913919413919414
563,1.8200432805315359e-06,1.0,2.9191997051239014,0.8913919413919414
564,1.8094000324708759e-06,1.0,2.9211316108703613,0.8913919413919414
565,1.7976923345486284e-06,1.0,2.923057794570923,0.8913919413919414
566,1.787048859114293e-06,1.0,2.92499041557312,0.8913919413919414
567,1.7753410475052078e-06,1.0,2.9269826412200928,0.8913919413919414
568,1.7646977994445479e-06,1.0,2.9289302825927734,0.8913919413919414
569,1.7551188875586377e-06,1.0,2.930851459503174,0.8913919413919414
570,1.7434110759495525e-06,1.0,2.9327645301818848,0.8913919413919414
571,1.732767600515217e-06,1.0,2.9346766471862793,0.8913919413919414
572,1.7221242387677194e-06,1.0,2.9366095066070557,0.8913919413919414
573,1.7104164271586342e-06,1.0,2.93854022026062,0.8913919413919414
574,1.7008372878990485e-06,1.0,2.9404754638671875,0.8913919413919414
575,1.6912582623263006e-06,1.0,2.9424149990081787,0.8913919413919414
576,1.6816792367535527e-06,1.0,2.9443533420562744,0.8913919413919414
577,1.671035875006055e-06,1.0,2.9463462829589844,0.8913919413919414
578,1.6593281770838075e-06,1.0,2.948284387588501,0.8913919413919414
579,1.6497489241373842e-06,1.0,2.9501821994781494,0.8913919413919414
580,1.640170012251474e-06,1.0,2.9520599842071533,0.8913919413919414
581,1.629526764190814e-06,1.0,2.953932046890259,0.8913919413919414
582,1.6210118474191404e-06,1.0,2.95579195022583,0.8913919413919414
583,1.6114327081595547e-06,1.0,2.9576680660247803,0.8913919413919414
584,1.6007892327252193e-06,1.0,2.9595515727996826,0.8913919413919414
585,1.5922745433272212e-06,1.0,2.9614269733428955,0.8913919413919414
586,1.5826955177544733e-06,1.0,2.9633140563964844,0.8913919413919414
587,1.5720521560069756e-06,1.0,2.9652159214019775,0.8913919413919414
588,1.5635375802958151e-06,1.0,2.967209577560425,0.8913919413919414
589,1.556087113385729e-06,1.0,2.969165325164795,0.8913919413919414
590,1.5454436379513936e-06,1.0,2.9710845947265625,0.8913919413919414
591,1.5369288348665577e-06,1.0,2.972980499267578,0.8913919413919414
592,1.5273499229806475e-06,1.0,2.974863290786743,0.8913919413919414
593,1.5177707837210619e-06,1.0,2.976733446121216,0.8913919413919414
594,1.5113846529857256e-06,1.0,2.978597640991211,0.8913919413919414
595,1.5028699635877274e-06,1.0,2.9804675579071045,0.8913919413919414
596,1.4943552741897292e-06,1.0,2.98234224319458,0.8913919413919414
597,1.4847762486169813e-06,1.0,2.9842779636383057,0.8913919413919414
598,1.47626121815847e-06,1.0,2.9861671924591064,0.8913919413919414
599,1.4677465287604718e-06,1.0,2.988025426864624,0.8913919413919414
600,1.458167503187724e-06,1.0,2.9898626804351807,0.8913919413919414
601,1.4507171499644755e-06,1.0,2.9916958808898926,0.8913919413919414
602,1.4422023468796397e-06,1.0,2.9935314655303955,0.8913919413919414
603,1.4326233213068917e-06,1.0,2.9953672885894775,0.8913919413919414
604,1.423044182047306e-06,1.0,2.9971985816955566,0.8913919413919414
605,1.4177223874867195e-06,1.0,2.9991042613983154,0.8913919413919414
606,1.4081432482271339e-06,1.0,3.0009520053863525,0.8913919413919414
607,1.4017572311786353e-06,1.0,3.0027832984924316,0.8913919413919414
608,1.3921782056058873e-06,1.0,3.004617929458618,0.8913919413919414
609,1.3857921885573887e-06,1.0,3.0064523220062256,0.8913919413919414
610,1.3772774991593906e-06,1.0,3.008274793624878,0.8913919413919414
611,1.367698359899805e-06,1.0,3.0101094245910645,0.8913919413919414
612,1.3613122291644686e-06,1.0,3.0119991302490234,0.8913919413919414
613,1.3538618759412202e-06,1.0,3.0138485431671143,0.8913919413919414
614,1.342154064332135e-06,1.0,3.015638828277588,0.8913919413919414
615,1.3368322697715485e-06,1.0,3.0174202919006348,0.8913919413919414
616,1.3293819165483e-06,1.0,3.019198179244995,0.8913919413919414
617,1.320867227150302e-06,1.0,3.020972728729248,0.8913919413919414
618,1.3134167602402158e-06,1.0,3.0227444171905518,0.8913919413919414
619,1.308095079366467e-06,1.0,3.024587869644165,0.8913919413919414
620,1.2985158264200436e-06,1.0,3.026379108428955,0.8913919413919414
621,1.292129809371545e-06,1.0,3.028142213821411,0.8913919413919414
622,1.2857437923230464e-06,1.0,3.0298831462860107,0.8913919413919414
623,1.2804219977624598e-06,1.0,3.0316364765167236,0.8913919413919414
624,1.2719073083644616e-06,1.0,3.03340482711792,0.8913919413919414
625,1.2623280554180383e-06,1.0,3.0351943969726562,0.8913919413919414
626,1.2570063745442894e-06,1.0,3.0370287895202637,0.8913919413919414
627,1.2495559076342033e-06,1.0,3.0388073921203613,0.8913919413919414
628,1.2442342267604545e-06,1.0,3.040579080581665,0.8913919413919414
629,1.2378480960251181e-06,1.0,3.0423483848571777,0.8913919413919414
630,1.2282689567655325e-06,1.0,3.044119358062744,0.8913919413919414
631,1.2218830534038716e-06,1.0,3.045875072479248,0.8913919413919414
632,1.2165611451564473e-06,1.0,3.047618865966797,0.8913919413919414
633,1.2080464557584492e-06,1.0,3.0494182109832764,0.8913919413919414
634,1.201660211336275e-06,1.0,3.0511868000030518,0.8913919413919414
635,1.196338644149364e-06,1.0,3.052945852279663,0.8913919413919414
636,1.1888880635524401e-06,1.0,3.0547022819519043,0.8913919413919414
637,1.1835663826786913e-06,1.0,3.0564939975738525,0.8913919413919414
638,1.1761159157686052e-06,1.0,3.058263063430786,0.8913919413919414
639,1.1729229072443559e-06,1.0,3.060088634490967,0.8913919413919414
640,1.1622794318100205e-06,1.0,3.0618598461151123,0.8913919413919414
641,1.1569578646231093e-06,1.0,3.063615322113037,0.8913919413919414
642,1.1505716202009353e-06,1.0,3.0653631687164307,0.8913919413919414
643,1.144185489465599e-06,1.0,3.067129373550415,0.8913919413919414
644,1.1377994724171003e-06,1.0,3.068887948989868,0.8913919413919414
645,1.1314132279949263e-06,1.0,3.0706870555877686,0.8913919413919414
646,1.127155996982765e-06,1.0,3.0724804401397705,0.8913919413919414
647,1.1207697525605909e-06,1.0,3.074258804321289,0.8913919413919414
648,1.1143837355120922e-06,1.0,3.0760111808776855,0.8913919413919414
649,1.1069332686020061e-06,1.0,3.077760934829712,0.8913919413919414
650,1.1026758102161693e-06,1.0,3.0795116424560547,0.8913919413919414
651,1.0973541293424205e-06,1.0,3.0812971591949463,0.8913919413919414
652,1.0909679986070842e-06,1.0,3.083055257797241,0.8913919413919414
653,1.0845818678717478e-06,1.0,3.0848076343536377,0.8913919413919414
654,1.079260186997999e-06,1.0,3.086548089981079,0.8913919413919414
655,1.0739383924374124e-06,1.0,3.088273525238037,0.8913919413919414
656,1.067552261702076e-06,1.0,3.0899837017059326,0.8913919413919414
657,1.0622304671414895e-06,1.0,3.0917677879333496,0.8913919413919414
658,1.0569087862677407e-06,1.0,3.0935113430023193,0.8913919413919414
659,1.0494583193576545e-06,1.0,3.0952060222625732,0.8913919413919414
660,1.044136524797068e-06,1.0,3.096897840499878,0.8913919413919414
661,1.039879180098069e-06,1.0,3.0986034870147705,0.8913919413919414
662,1.0345573855374823e-06,1.0,3.100299835205078,0.8913919413919414
663,1.0292357046637335e-06,1.0,3.1020400524139404,0.8913919413919414
664,1.0217852377536474e-06,1.0,3.1037213802337646,0.8913919413919414
665,1.0175277793678106e-06,1.0,3.1054019927978516,0.8913919413919414
666,1.011141762319312e-06,1.0,3.107076406478882,0.8913919413919414
667,1.0068841902466374e-06,1.0,3.108748197555542,0.8913919413919414
668,1.0015625093728886e-06,1.0,3.110429048538208,0.8913919413919414
669,9.973051646738895e-07,1.0,3.1121795177459717,0.8913919413919414
670,9.909190339385532e-07,1.0,3.113868474960327,0.8913919413919414
671,9.855972393779666e-07,1.0,3.115541934967041,0.8913919413919414
672,9.824042308537173e-07,1.0,3.1172280311584473,0.8913919413919414
673,9.738893140820437e-07,1.0,3.1188905239105225,0.8913919413919414
674,9.71760755419382e-07,1.0,3.120558261871338,0.8913919413919414
675,9.664388471719576e-07,1.0,3.1222872734069824,0.8913919413919414
676,9.611171662982088e-07,1.0,3.1239655017852783,0.8913919413919414
677,9.5579548542446e-07,1.0,3.125631332397461,0.8913919413919414
678,9.504736340204545e-07,1.0,3.1273133754730225,0.8913919413919414
679,9.440875032851181e-07,1.0,3.1289749145507812,0.8913919413919414
680,9.4089443791745e-07,1.0,3.130645751953125,0.8913919413919414
681,9.366370932184509e-07,1.0,3.1323182582855225,0.8913919413919414
682,9.302510193265334e-07,1.0,3.1339802742004395,0.8913919413919414
683,9.259935040972778e-07,1.0,3.1356303691864014,0.8913919413919414
684,9.217361593982787e-07,1.0,3.1373393535614014,0.8913919413919414
685,9.142856356447737e-07,1.0,3.138967752456665,0.8913919413919414
686,9.100282341023558e-07,1.0,3.140575885772705,0.8913919413919414
687,9.05770775716519e-07,1.0,3.1421940326690674,0.8913919413919414
688,8.993847018246015e-07,1.0,3.1438183784484863,0.8913919413919414
689,8.961916933003522e-07,1.0,3.1454524993896484,0.8913919413919414
690,8.92998627932684e-07,1.0,3.1471636295318604,0.8913919413919414
691,8.876768333720975e-07,1.0,3.1488311290740967,0.8913919413919414
692,8.834194318296795e-07,1.0,3.1504688262939453,0.8913919413919414
693,8.78097637269093e-07,1.0,3.1521084308624268,0.8913919413919414
694,8.73840235726675e-07,1.0,3.153766632080078,0.8913919413919414
695,8.706471703590069e-07,1.0,3.1554179191589355,0.8913919413919414
696,8.642610964670894e-07,1.0,3.1570627689361572,0.8913919413919414
697,8.600036949246714e-07,1.0,3.1587066650390625,0.8913919413919414
698,8.536175641893351e-07,1.0,3.1603360176086426,0.8913919413919414
699,8.514888918398356e-07,1.0,3.1620287895202637,0.8913919413919414
700,8.472314902974176e-07,1.0,3.163696050643921,0.8913919413919414
701,8.419096957368311e-07,1.0,3.165320873260498,0.8913919413919414
702,8.387166303691629e-07,1.0,3.166935682296753,0.8913919413919414
703,8.333948358085763e-07,1.0,3.168574094772339,0.8913919413919414
704,8.312661634590768e-07,1.0,3.1701998710632324,0.8913919413919414
705,8.259443688984902e-07,1.0,3.17181658744812,0.8913919413919414
706,8.216870241994911e-07,1.0,3.173424005508423,0.8913919413919414
707,8.184939019884041e-07,1.0,3.175043821334839,0.8913919413919414
708,8.121077712530678e-07,1.0,3.1767196655273438,0.8913919413919414
709,8.078503697106498e-07,1.0,3.178373098373413,0.8913919413919414
710,8.046572474995628e-07,1.0,3.1800074577331543,0.8913919413919414
711,8.014641821318946e-07,1.0,3.1816508769989014,0.8913919413919414
712,7.972067805894767e-07,1.0,3.1832692623138428,0.8913919413919414
713,7.950780513965583e-07,1.0,3.1848862171173096,0.8913919413919414
714,7.886919775046408e-07,1.0,3.186511516571045,0.8913919413919414
715,7.854988552935538e-07,1.0,3.1881260871887207,0.8913919413919414
716,7.812415105945547e-07,1.0,3.1897552013397217,0.8913919413919414
717,7.780484452268865e-07,1.0,3.191366672515869,0.8913919413919414
718,7.737909868410497e-07,1.0,3.1930394172668457,0.8913919413919414
719,7.663405199309636e-07,1.0,3.194669485092163,0.8913919413919414
720,7.652761837562139e-07,1.0,3.196272611618042,0.8913919413919414
721,7.620830615451268e-07,1.0,3.197885274887085,0.8913919413919414
722,7.578256600027089e-07,1.0,3.199486255645752,0.8913919413919414
723,7.535682016168721e-07,1.0,3.201097249984741,0.8913919413919414
724,7.503752499360417e-07,1.0,3.202688455581665,0.8913919413919414
725,7.471821277249546e-07,1.0,3.20430326461792,0.8913919413919414
726,7.418603331643681e-07,1.0,3.2059237957000732,0.8913919413919414
727,7.397316039714497e-07,1.0,3.20752215385437,0.8913919413919414
728,7.344098094108631e-07,1.0,3.20918869972229,0.8913919413919414
729,7.333454732361133e-07,1.0,3.210824966430664,0.8913919413919414
730,7.280237355189456e-07,1.0,3.212423801422119,0.8913919413919414
731,7.248306133078586e-07,1.0,3.2140040397644043,0.8913919413919414
732,7.195088755906909e-07,1.0,3.2155914306640625,0.8913919413919414
733,7.184445394159411e-07,1.0,3.2171711921691895,0.8913919413919414
734,7.120583518371859e-07,1.0,3.218768835067749,0.8913919413919414
735,7.088652864695177e-07,1.0,3.2203571796417236,0.8913919413919414
736,7.067366141200182e-07,1.0,3.221956491470337,0.8913919413919414
737,7.0354354875235e-07,1.0,3.223545551300049,0.8913919413919414
738,6.992860335230944e-07,1.0,3.2251362800598145,0.8913919413919414
739,6.971573611735948e-07,1.0,3.226762056350708,0.8913919413919414
740,6.950286888240953e-07,1.0,3.2283549308776855,0.8913919413919414
741,6.897069511069276e-07,1.0,3.2299368381500244,0.8913919413919414
742,6.854494358776719e-07,1.0,3.231503963470459,0.8913919413919414
743,6.843850997029222e-07,1.0,3.233074903488159,0.8913919413919414
744,6.790633051423356e-07,1.0,3.2346291542053223,0.8913919413919414
745,6.758702397746674e-07,1.0,3.236198902130127,0.8913919413919414
746,6.726772312504181e-07,1.0,3.237783432006836,0.8913919413919414
747,6.673553798464127e-07,1.0,3.2393620014190674,0.8913919413919414
748,6.630979783039948e-07,1.0,3.240938901901245,0.8913919413919414
749,6.630979783039948e-07,1.0,3.2425670623779297,0.8913919413919414
750,6.588405767615768e-07,1.0,3.2441580295562744,0.8913919413919414
751,6.556474545504898e-07,1.0,3.2457048892974854,0.8913919413919414
752,6.535187253575714e-07,1.0,3.247262954711914,0.8913919413919414
753,6.492613238151534e-07,1.0,3.248802900314331,0.8913919413919414
754,6.471326514656539e-07,1.0,3.250364065170288,0.8913919413919414
755,6.439395292545669e-07,1.0,3.2518954277038574,0.8913919413919414
756,6.396821277121489e-07,1.0,3.2534544467926025,0.8913919413919414
757,6.364890055010619e-07,1.0,3.255019426345825,0.8913919413919414
758,6.32231603958644e-07,1.0,3.256589889526367,0.8913919413919414
759,6.311672109404753e-07,1.0,3.2581703662872314,0.8913919413919414
760,6.269098093980574e-07,1.0,3.2597670555114746,0.8913919413919414
761,6.237168008738081e-07,1.0,3.2613296508789062,0.8913919413919414
762,6.226524078556395e-07,1.0,3.2628750801086426,0.8913919413919414
763,6.194592856445524e-07,1.0,3.264416217803955,0.8913919413919414
764,6.152018841021345e-07,1.0,3.26595139503479,0.8913919413919414
765,6.120088187344663e-07,1.0,3.267500162124634,0.8913919413919414
766,6.098801463849668e-07,1.0,3.26904559135437,0.8913919413919414
767,6.077513603486295e-07,1.0,3.2705612182617188,0.8913919413919414
768,6.045582949809614e-07,1.0,3.272101640701294,0.8913919413919414
769,6.003008934385434e-07,1.0,3.2736451625823975,0.8913919413919414
770,5.971078280708753e-07,1.0,3.275172710418701,0.8913919413919414
771,5.960434350527066e-07,1.0,3.276681423187256,0.8913919413919414
772,5.928503696850385e-07,1.0,3.278198003768921,0.8913919413919414
773,5.896572474739514e-07,1.0,3.279757261276245,0.8913919413919414
774,5.853998459315335e-07,1.0,3.281276226043701,0.8913919413919414
775,5.832711167386151e-07,1.0,3.2828409671783447,0.8913919413919414
776,5.811424443891156e-07,1.0,3.284393787384033,0.8913919413919414
777,5.790137151961972e-07,1.0,3.2859396934509277,0.8913919413919414
778,5.768849291598599e-07,1.0,3.2874796390533447,0.8913919413919414
779,5.747563704971981e-07,1.0,3.288982391357422,0.8913919413919414
780,5.694345190931926e-07,1.0,3.2904975414276123,0.8913919413919414
781,5.662413968821056e-07,1.0,3.2920467853546143,0.8913919413919414
782,5.65177003863937e-07,1.0,3.2935984134674072,0.8913919413919414
783,5.619839384962688e-07,1.0,3.29514479637146,0.8913919413919414
784,5.587908731286007e-07,1.0,3.2966675758361816,0.8913919413919414
785,5.566621439356823e-07,1.0,3.2982022762298584,0.8913919413919414
786,5.545334715861827e-07,1.0,3.299708604812622,0.8913919413919414
787,5.524047992366832e-07,1.0,3.301210403442383,0.8913919413919414
788,5.502760700437648e-07,1.0,3.302744150161743,0.8913919413919414
789,5.470829478326777e-07,1.0,3.304281711578369,0.8913919413919414
790,5.42825489446841e-07,1.0,3.305785655975342,0.8913919413919414
791,5.417611532720912e-07,1.0,3.307295083999634,0.8913919413919414
792,5.38568087904423e-07,1.0,3.308795928955078,0.8913919413919414
793,5.343106295185862e-07,1.0,3.310340642929077,0.8913919413919414
794,5.332462365004176e-07,1.0,3.3119091987609863,0.8913919413919414
795,5.300531711327494e-07,1.0,3.313432455062866,0.8913919413919414
796,5.268601626085001e-07,1.0,3.3149704933166504,0.8913919413919414
797,5.268601626085001e-07,1.0,3.3165359497070312,0.8913919413919414
798,5.236670403974131e-07,1.0,3.3180811405181885,0.8913919413919414
799,5.215383112044947e-07,1.0,3.319615125656128,0.8913919413919414
800,5.183452458368265e-07,1.0,3.321136951446533,0.8913919413919414
801,5.162165166439081e-07,1.0,3.3226816654205322,0.8913919413919414
802,5.130235081196588e-07,1.0,3.324272632598877,0.8913919413919414
803,5.108947220833215e-07,1.0,3.3258135318756104,0.8913919413919414
804,5.098303859085718e-07,1.0,3.3273487091064453,0.8913919413919414
805,5.077016567156534e-07,1.0,3.3288919925689697,0.8913919413919414
806,5.013154691368982e-07,1.0,3.3303964138031006,0.8913919413919414
807,5.002510761187295e-07,1.0,3.331906795501709,0.8913919413919414
808,4.9812240376923e-07,1.0,3.3334028720855713,0.8913919413919414
809,4.959936745763116e-07,1.0,3.334925413131714,0.8913919413919414
810,4.928006092086434e-07,1.0,3.3364479541778564,0.8913919413919414
811,4.90671880015725e-07,1.0,3.3379580974578857,0.8913919413919414
812,4.885431508228066e-07,1.0,3.3394672870635986,0.8913919413919414
813,4.864144216298882e-07,1.0,3.3409695625305176,0.8913919413919414
814,4.853500854551385e-07,1.0,3.342494487762451,0.8913919413919414
815,4.810926839127205e-07,1.0,3.3440165519714355,0.8913919413919414
816,4.800282908945519e-07,1.0,3.3455262184143066,0.8913919413919414
817,4.789639547198021e-07,1.0,3.347003936767578,0.8913919413919414
818,4.768351971051743e-07,1.0,3.348494291305542,0.8913919413919414
819,4.7257779556275636e-07,1.0,3.349968433380127,0.8913919413919414
820,4.7151343096629716e-07,1.0,3.3514339923858643,0.8913919413919414
821,4.6832033717691957e-07,1.0,3.352943181991577,0.8913919413919414
822,4.6832033717691957e-07,1.0,3.3544845581054688,0.8913919413919414
823,4.6512724338754197e-07,1.0,3.356031656265259,0.8913919413919414
824,4.608698134234146e-07,1.0,3.3575313091278076,0.8913919413919414
825,4.587410842304962e-07,1.0,3.359049081802368,0.8913919413919414
826,4.566123550375778e-07,1.0,3.360572338104248,0.8913919413919414
827,4.555479904411186e-07,1.0,3.3620810508728027,0.8913919413919414
828,4.5341928966990963e-07,1.0,3.3636136054992676,0.8913919413919414
829,4.5235492507345043e-07,1.0,3.3651387691497803,0.8913919413919414
830,4.4809749510932306e-07,1.0,3.366626739501953,0.8913919413919414
831,4.4809749510932306e-07,1.0,3.3680832386016846,0.8913919413919414
832,4.4596876591640466e-07,1.0,3.3695766925811768,0.8913919413919414
833,4.4490440131994546e-07,1.0,3.371105670928955,0.8913919413919414
834,4.4171130753056786e-07,1.0,3.372609853744507,0.8913919413919414
835,4.395826067593589e-07,1.0,3.3740973472595215,0.8913919413919414
836,4.363895129699813e-07,1.0,3.375584125518799,0.8913919413919414
837,4.363895129699813e-07,1.0,3.3770806789398193,0.8913919413919414
838,4.342607837770629e-07,1.0,3.3785605430603027,0.8913919413919414
839,4.3106771840939473e-07,1.0,3.38002347946167,0.8913919413919414
840,4.2893898921647633e-07,1.0,3.381523609161377,0.8913919413919414
841,4.2787465304172656e-07,1.0,3.383063554763794,0.8913919413919414
842,4.2681026002355793e-07,1.0,3.384612798690796,0.8913919413919414
843,4.2255283005943056e-07,1.0,3.3861682415008545,0.8913919413919414
844,4.2042410086651216e-07,1.0,3.3877241611480713,0.8913919413919414
845,4.2042410086651216e-07,1.0,3.3892669677734375,0.8913919413919414
846,4.1616664248067536e-07,1.0,3.3908021450042725,0.8913919413919414
847,4.1616664248067536e-07,1.0,3.392350435256958,0.8913919413919414
848,4.1297354869129776e-07,1.0,3.3938968181610107,0.8913919413919414
849,4.1190918409483857e-07,1.0,3.3954050540924072,0.8913919413919414
850,4.0978051174533903e-07,1.0,3.396876096725464,0.8913919413919414
851,4.0871614714887983e-07,1.0,3.3983376026153564,0.8913919413919414
852,4.055230249377928e-07,1.0,3.3998310565948486,0.8913919413919414
853,4.055230249377928e-07,1.0,3.401355266571045,0.8913919413919414
854,4.0232995957012463e-07,1.0,3.4028422832489014,0.8913919413919414
855,4.0126559497366543e-07,1.0,3.40427827835083,0.8913919413919414
856,3.980724727625784e-07,1.0,3.4056849479675293,0.8913919413919414
857,3.980724727625784e-07,1.0,3.407092332839966,0.8913919413919414
858,3.9594377199136943e-07,1.0,3.4085190296173096,0.8913919413919414
859,3.9381504279845103e-07,1.0,3.40999436378479,0.8913919413919414
860,3.8849324823786446e-07,1.0,3.411546468734741,0.8913919413919414
861,3.8849324823786446e-07,1.0,3.4130444526672363,0.8913919413919414
862,3.8742888364140526e-07,1.0,3.4145302772521973,0.8913919413919414
863,3.8742888364140526e-07,1.0,3.4160139560699463,0.8913919413919414
864,3.8317142525556847e-07,1.0,3.4174697399139404,0.8913919413919414
865,3.8104266764094064e-07,1.0,3.4188740253448486,0.8913919413919414
866,3.789139952914411e-07,1.0,3.420257329940796,0.8913919413919414
867,3.778496306949819e-07,1.0,3.421665668487549,0.8913919413919414
868,3.767852660985227e-07,1.0,3.423105239868164,0.8913919413919414
869,3.746565369056043e-07,1.0,3.424567699432373,0.8913919413919414
870,3.735921723091451e-07,1.0,3.4260330200195312,0.8913919413919414
871,3.7252783613439533e-07,1.0,3.427522659301758,0.8913919413919414
872,3.7039913536318636e-07,1.0,3.4289517402648926,0.8913919413919414
873,3.6933474234501773e-07,1.0,3.4303596019744873,0.8913919413919414
874,3.6614164855564013e-07,1.0,3.4317779541015625,0.8913919413919414
875,3.6507728395918093e-07,1.0,3.4332027435302734,0.8913919413919414
876,3.6401291936272173e-07,1.0,3.434633493423462,0.8913919413919414
877,3.6188421859151276e-07,1.0,3.436103343963623,0.8913919413919414
878,3.6081982557334413e-07,1.0,3.4376447200775146,0.8913919413919414
879,3.5975548939859436e-07,1.0,3.439176321029663,0.8913919413919414
880,3.5549803101275756e-07,1.0,3.4406402111053467,0.8913919413919414
881,3.5549803101275756e-07,1.0,3.442070484161377,0.8913919413919414
882,3.5443366641629837e-07,1.0,3.4435107707977295,0.8913919413919414
883,3.5336930181983917e-07,1.0,3.4449856281280518,0.8913919413919414
884,3.5124057262692077e-07,1.0,3.446502685546875,0.8913919413919414
885,3.480475072592526e-07,1.0,3.4479804039001465,0.8913919413919414
886,3.480475072592526e-07,1.0,3.4494235515594482,0.8913919413919414
887,3.469831426627934e-07,1.0,3.4508583545684814,0.8913919413919414
888,3.44854413469875e-07,1.0,3.4523022174835205,0.8913919413919414
889,3.437900488734158e-07,1.0,3.453766345977783,0.8913919413919414
890,3.4059692666232877e-07,1.0,3.4552314281463623,0.8913919413919414
891,3.3740388971637003e-07,1.0,3.4566593170166016,0.8913919413919414
892,3.3740388971637003e-07,1.0,3.4580776691436768,0.8913919413919414
893,3.3633952511991083e-07,1.0,3.45953631401062,0.8913919413919414
894,3.3527516052345163e-07,1.0,3.4610214233398438,0.8913919413919414
895,3.3421079592699243e-07,1.0,3.462545156478882,0.8913919413919414
896,3.320820383123646e-07,1.0,3.4640562534332275,0.8913919413919414
897,3.310176737159054e-07,1.0,3.4655051231384277,0.8913919413919414
898,3.2888897294469643e-07,1.0,3.4668965339660645,0.8913919413919414
899,3.2676024375177803e-07,1.0,3.4682986736297607,0.8913919413919414
900,3.2676024375177803e-07,1.0,3.469712972640991,0.8913919413919414
901,3.2569590757702827e-07,1.0,3.4711406230926514,0.8913919413919414
902,3.2463154298056907e-07,1.0,3.472562074661255,0.8913919413919414
903,3.2356714996240044e-07,1.0,3.4739766120910645,0.8913919413919414
904,3.2037405617302284e-07,1.0,3.4754345417022705,0.8913919413919414
905,3.1930969157656364e-07,1.0,3.4769413471221924,0.8913919413919414
906,3.1718099080535467e-07,1.0,3.4784014225006104,0.8913919413919414
907,3.161166546306049e-07,1.0,3.4798262119293213,0.8913919413919414
908,3.1398789701597707e-07,1.0,3.4812350273132324,0.8913919413919414
909,3.1292353241951787e-07,1.0,3.482618570327759,0.8913919413919414
910,3.1185916782305867e-07,1.0,3.48402738571167,0.8913919413919414
911,3.1185916782305867e-07,1.0,3.485466480255127,0.8913919413919414
912,3.1079480322659947e-07,1.0,3.4869353771209717,0.8913919413919414
913,3.0866607403368107e-07,1.0,3.488386631011963,0.8913919413919414
914,3.0653731641905324e-07,1.0,3.4898056983947754,0.8913919413919414
915,3.0547298024430347e-07,1.0,3.491197109222412,0.8913919413919414
916,3.0227988645492587e-07,1.0,3.492574691772461,0.8913919413919414
917,3.012155502801761e-07,1.0,3.493973970413208,0.8913919413919414
918,3.012155502801761e-07,1.0,3.495387554168701,0.8913919413919414
919,3.012155502801761e-07,1.0,3.4968278408050537,0.8913919413919414
920,3.001511856837169e-07,1.0,3.4982783794403076,0.8913919413919414
921,2.980224564907985e-07,1.0,3.499742031097412,0.8913919413919414
922,2.958936988761707e-07,1.0,3.501213550567627,0.8913919413919414
923,2.948293627014209e-07,1.0,3.502678155899048,0.8913919413919414
924,2.948293627014209e-07,1.0,3.504138231277466,0.8913919413919414
925,2.937649981049617e-07,1.0,3.505607843399048,0.8913919413919414
926,2.9163629733375274e-07,1.0,3.507072687149048,0.8913919413919414
927,2.8950756814083434e-07,1.0,3.508519411087036,0.8913919413919414
928,2.8844320354437514e-07,1.0,3.5099709033966064,0.8913919413919414
929,2.873788105262065e-07,1.0,3.5114238262176514,0.8913919413919414
930,2.841857167368289e-07,1.0,3.5128800868988037,0.8913919413919414
931,2.841857167368289e-07,1.0,3.514336109161377,0.8913919413919414
932,2.831213521403697e-07,1.0,3.5158040523529053,0.8913919413919414
933,2.831213521403697e-07,1.0,3.517289638519287,0.8913919413919414
934,2.820569875439105e-07,1.0,3.5187466144561768,0.8913919413919414
935,2.788638937545329e-07,1.0,3.5201518535614014,0.8913919413919414
936,2.777995291580737e-07,1.0,3.5215442180633545,0.8913919413919414
937,2.777995291580737e-07,1.0,3.522956371307373,0.8913919413919414
938,2.756707999651553e-07,1.0,3.5243301391601562,0.8913919413919414
939,2.746064353686961e-07,1.0,3.5256993770599365,0.8913919413919414
940,2.746064353686961e-07,1.0,3.527069568634033,0.8913919413919414
941,2.7247773459748714e-07,1.0,3.5284342765808105,0.8913919413919414
942,2.7141337000102794e-07,1.0,3.52982497215271,0.8913919413919414
943,2.7034900540456874e-07,1.0,3.53123140335083,0.8913919413919414
944,2.7034900540456874e-07,1.0,3.532655954360962,0.8913919413919414
945,2.6928464080810954e-07,1.0,3.534093141555786,0.8913919413919414
946,2.6928464080810954e-07,1.0,3.535550594329834,0.8913919413919414
947,2.6609154701873194e-07,1.0,3.5369269847869873,0.8913919413919414
948,2.6289845322935435e-07,1.0,3.5383036136627197,0.8913919413919414
949,2.607696956147265e-07,1.0,3.5397069454193115,0.8913919413919414
950,2.597053310182673e-07,1.0,3.5411033630371094,0.8913919413919414
951,2.597053310182673e-07,1.0,3.542508602142334,0.8913919413919414
952,2.597053310182673e-07,1.0,3.5439159870147705,0.8913919413919414
953,2.5864099484351755e-07,1.0,3.545346975326538,0.8913919413919414
954,2.5864099484351755e-07,1.0,3.5468008518218994,0.8913919413919414
955,2.5864099484351755e-07,1.0,3.5482542514801025,0.8913919413919414
956,2.5651226565059915e-07,1.0,3.5496826171875,0.8913919413919414
957,2.5438353645768075e-07,1.0,3.5510871410369873,0.8913919413919414
958,2.5225480726476235e-07,1.0,3.552410364151001,0.8913919413919414
959,2.5119044266830315e-07,1.0,3.5537312030792236,0.8913919413919414
960,2.5012607807184395e-07,1.0,3.5550689697265625,0.8913919413919414
961,2.4906171347538475e-07,1.0,3.5564515590667725,0.8913919413919414
962,2.4906171347538475e-07,1.0,3.557852268218994,0.8913919413919414
963,2.4799734887892555e-07,1.0,3.5592708587646484,0.8913919413919414
964,2.4693298428246635e-07,1.0,3.560760259628296,0.8913919413919414
965,2.4586861968600715e-07,1.0,3.5622386932373047,0.8913919413919414
966,2.448042835112574e-07,1.0,3.563678741455078,0.8913919413919414
967,2.4373989049308875e-07,1.0,3.565056085586548,0.8913919413919414
968,2.4267552589662955e-07,1.0,3.56642484664917,0.8913919413919414
969,2.4161116130017035e-07,1.0,3.567814350128174,0.8913919413919414
970,2.4054679670371115e-07,1.0,3.56919264793396,0.8913919413919414
971,2.4054679670371115e-07,1.0,3.570560932159424,0.8913919413919414
972,2.3735371712518827e-07,1.0,3.572005033493042,0.8913919413919414
973,2.3522498793226987e-07,1.0,3.573456287384033,0.8913919413919414
974,2.3522498793226987e-07,1.0,3.5748822689056396,0.8913919413919414
975,2.3522498793226987e-07,1.0,3.576303243637085,0.8913919413919414
976,2.3522498793226987e-07,1.0,3.5777201652526855,0.8913919413919414
977,2.3309624452849675e-07,1.0,3.579087495803833,0.8913919413919414
978,2.3096751533557836e-07,1.0,3.5804576873779297,0.8913919413919414
979,2.3096751533557836e-07,1.0,3.5818538665771484,0.8913919413919414
980,2.2990316494997387e-07,1.0,3.583268404006958,0.8913919413919414
981,2.2883880035351467e-07,1.0,3.5847530364990234,0.8913919413919414
982,2.2671007116059627e-07,1.0,3.5861546993255615,0.8913919413919414
983,2.2671007116059627e-07,1.0,3.5874807834625244,0.8913919413919414
984,2.2564570656413707e-07,1.0,3.588798761367798,0.8913919413919414
985,2.2458134196767787e-07,1.0,3.5901434421539307,0.8913919413919414
986,2.2458134196767787e-07,1.0,3.5914955139160156,0.8913919413919414
987,2.2351697737121867e-07,1.0,3.5928752422332764,0.8913919413919414
988,2.2351697737121867e-07,1.0,3.5942883491516113,0.8913919413919414
989,2.2138824817830027e-07,1.0,3.595672607421875,0.8913919413919414
990,2.2032386937098636e-07,1.0,3.5970797538757324,0.8913919413919414
991,2.1925951898538187e-07,1.0,3.59851336479187,0.8913919413919414
992,2.1819515438892267e-07,1.0,3.5999233722686768,0.8913919413919414
993,2.1819515438892267e-07,1.0,3.601292133331299,0.8913919413919414
994,2.1819515438892267e-07,1.0,3.6026413440704346,0.8913919413919414
995,2.1713078979246347e-07,1.0,3.603991985321045,0.8913919413919414
996,2.1500206059954508e-07,1.0,3.605348825454712,0.8913919413919414
997,2.1500206059954508e-07,1.0,3.606684446334839,0.8913919413919414
998,2.1500206059954508e-07,1.0,3.6080234050750732,0.8913919413919414
999,2.1074460221370828e-07,1.0,3.6094632148742676,0.8913919413919414
