,loss,recall,val_loss,val_recall
0,0.6476489305496216,0.6282312925170067,0.5485475659370422,0.6931547619047619
1,0.47535204887390137,0.6989403453689168,0.45835015177726746,0.809369202226345
2,0.45228537917137146,0.7672930244358815,0.43274539709091187,0.8221655328798185
3,0.40271687507629395,0.7943181818181818,0.39531320333480835,0.8028628117913833
4,0.34648793935775757,0.8152494331065759,0.36859217286109924,0.8553571428571428
5,0.3182022273540497,0.8608225108225108,0.3475794494152069,0.8591836734693877
6,0.3116091191768646,0.8274891774891774,0.34828445315361023,0.8424319727891156
7,0.3003835082054138,0.8464801071943928,0.33776742219924927,0.8469671201814059
8,0.2943577468395233,0.827891156462585,0.32922786474227905,0.844812925170068
9,0.2554391026496887,0.8910946196660483,0.32811543345451355,0.8577380952380952
10,0.2693803012371063,0.8646516182230467,0.3239883482456207,0.8708333333333333
11,0.22502465546131134,0.893560606060606,0.31381696462631226,0.8708333333333333
12,0.22720251977443695,0.8995670995670996,0.3060317933559418,0.8708333333333333
13,0.24562501907348633,0.8786796536796536,0.3134925961494446,0.869642857142857
14,0.2457820624113083,0.8799242424242424,0.3601672351360321,0.8074546485260771
15,0.206436887383461,0.9373840445269017,0.33843332529067993,0.866326530612245
16,0.22196850180625916,0.8639172335600908,0.30163413286209106,0.8708333333333333
17,0.18968026340007782,0.8959750566893423,0.3209715485572815,0.8577380952380952
18,0.17352308332920074,0.9030303030303031,0.32634595036506653,0.8752112966398681
19,0.1398938149213791,0.9506493506493506,0.4419898986816406,0.8253968253968254
20,0.19175903499126434,0.9023809523809524,0.29601091146469116,0.8709750566893424
21,0.16998207569122314,0.9506493506493507,0.3063495457172394,0.8648809523809523
22,0.1944016069173813,0.9027210884353741,0.30847033858299255,0.8946969696969697
23,0.14826932549476624,0.9302411873840446,0.3302103579044342,0.8612528344671201
24,0.1402125358581543,0.9367346938775512,0.28835421800613403,0.8845238095238095
25,0.15570101141929626,0.9469387755102041,0.3550269603729248,0.9019325912183055
26,0.1424490362405777,0.9339826839826839,0.30456820130348206,0.8827380952380952
27,0.13956351578235626,0.9302411873840446,0.2930314838886261,0.8743480725623582
28,0.11152123659849167,0.9523809523809524,0.2863405644893646,0.868452380952381
29,0.11934344470500946,0.933982683982684,0.3045864701271057,0.8827380952380952
30,0.11673080176115036,0.9367346938775512,0.2828964591026306,0.8827380952380952
31,0.12688180804252625,0.9404761904761905,0.4352075457572937,0.8836425479282621
32,0.12283986061811447,0.9387445887445888,0.3455662429332733,0.8779761904761905
33,0.12474292516708374,0.9373840445269017,0.620642364025116,0.6844783192997479
34,0.12408383935689926,0.9577922077922078,0.3204970955848694,0.8743480725623582
35,0.09591957181692123,0.9642857142857143,0.4774026870727539,0.8263863121005978
36,0.07398248463869095,0.9642857142857143,0.29313912987709045,0.8803133374561946
37,0.0708860382437706,0.9761904761904762,0.3881644904613495,0.8433956916099773
38,0.06537318229675293,0.9696969696969697,0.30422115325927734,0.8565476190476191
39,0.05116629600524902,0.9761904761904762,0.3274742066860199,0.8748299319727891
40,0.03673660010099411,1.0,0.31355613470077515,0.9043290043290043
41,0.03826627880334854,1.0,0.3215910792350769,0.8629251700680272
42,0.032713185995817184,1.0,0.32844775915145874,0.889620696763554
43,0.031819384545087814,1.0,0.32531532645225525,0.8714285714285713
44,0.020958388224244118,1.0,0.3725818991661072,0.9043290043290043
45,0.023594900965690613,1.0,0.3585057556629181,0.8795918367346939
46,0.02827797643840313,1.0,0.42273369431495667,0.8832251082251081
47,0.03506921976804733,0.994047619047619,0.3650294840335846,0.8995670995670996
48,0.05750271677970886,0.994047619047619,0.3515819013118744,0.8883219954648526
49,0.08606486767530441,0.9642857142857143,0.4730542302131653,0.886979686979687
50,0.051415763795375824,0.9761904761904762,0.9693537950515747,0.6921897546897547
51,0.0670170858502388,0.9642857142857143,0.4560234546661377,0.9019325912183055
52,0.039890922605991364,1.0,0.32586345076560974,0.8896103896103896
53,0.02969919517636299,1.0,0.3287692666053772,0.8629251700680272
54,0.033342938870191574,1.0,0.4234592020511627,0.8975108225108226
55,0.021579498425126076,1.0,0.3837363123893738,0.8732142857142857
56,0.01632576435804367,1.0,0.3598313331604004,0.8961038961038962
57,0.014221048913896084,1.0,0.39479371905326843,0.8922077922077923
58,0.012903215363621712,1.0,0.3602677285671234,0.8714285714285713
59,0.013628224842250347,1.0,0.4096170961856842,0.8818181818181817
60,0.010691889561712742,1.0,0.47018176317214966,0.8829648526077097
61,0.013488815166056156,1.0,0.4156796932220459,0.8900432900432901
62,0.009539813734591007,1.0,0.40982627868652344,0.8900432900432901
63,0.009207365103065968,1.0,0.4217243194580078,0.8795918367346939
64,0.0064884149469435215,1.0,0.44860512018203735,0.9043290043290043
65,0.006463837809860706,1.0,0.39684921503067017,0.8876623376623376
66,0.013246112503111362,1.0,0.4883565902709961,0.8987012987012987
67,0.05139262601733208,0.9869047619047618,0.5476633906364441,0.8707887350744493
68,0.07530125230550766,0.9804112554112555,1.072474479675293,0.788961038961039
69,0.14305570721626282,0.8748626373626374,1.0320155620574951,0.6819805194805195
70,0.08453124761581421,0.9642857142857143,0.64263516664505,0.8007936507936507
71,0.06909381598234177,0.9642857142857143,0.3716282546520233,0.8876468769325913
72,0.03125946596264839,1.0,0.43982234597206116,0.895330859616574
73,0.057357557117938995,0.9880952380952381,0.37888073921203613,0.889620696763554
74,0.04032108932733536,0.9761904761904762,0.36791589856147766,0.8629251700680272
75,0.026097392663359642,1.0,0.4016408920288086,0.8787981859410431
76,0.018033742904663086,1.0,0.4039921760559082,0.8792207792207792
77,0.020416658371686935,1.0,0.5366841554641724,0.8766233766233766
78,0.016878945752978325,1.0,0.42463311553001404,0.8629251700680272
79,0.014614931307733059,1.0,0.4393475353717804,0.8629251700680272
80,0.0075570666231215,1.0,0.46518656611442566,0.8565476190476191
81,0.010321223177015781,1.0,0.4556262493133545,0.8629251700680272
82,0.006875193677842617,1.0,0.5006523132324219,0.8861471861471861
83,0.0041518849320709705,1.0,0.46648672223091125,0.8900432900432901
84,0.005734635982662439,1.0,0.47300001978874207,0.8714285714285713
85,0.004243692383170128,1.0,0.4803045392036438,0.8629251700680272
86,0.003740929067134857,1.0,0.4844910502433777,0.8822510822510823
87,0.0026596186216920614,1.0,0.4980553090572357,0.8900432900432901
88,0.003540582489222288,1.0,0.49295714497566223,0.8822510822510823
89,0.0036881465930491686,1.0,0.4893181324005127,0.8822510822510823
90,0.003047084202989936,1.0,0.4828786253929138,0.8822510822510823
91,0.0024887961335480213,1.0,0.4904758930206299,0.8822510822510823
92,0.0023693591356277466,1.0,0.487476646900177,0.8822510822510823
93,0.002374469069764018,1.0,0.4840092062950134,0.8822510822510823
94,0.0022728315088897943,1.0,0.4835532605648041,0.8822510822510823
95,0.0019293681252747774,1.0,0.4893214702606201,0.8822510822510823
96,0.0017096017254516482,1.0,0.5005070567131042,0.8822510822510823
97,0.001996048027649522,1.0,0.49679234623908997,0.8822510822510823
98,0.0021034253295511007,1.0,0.4944784939289093,0.8822510822510823
99,0.002805232536047697,1.0,0.5136215686798096,0.8733766233766234
100,0.002051540417596698,1.0,0.5031975507736206,0.8822510822510823
101,0.001958702225238085,1.0,0.5016204118728638,0.8714285714285713
102,0.001721897511743009,1.0,0.5036357045173645,0.8822510822510823
103,0.0020176763646304607,1.0,0.5136441588401794,0.8807462378890951
104,0.0016139032086357474,1.0,0.5117421746253967,0.8807462378890951
105,0.0015815506922081113,1.0,0.5059344172477722,0.8822510822510823
106,0.0017439391231164336,1.0,0.5009217858314514,0.8822510822510823
107,0.0015724218683317304,1.0,0.4996272921562195,0.8822510822510823
108,0.0018124596681445837,1.0,0.49623844027519226,0.8822510822510823
109,0.0015065529150888324,1.0,0.5038267970085144,0.8822510822510823
110,0.0014224877813830972,1.0,0.4985882639884949,0.8822510822510823
111,0.00142716767732054,1.0,0.49764132499694824,0.8822510822510823
112,0.001947541837580502,1.0,0.5090684294700623,0.8822510822510823
113,0.0015876480611041188,1.0,0.5093581080436707,0.8822510822510823
114,0.0016680406406521797,1.0,0.5057778358459473,0.8714285714285713
115,0.001359355985186994,1.0,0.5316019654273987,0.8733766233766234
116,0.0014025808777660131,1.0,0.530034601688385,0.8807462378890951
117,0.0013514613965526223,1.0,0.5019842982292175,0.8822510822510823
118,0.0011184710310772061,1.0,0.5095193386077881,0.8822510822510823
119,0.0011880192905664444,1.0,0.5128795504570007,0.8822510822510823
120,0.0014671446988359094,1.0,0.5052250623703003,0.8822510822510823
121,0.0010868993122130632,1.0,0.5041465759277344,0.8822510822510823
122,0.0011021775426343083,1.0,0.5157192349433899,0.8733766233766234
123,0.001252417336218059,1.0,0.5069555044174194,0.8822510822510823
124,0.0009377102251164615,1.0,0.5076107382774353,0.8822510822510823
125,0.0009558050660416484,1.0,0.5122693777084351,0.8733766233766234
126,0.0011401876108720899,1.0,0.515436053276062,0.8733766233766234
127,0.0011807848932221532,1.0,0.5159645080566406,0.8822510822510823
128,0.0010597507935017347,1.0,0.5207011103630066,0.8822510822510823
129,0.0009009293862618506,1.0,0.5181340575218201,0.8822510822510823
130,0.0008881542016752064,1.0,0.5210570693016052,0.8733766233766234
131,0.0008226703503169119,1.0,0.5218457579612732,0.8733766233766234
132,0.001135044964030385,1.0,0.5212884545326233,0.8733766233766234
133,0.001038221875205636,1.0,0.5123356580734253,0.8733766233766234
134,0.0007447284297086298,1.0,0.5078098773956299,0.8822510822510823
135,0.0009277224889956415,1.0,0.5198224186897278,0.8822510822510823
136,0.0010195492068305612,1.0,0.5235389471054077,0.8822510822510823
137,0.0008155449177138507,1.0,0.5196031928062439,0.8822510822510823
138,0.0009006186737678945,1.0,0.5222583413124084,0.8822510822510823
139,0.0007760030566714704,1.0,0.5239596962928772,0.8733766233766234
140,0.0008444664417766035,1.0,0.5234850645065308,0.8822510822510823
141,0.001030688057653606,1.0,0.5236403942108154,0.8822510822510823
142,0.0007908518309704959,1.0,0.5243762135505676,0.8822510822510823
143,0.0008200692245736718,1.0,0.525044322013855,0.8822510822510823
144,0.0008505689329467714,1.0,0.5308061242103577,0.8733766233766234
145,0.0007109381258487701,1.0,0.5408030152320862,0.8807462378890951
146,0.0009425166645087302,1.0,0.5201247334480286,0.8822510822510823
147,0.0007981109083630145,1.0,0.5160791873931885,0.8822510822510823
148,0.0006797615787945688,1.0,0.5183820724487305,0.8822510822510823
149,0.0007084800745360553,1.0,0.5224111676216125,0.8822510822510823
150,0.0007231869385577738,1.0,0.5221356749534607,0.8733766233766234
151,0.0006462646997533739,1.0,0.5191011428833008,0.8822510822510823
152,0.0007445717346854508,1.0,0.5196025967597961,0.8822510822510823
153,0.0007897331961430609,1.0,0.5208653211593628,0.8822510822510823
154,0.0006951174582354724,1.0,0.5148115158081055,0.8822510822510823
155,0.0008822349482215941,1.0,0.5169597268104553,0.8822510822510823
156,0.000721546181011945,1.0,0.5238123536109924,0.8822510822510823
157,0.0007072603912092745,1.0,0.536291241645813,0.8822510822510823
158,0.0005715191946364939,1.0,0.539917528629303,0.8733766233766234
159,0.0007421124028041959,1.0,0.5332816243171692,0.8822510822510823
160,0.000701992423273623,1.0,0.5313804149627686,0.8822510822510823
161,0.0005505472654476762,1.0,0.5331248044967651,0.8822510822510823
162,0.0007848846144042909,1.0,0.531692385673523,0.8822510822510823
163,0.0007663527503609657,1.0,0.5291162133216858,0.8822510822510823
164,0.0006327652954496443,1.0,0.5249048471450806,0.8822510822510823
165,0.0005581213044933975,1.0,0.5243353247642517,0.8822510822510823
166,0.0007384863565675914,1.0,0.5335689783096313,0.8733766233766234
167,0.0005527571775019169,1.0,0.5338703393936157,0.8733766233766234
168,0.0005694235442206264,1.0,0.5314432978630066,0.8733766233766234
169,0.0005527283065021038,1.0,0.5289881825447083,0.8733766233766234
170,0.00046796552487649024,1.0,0.524547278881073,0.8822510822510823
171,0.0006273314938880503,1.0,0.5281903743743896,0.8822510822510823
172,0.00046354206278920174,1.0,0.529050350189209,0.8822510822510823
173,0.00044026452815160155,1.0,0.5284550786018372,0.8822510822510823
174,0.00046132327406667173,1.0,0.5262574553489685,0.8822510822510823
175,0.0006178137846291065,1.0,0.5320641398429871,0.8822510822510823
176,0.0006997854798100889,1.0,0.5301727652549744,0.8822510822510823
177,0.0005746356910094619,1.0,0.5245050191879272,0.8822510822510823
178,0.0004933995078317821,1.0,0.5326564908027649,0.8733766233766234
179,0.00044037651969119906,1.0,0.545181393623352,0.8733766233766234
180,0.0005370466969907284,1.0,0.5394335389137268,0.8733766233766234
181,0.0005160782602615654,1.0,0.5352426171302795,0.8733766233766234
182,0.0004984763800166547,1.0,0.5340766310691833,0.8822510822510823
183,0.0005609234794974327,1.0,0.5411080718040466,0.8822510822510823
184,0.000517187814693898,1.0,0.5341507792472839,0.8822510822510823
185,0.0004938794299960136,1.0,0.533970296382904,0.8822510822510823
186,0.000557494699023664,1.0,0.5408884286880493,0.8733766233766234
187,0.0005220217863097787,1.0,0.5359553694725037,0.8733766233766234
188,0.0004693958908319473,1.0,0.5293290019035339,0.8822510822510823
189,0.0004671609785873443,1.0,0.5327686667442322,0.8822510822510823
190,0.000745078141335398,1.0,0.5405425429344177,0.8733766233766234
191,0.0005187385249882936,1.0,0.55621737241745,0.8900432900432901
192,0.0004916618345305324,1.0,0.5221665501594543,0.8822510822510823
193,0.0004505034885369241,1.0,0.5312029719352722,0.8737476808905379
194,0.00046576079330407083,1.0,0.5347035527229309,0.8737476808905379
195,0.00048736255848780274,1.0,0.5426919460296631,0.8733766233766234
196,0.0004096369375474751,1.0,0.5453221797943115,0.8733766233766234
197,0.00041029302519746125,1.0,0.5423106551170349,0.8733766233766234
198,0.00045246235094964504,1.0,0.5299823880195618,0.8822510822510823
199,0.0003564286162145436,1.0,0.5324515700340271,0.8737476808905379
200,0.00038319334271363914,1.0,0.540237307548523,0.8822510822510823
201,0.0003712161851581186,1.0,0.5467921495437622,0.8733766233766234
202,0.00043712923070415854,1.0,0.539388120174408,0.8733766233766234
203,0.00037002298631705344,1.0,0.5370808839797974,0.8733766233766234
204,0.00040020490996539593,1.0,0.5359894037246704,0.8822510822510823
205,0.00030150217935442924,1.0,0.5383526086807251,0.8822510822510823
206,0.0003327406302560121,1.0,0.5396824479103088,0.8822510822510823
207,0.000362525403033942,1.0,0.5466826558113098,0.8733766233766234
208,0.0004260589776095003,1.0,0.5528475642204285,0.8733766233766234
209,0.00034046886139549315,1.0,0.5489587783813477,0.8733766233766234
210,0.0003030304505955428,1.0,0.5487434267997742,0.8733766233766234
211,0.00034779441193677485,1.0,0.5502027869224548,0.8733766233766234
212,0.00033271280699409544,1.0,0.549834668636322,0.8733766233766234
213,0.00045056696399115026,1.0,0.550662636756897,0.8733766233766234
214,0.000358945777406916,1.0,0.546292245388031,0.8822510822510823
215,0.0004601639520842582,1.0,0.548922061920166,0.8822510822510823
216,0.00043536440352909267,1.0,0.5565342307090759,0.8733766233766234
217,0.000311026640702039,1.0,0.5547568202018738,0.8733766233766234
218,0.00032568821916356683,1.0,0.5484386086463928,0.8733766233766234
219,0.00029372223070822656,1.0,0.545387864112854,0.8733766233766234
220,0.00029857418849132955,1.0,0.5467759966850281,0.8822510822510823
221,0.00029671998345293105,1.0,0.5514390468597412,0.8822510822510823
222,0.0003295689239166677,1.0,0.5535934567451477,0.8733766233766234
223,0.0003407132753636688,1.0,0.5505762100219727,0.8733766233766234
224,0.00032182998256757855,1.0,0.5508247017860413,0.8733766233766234
225,0.0003343462594784796,1.0,0.5484883189201355,0.8733766233766234
226,0.0002762756193988025,1.0,0.5458378195762634,0.8733766233766234
227,0.00029720363090746105,1.0,0.5475009083747864,0.8733766233766234
228,0.00024284704704768956,1.0,0.5468321442604065,0.8733766233766234
229,0.00029879339854232967,1.0,0.5512405633926392,0.8733766233766234
230,0.00031584728276357055,1.0,0.5540643334388733,0.8733766233766234
231,0.00027435875381343067,1.0,0.5560387372970581,0.8733766233766234
232,0.00022284545411821455,1.0,0.5523085594177246,0.8733766233766234
233,0.00026851639267988503,1.0,0.5538840889930725,0.8733766233766234
234,0.00029017761698924005,1.0,0.5582216382026672,0.8733766233766234
235,0.0003141866473015398,1.0,0.5546718239784241,0.8733766233766234
236,0.00030643626814708114,1.0,0.5475368499755859,0.8822510822510823
237,0.0003404314338695258,1.0,0.5522176027297974,0.8822510822510823
238,0.0003341794363223016,1.0,0.5661067366600037,0.8733766233766234
239,0.00030642873025499284,1.0,0.556440532207489,0.8733766233766234
240,0.0002600635925773531,1.0,0.5534197688102722,0.8733766233766234
241,0.000431651045801118,1.0,0.554582953453064,0.8733766233766234
242,0.0003095199936069548,1.0,0.5533773899078369,0.8822510822510823
243,0.00027857747045345604,1.0,0.550919234752655,0.8737476808905379
244,0.0003439553256612271,1.0,0.5614488124847412,0.8733766233766234
245,0.0002846617717295885,1.0,0.5715342164039612,0.8733766233766234
246,0.00024213643337134272,1.0,0.5545700192451477,0.8733766233766234
247,0.0003195879689883441,1.0,0.5447767376899719,0.8737476808905379
248,0.00022418196022044867,1.0,0.5484763383865356,0.8733766233766234
249,0.00026410099235363305,1.0,0.5544120669364929,0.8733766233766234
250,0.0002598573628347367,1.0,0.5506026744842529,0.8822510822510823
251,0.0002576664846856147,1.0,0.5501929521560669,0.8737476808905379
252,0.00023865714319981635,1.0,0.5562385320663452,0.8733766233766234
253,0.000251484481850639,1.0,0.5597332119941711,0.8733766233766234
254,0.00025781203294172883,1.0,0.558686375617981,0.8733766233766234
255,0.0002521084388718009,1.0,0.5572572350502014,0.8733766233766234
256,0.00024397738161496818,1.0,0.5528408885002136,0.8632034632034633
257,0.0002850701566785574,1.0,0.5526152849197388,0.8632034632034633
258,0.0002191000385209918,1.0,0.5558571219444275,0.8733766233766234
259,0.00018775743956211954,1.0,0.5537011027336121,0.8733766233766234
260,0.00022780602739658207,1.0,0.5558868646621704,0.8733766233766234
261,0.00023247711942531168,1.0,0.5557897686958313,0.8733766233766234
262,0.00023205454635899514,1.0,0.5607207417488098,0.8733766233766234
263,0.0002381490485277027,1.0,0.5635859966278076,0.8733766233766234
264,0.00016953230078797787,1.0,0.5577191710472107,0.8733766233766234
265,0.00019548718410078436,1.0,0.5542576909065247,0.8632034632034633
266,0.0002389989822404459,1.0,0.5549048185348511,0.8632034632034633
267,0.00018258240015711635,1.0,0.5562941431999207,0.8733766233766234
268,0.00018687341071199626,1.0,0.5549665093421936,0.8733766233766234
269,0.0002129846252501011,1.0,0.5553646087646484,0.8733766233766234
270,0.0002092958166031167,1.0,0.5526907444000244,0.8733766233766234
271,0.00026575190713629127,1.0,0.5525839924812317,0.8632034632034633
272,0.00016655170475132763,1.0,0.5603682398796082,0.8733766233766234
273,0.00022443463967647403,1.0,0.5566837191581726,0.8733766233766234
274,0.00019163615070283413,1.0,0.5524812340736389,0.8737476808905379
275,0.00020560200209729373,1.0,0.5534969568252563,0.8632034632034633
276,0.00022459623869508505,1.0,0.5609201788902283,0.8733766233766234
277,0.00030822461121715605,1.0,0.5726281404495239,0.8733766233766234
278,0.0002509129699319601,1.0,0.5704768896102905,0.8822510822510823
279,0.0001803832419682294,1.0,0.5584467649459839,0.8737476808905379
280,0.000187974059372209,1.0,0.5587438941001892,0.8632034632034633
281,0.00021123736223671585,1.0,0.567265510559082,0.8733766233766234
282,0.00023196963593363762,1.0,0.5776230096817017,0.8733766233766234
283,0.0002278718166053295,1.0,0.5707024335861206,0.8733766233766234
284,0.00018623576033860445,1.0,0.5544971823692322,0.8632034632034633
285,0.0002207677171099931,1.0,0.5545085072517395,0.8632034632034633
286,0.00018675261526368558,1.0,0.5585876107215881,0.8733766233766234
287,0.00017683999612927437,1.0,0.5527299046516418,0.8733766233766234
288,0.00019567794515751302,1.0,0.5515732169151306,0.8737476808905379
289,0.00016062161012087017,1.0,0.5511177778244019,0.8737476808905379
290,0.0001824214414227754,1.0,0.5563215017318726,0.8632034632034633
291,0.00019123357196804136,1.0,0.5699595212936401,0.8733766233766234
292,0.00020484144624788314,1.0,0.5677231550216675,0.8733766233766234
293,0.0001694272505119443,1.0,0.5567030310630798,0.8632034632034633
294,0.0001737142156343907,1.0,0.5557901263237,0.8632034632034633
295,0.00019423772755544633,1.0,0.5602828860282898,0.8632034632034633
296,0.0001927453704411164,1.0,0.5653520226478577,0.8733766233766234
297,0.00018017074035014957,1.0,0.5645736455917358,0.8737476808905379
298,0.00016632916231174022,1.0,0.565702497959137,0.8632034632034633
299,0.00023041199892759323,1.0,0.5742390751838684,0.8733766233766234
300,0.00019537261687219143,1.0,0.5775629281997681,0.8733766233766234
301,0.00015730294398963451,1.0,0.5711274743080139,0.8733766233766234
302,0.00016157355275936425,1.0,0.5644180178642273,0.8822510822510823
303,0.00017774647858459502,1.0,0.567315936088562,0.8737476808905379
304,0.00015877939586061984,1.0,0.5714259743690491,0.8737476808905379
305,0.0001781153550837189,1.0,0.5741762518882751,0.8733766233766234
306,0.0001657086395425722,1.0,0.5751336812973022,0.8733766233766234
307,0.00014021659444551915,1.0,0.5665794014930725,0.8733766233766234
308,0.0001244488375959918,1.0,0.5653602480888367,0.8632034632034633
309,0.00013222898996900767,1.0,0.5683516263961792,0.8632034632034633
310,0.00012536320718936622,1.0,0.5713617205619812,0.8632034632034633
311,0.00012770204921253026,1.0,0.5728387236595154,0.8733766233766234
312,0.00015858610277064145,1.0,0.5720677971839905,0.8733766233766234
313,0.0001431568816769868,1.0,0.571712851524353,0.8733766233766234
314,0.00016076791507657617,1.0,0.5689005851745605,0.8733766233766234
315,0.00016116090409923345,1.0,0.5668818354606628,0.8737476808905379
316,0.00016095304454211146,1.0,0.5720949769020081,0.8733766233766234
317,0.00018480440485291183,1.0,0.5768360495567322,0.8733766233766234
318,0.0001315866393269971,1.0,0.5749863982200623,0.8733766233766234
319,0.00015956585411913693,1.0,0.5686328411102295,0.8632034632034633
320,0.00018030877981800586,1.0,0.5738529562950134,0.8822510822510823
321,0.00019359691941644996,1.0,0.5736522674560547,0.8822510822510823
322,0.00016010359104257077,1.0,0.5723089575767517,0.8822510822510823
323,0.00013452004350256175,1.0,0.5703250169754028,0.8632034632034633
324,0.00018437897961121053,1.0,0.5783800482749939,0.8733766233766234
325,0.00019654876086860895,1.0,0.5788103342056274,0.8733766233766234
326,0.0001556169881951064,1.0,0.5632683634757996,0.8822510822510823
327,0.000157348535140045,1.0,0.5585240721702576,0.8737476808905379
328,0.00012137503654230386,1.0,0.5640127062797546,0.8632034632034633
329,0.0001360629394184798,1.0,0.5711660981178284,0.8733766233766234
330,0.00012171483831480145,1.0,0.5722885131835938,0.8733766233766234
331,0.00014994530647527426,1.0,0.5688459873199463,0.8733766233766234
332,0.00014665619528386742,1.0,0.5648107528686523,0.8737476808905379
333,0.00017949134053196758,1.0,0.5691890716552734,0.8733766233766234
334,0.00016361157759092748,1.0,0.5746398568153381,0.8733766233766234
335,0.00014980172272771597,1.0,0.5599085092544556,0.8737476808905379
336,0.00011127459583804011,1.0,0.5605657696723938,0.8737476808905379
337,0.00012413327931426466,1.0,0.5602251291275024,0.8632034632034633
338,0.0001505393156548962,1.0,0.5662864446640015,0.8632034632034633
339,0.00013057910837233067,1.0,0.5678632259368896,0.8632034632034633
340,0.0001220867270603776,1.0,0.575619637966156,0.8733766233766234
341,0.00015615721349604428,1.0,0.5715386271476746,0.8733766233766234
342,0.00010862581984838471,1.0,0.5700737833976746,0.8733766233766234
343,0.00012268460704945028,1.0,0.5649207234382629,0.8632034632034633
344,0.0001606093574082479,1.0,0.5676680207252502,0.8822510822510823
345,0.0001231277419719845,1.0,0.5732583403587341,0.8822510822510823
346,0.00015052490925882012,1.0,0.5771898031234741,0.8733766233766234
347,0.0001160836181952618,1.0,0.5762929916381836,0.8632034632034633
348,0.000141522687044926,1.0,0.5782403349876404,0.8733766233766234
349,0.00014120878768153489,1.0,0.5754414200782776,0.8733766233766234
350,0.00012772783520631492,1.0,0.5774365663528442,0.8733766233766234
351,0.0001453175354981795,1.0,0.5708670616149902,0.8632034632034633
352,0.00010786839993670583,1.0,0.5724740028381348,0.8632034632034633
353,0.00011854193144245073,1.0,0.5812035202980042,0.8733766233766234
354,0.00011335290037095547,1.0,0.5827385783195496,0.8733766233766234
355,0.00011005792475771159,1.0,0.5814577341079712,0.8733766233766234
356,0.00013433473941404372,1.0,0.5738959908485413,0.8733766233766234
357,9.643744124332443e-05,1.0,0.5708580017089844,0.8733766233766234
358,0.00011625933984760195,1.0,0.5682349801063538,0.8737476808905379
359,0.00011113320215372369,1.0,0.5684396624565125,0.8737476808905379
360,0.00012093049008399248,1.0,0.5725064873695374,0.8632034632034633
361,0.00010292012302670628,1.0,0.5757670998573303,0.8733766233766234
362,0.000107042673334945,1.0,0.5717121958732605,0.8733766233766234
363,0.00010469435801496729,1.0,0.5724021196365356,0.8733766233766234
364,0.00010076787293655798,1.0,0.5751695036888123,0.8733766233766234
365,0.00010565849515842274,1.0,0.576940655708313,0.8733766233766234
366,9.406806202605367e-05,1.0,0.5759525895118713,0.8733766233766234
367,0.00012065485498169437,1.0,0.5805081129074097,0.8733766233766234
368,0.0001164892892120406,1.0,0.5817389488220215,0.8733766233766234
369,0.00014727687812410295,1.0,0.5793045163154602,0.8733766233766234
370,0.00011851646559080109,1.0,0.5776796340942383,0.8733766233766234
371,0.00010836774890776724,1.0,0.5682902932167053,0.8632034632034633
372,0.00011808875569840893,1.0,0.5709857940673828,0.8737476808905379
373,0.00013309578935150057,1.0,0.5777350068092346,0.8632034632034633
374,0.00011183592869201675,1.0,0.5773745179176331,0.8632034632034633
375,9.803911962080747e-05,1.0,0.5782620310783386,0.8733766233766234
376,8.724774670554325e-05,1.0,0.577226996421814,0.8632034632034633
377,0.00010639510583132505,1.0,0.5793514847755432,0.8632034632034633
378,0.00010335109254810959,1.0,0.5817791223526001,0.8733766233766234
379,0.00011372017615940422,1.0,0.5792931318283081,0.8632034632034633
380,8.621386223239824e-05,1.0,0.5791506767272949,0.8733766233766234
381,0.0001136016144300811,1.0,0.5761755108833313,0.8632034632034633
382,0.00010178024240303785,1.0,0.5753812789916992,0.8733766233766234
383,9.184020018437877e-05,1.0,0.5748491287231445,0.8733766233766234
384,0.00011427210847614333,1.0,0.5769578218460083,0.8733766233766234
385,0.00010030569683294743,1.0,0.5735992789268494,0.8632034632034633
386,8.435633935732767e-05,1.0,0.5748118758201599,0.8632034632034633
387,0.00010336090053897351,1.0,0.5756875276565552,0.8632034632034633
388,9.30858586798422e-05,1.0,0.5817915201187134,0.8632034632034633
389,9.489571675658226e-05,1.0,0.5853462219238281,0.8733766233766234
390,8.515109948348254e-05,1.0,0.5830926895141602,0.8733766233766234
391,9.235698962584138e-05,1.0,0.5794196724891663,0.8632034632034633
392,8.776115282671526e-05,1.0,0.5801852941513062,0.8632034632034633
393,0.0001008071267278865,1.0,0.5869580507278442,0.8733766233766234
394,0.00010128285066457465,1.0,0.5920116305351257,0.8733766233766234
395,0.00010829320672200993,1.0,0.5800191760063171,0.8737476808905379
396,7.413618732243776e-05,1.0,0.5792922377586365,0.8737476808905379
397,9.141908958554268e-05,1.0,0.58514803647995,0.8632034632034633
398,8.171980880433694e-05,1.0,0.5962144136428833,0.8733766233766234
399,8.046504080994055e-05,1.0,0.5864837765693665,0.8733766233766234
400,9.669054998084903e-05,1.0,0.5815807580947876,0.8632034632034633
401,0.00010300584108335897,1.0,0.5826392769813538,0.8737476808905379
402,9.148749813903123e-05,1.0,0.5875843167304993,0.8737476808905379
403,0.00010063743684440851,1.0,0.5858891606330872,0.8737476808905379
404,8.645964408060536e-05,1.0,0.5844107270240784,0.8632034632034633
405,9.448213677387685e-05,1.0,0.5882649421691895,0.8733766233766234
406,7.71501290728338e-05,1.0,0.5858027338981628,0.8733766233766234
407,7.81361450208351e-05,1.0,0.584248960018158,0.8632034632034633
408,7.700365677010268e-05,1.0,0.5831336379051208,0.8632034632034633
409,7.915276364656165e-05,1.0,0.5854525566101074,0.8632034632034633
410,6.993582792347297e-05,1.0,0.592323362827301,0.8733766233766234
411,6.471641972893849e-05,1.0,0.587395966053009,0.8733766233766234
412,7.60022085160017e-05,1.0,0.5831900835037231,0.8632034632034633
413,9.033601236296818e-05,1.0,0.5823689699172974,0.8632034632034633
414,8.49821517476812e-05,1.0,0.5866679549217224,0.8733766233766234
415,6.88824657117948e-05,1.0,0.5887998342514038,0.8733766233766234
416,7.789280061842874e-05,1.0,0.584477424621582,0.8733766233766234
417,8.335696475114673e-05,1.0,0.5808296203613281,0.8737476808905379
418,8.395441545872018e-05,1.0,0.5860196352005005,0.8632034632034633
419,7.847704546293244e-05,1.0,0.5933459997177124,0.8733766233766234
420,7.031061250017956e-05,1.0,0.5936676263809204,0.8733766233766234
421,8.36997278383933e-05,1.0,0.5904399752616882,0.8733766233766234
422,6.0727852542186156e-05,1.0,0.5893407464027405,0.8733766233766234
423,9.047089406521991e-05,1.0,0.5856335759162903,0.8632034632034633
424,6.83244870742783e-05,1.0,0.5835432410240173,0.8632034632034633
425,7.334716065088287e-05,1.0,0.5857588648796082,0.8632034632034633
426,8.004566188901663e-05,1.0,0.5880115628242493,0.8632034632034633
427,8.914877253118902e-05,1.0,0.5887058973312378,0.8632034632034633
428,8.73973112902604e-05,1.0,0.5857866406440735,0.8632034632034633
429,7.938273483887315e-05,1.0,0.585482656955719,0.8632034632034633
430,7.201851258287206e-05,1.0,0.586848258972168,0.8737476808905379
431,5.103914372739382e-05,1.0,0.5886666178703308,0.8737476808905379
432,9.53322887653485e-05,1.0,0.5905109643936157,0.8733766233766234
433,7.9913399531506e-05,1.0,0.5949085354804993,0.8733766233766234
434,6.644787936238572e-05,1.0,0.590282142162323,0.8733766233766234
435,8.226915815612301e-05,1.0,0.5863153338432312,0.8733766233766234
436,9.370117186335847e-05,1.0,0.5844976305961609,0.8737476808905379
437,7.42188494768925e-05,1.0,0.5869024991989136,0.8737476808905379
438,6.254913023440167e-05,1.0,0.58944171667099,0.8632034632034633
439,7.927940168883651e-05,1.0,0.5963690876960754,0.8733766233766234
440,8.051250188145787e-05,1.0,0.6040757894515991,0.8733766233766234
441,6.0606929764617234e-05,1.0,0.5937050580978394,0.8733766233766234
442,8.506322774337605e-05,1.0,0.582637369632721,0.8632034632034633
443,9.578555909683928e-05,1.0,0.5823907852172852,0.8632034632034633
444,6.892529927426949e-05,1.0,0.5887909531593323,0.8632034632034633
445,6.558703171322122e-05,1.0,0.5912140607833862,0.8632034632034633
446,8.471571345580742e-05,1.0,0.5947348475456238,0.8733766233766234
447,7.10321546648629e-05,1.0,0.5930930972099304,0.8733766233766234
448,7.054761954350397e-05,1.0,0.5932130217552185,0.8733766233766234
449,5.95344536122866e-05,1.0,0.5879353880882263,0.8737476808905379
450,6.132088310550898e-05,1.0,0.5870919227600098,0.8737476808905379
451,7.53032072680071e-05,1.0,0.5874742269515991,0.8632034632034633
452,7.830608956282958e-05,1.0,0.5894907116889954,0.8632034632034633
453,6.511448009405285e-05,1.0,0.5929794907569885,0.8733766233766234
454,6.529813254019246e-05,1.0,0.5927472710609436,0.8632034632034633
455,6.035963451722637e-05,1.0,0.5916246175765991,0.8632034632034633
456,8.017052459763363e-05,1.0,0.5946515798568726,0.8733766233766234
457,5.7213183026760817e-05,1.0,0.5956196188926697,0.8733766233766234
458,6.191735883476213e-05,1.0,0.5911490321159363,0.8733766233766234
459,5.445320493890904e-05,1.0,0.5922927260398865,0.8733766233766234
460,6.692647730233148e-05,1.0,0.5927220582962036,0.8733766233766234
461,9.188690455630422e-05,1.0,0.5968011021614075,0.8733766233766234
462,7.4660791142378e-05,1.0,0.5998257994651794,0.8733766233766234
463,6.151102570584044e-05,1.0,0.5881757736206055,0.8632034632034633
464,8.588840864831582e-05,1.0,0.5879236459732056,0.8632034632034633
465,5.904344288865104e-05,1.0,0.5943673253059387,0.8733766233766234
466,7.335287227761e-05,1.0,0.583063542842865,0.8632034632034633
467,5.5732019973220304e-05,1.0,0.5813655853271484,0.8632034632034633
468,7.160230597946793e-05,1.0,0.5836642384529114,0.8632034632034633
469,6.0286198277026415e-05,1.0,0.580846905708313,0.8632034632034633
470,6.438341370085254e-05,1.0,0.5825837850570679,0.8632034632034633
471,6.343003042275086e-05,1.0,0.5863170623779297,0.8632034632034633
472,5.145667455508374e-05,1.0,0.5875977277755737,0.8632034632034633
473,6.060825762688182e-05,1.0,0.590325653553009,0.8632034632034633
474,5.256201620795764e-05,1.0,0.5941111445426941,0.8632034632034633
475,5.201083331485279e-05,1.0,0.598210334777832,0.8632034632034633
476,5.0749978981912136e-05,1.0,0.5998428463935852,0.8733766233766234
477,6.427703920053318e-05,1.0,0.5990707278251648,0.8733766233766234
478,5.3772331739310175e-05,1.0,0.5920017957687378,0.8632034632034633
479,7.038586772978306e-05,1.0,0.5918658971786499,0.8632034632034633
480,5.412608152255416e-05,1.0,0.5952075719833374,0.8632034632034633
481,5.733983562095091e-05,1.0,0.600972056388855,0.8733766233766234
482,5.563558079302311e-05,1.0,0.5986940264701843,0.8733766233766234
483,5.978507033432834e-05,1.0,0.5964604020118713,0.8632034632034633
484,5.3667386964662e-05,1.0,0.5973724126815796,0.8737476808905379
485,4.7222652938216925e-05,1.0,0.5991347432136536,0.8632034632034633
486,7.007351086940616e-05,1.0,0.6048397421836853,0.8733766233766234
487,5.4976488172542304e-05,1.0,0.6119551062583923,0.8733766233766234
488,6.06139401497785e-05,1.0,0.5987764000892639,0.8632034632034633
489,5.135706305736676e-05,1.0,0.5961456298828125,0.8632034632034633
490,5.2170540584484115e-05,1.0,0.5979885458946228,0.8632034632034633
491,5.262150807539001e-05,1.0,0.6004762649536133,0.8632034632034633
492,5.707731543225236e-05,1.0,0.6066093444824219,0.8733766233766234
493,4.0494633140042424e-05,1.0,0.6020239591598511,0.8733766233766234
494,4.7813115088501945e-05,1.0,0.5950342416763306,0.8632034632034633
495,5.41487752343528e-05,1.0,0.5957930684089661,0.8632034632034633
496,5.9163015976082534e-05,1.0,0.5971099138259888,0.8632034632034633
497,5.427253927337006e-05,1.0,0.5988901853561401,0.8632034632034633
498,5.57747516722884e-05,1.0,0.6003464460372925,0.8632034632034633
499,4.744288889924064e-05,1.0,0.5997264981269836,0.8632034632034633
500,4.231634738971479e-05,1.0,0.6025137901306152,0.8632034632034633
501,4.8204346967395395e-05,1.0,0.5991406440734863,0.8632034632034633
502,5.102277282276191e-05,1.0,0.5961254239082336,0.8632034632034633
503,5.117879481986165e-05,1.0,0.5987696051597595,0.8632034632034633
504,4.334215191192925e-05,1.0,0.6005545258522034,0.8733766233766234
505,4.267015174264088e-05,1.0,0.5961738228797913,0.8632034632034633
506,3.974532228312455e-05,1.0,0.5919828414916992,0.8632034632034633
507,5.2113849960733205e-05,1.0,0.5928006172180176,0.8632034632034633
508,5.737115498050116e-05,1.0,0.5948985815048218,0.8632034632034633
509,5.110032725497149e-05,1.0,0.6020446419715881,0.8632034632034633
510,5.974297528155148e-05,1.0,0.6160251498222351,0.8733766233766234
511,7.743428432149813e-05,1.0,0.6248658299446106,0.868274582560297
512,5.118009357829578e-05,1.0,0.609769344329834,0.8733766233766234
513,4.917243495583534e-05,1.0,0.5903294682502747,0.8632034632034633
514,4.24205391027499e-05,1.0,0.5940130352973938,0.8737476808905379
515,4.2158793803537264e-05,1.0,0.600344717502594,0.8632034632034633
516,5.6676461099414155e-05,1.0,0.6064808964729309,0.8632034632034633
517,4.7966637794161215e-05,1.0,0.6115278005599976,0.8632034632034633
518,4.017018363811076e-05,1.0,0.6123770475387573,0.8733766233766234
519,5.921664342167787e-05,1.0,0.6018267273902893,0.8737476808905379
520,5.6520737416576594e-05,1.0,0.601535439491272,0.8737476808905379
521,4.61993258795701e-05,1.0,0.6059450507164001,0.8737476808905379
522,6.008303535054438e-05,1.0,0.6126752495765686,0.8632034632034633
523,4.383683699415997e-05,1.0,0.6185094118118286,0.8733766233766234
524,4.472537693800405e-05,1.0,0.6031895875930786,0.8632034632034633
525,5.072998465038836e-05,1.0,0.6003636717796326,0.8632034632034633
526,4.119559525861405e-05,1.0,0.6037597060203552,0.8632034632034633
527,4.805045682587661e-05,1.0,0.6020556688308716,0.8632034632034633
528,4.365717541077174e-05,1.0,0.5976338386535645,0.8632034632034633
529,4.790647290064953e-05,1.0,0.5999418497085571,0.8632034632034633
530,5.162918023415841e-05,1.0,0.6006718873977661,0.8632034632034633
531,3.2720181479817256e-05,1.0,0.6009500622749329,0.8632034632034633
532,6.102635961724445e-05,1.0,0.5981391072273254,0.8632034632034633
533,5.446651630336419e-05,1.0,0.60147625207901,0.8632034632034633
534,5.491927731782198e-05,1.0,0.6043780446052551,0.8733766233766234
535,5.776969555881806e-05,1.0,0.6009707450866699,0.8632034632034633
536,4.8306395910913125e-05,1.0,0.6000588536262512,0.8632034632034633
537,4.792052277480252e-05,1.0,0.6052599549293518,0.8632034632034633
538,4.169175372226164e-05,1.0,0.6064464449882507,0.8632034632034633
539,4.521981463767588e-05,1.0,0.6076790690422058,0.8733766233766234
540,4.779914888786152e-05,1.0,0.6064578890800476,0.8632034632034633
541,3.800439299084246e-05,1.0,0.5996934175491333,0.8632034632034633
542,4.1305640479549766e-05,1.0,0.5946827530860901,0.8632034632034633
543,4.1088998841587454e-05,1.0,0.5963733792304993,0.8632034632034633
544,4.059994898852892e-05,1.0,0.6014941930770874,0.8632034632034633
545,3.8806341763120145e-05,1.0,0.6057089567184448,0.8632034632034633
546,3.858952550217509e-05,1.0,0.6070613861083984,0.8632034632034633
547,5.266082371235825e-05,1.0,0.6049965023994446,0.8632034632034633
548,3.56424025085289e-05,1.0,0.6021947860717773,0.8632034632034633
549,4.690884816227481e-05,1.0,0.6033874154090881,0.8632034632034633
550,3.527517765178345e-05,1.0,0.6022707223892212,0.8632034632034633
551,3.298977026133798e-05,1.0,0.6004517674446106,0.8632034632034633
552,3.314143395982683e-05,1.0,0.5998945832252502,0.8632034632034633
553,3.4743967262329534e-05,1.0,0.5996108055114746,0.8632034632034633
554,3.5691358789335936e-05,1.0,0.6017151474952698,0.8632034632034633
555,3.673160244943574e-05,1.0,0.6058236956596375,0.8632034632034633
556,3.6155593988951296e-05,1.0,0.6075681447982788,0.8632034632034633
557,3.214251410099678e-05,1.0,0.6095529794692993,0.8632034632034633
558,3.456000195001252e-05,1.0,0.6110693216323853,0.8733766233766234
559,3.983665010309778e-05,1.0,0.6107024550437927,0.8733766233766234
560,3.726674913195893e-05,1.0,0.6079760789871216,0.8632034632034633
561,2.9816799724358134e-05,1.0,0.6077853441238403,0.8632034632034633
562,3.6153604014543816e-05,1.0,0.6074303984642029,0.8632034632034633
563,4.1296483686892316e-05,1.0,0.6041342616081238,0.8632034632034633
564,4.5222910557640716e-05,1.0,0.6065594553947449,0.8632034632034633
565,3.6438625102164224e-05,1.0,0.6159467101097107,0.8733766233766234
566,4.524931500782259e-05,1.0,0.6084494590759277,0.8632034632034633
567,3.498173464322463e-05,1.0,0.6158058047294617,0.8632034632034633
568,4.007507232017815e-05,1.0,0.6225336790084839,0.8632034632034633
569,3.385810487088747e-05,1.0,0.6250961422920227,0.8733766233766234
570,4.933912350679748e-05,1.0,0.6216444373130798,0.8733766233766234
571,3.6783483665203676e-05,1.0,0.6181745529174805,0.8733766233766234
572,3.467981150606647e-05,1.0,0.6045493483543396,0.8632034632034633
573,3.011488661286421e-05,1.0,0.6021284461021423,0.8737476808905379
574,3.578310861485079e-05,1.0,0.6011014580726624,0.8737476808905379
575,3.91004177799914e-05,1.0,0.605481743812561,0.8632034632034633
576,3.0247860195231624e-05,1.0,0.6122491955757141,0.8632034632034633
577,3.5663277230923995e-05,1.0,0.6098275184631348,0.8632034632034633
578,3.958025263273157e-05,1.0,0.6089499592781067,0.8733766233766234
579,3.777226811507717e-05,1.0,0.6018264889717102,0.8632034632034633
580,4.127162537770346e-05,1.0,0.604037880897522,0.8632034632034633
581,3.4336586395511404e-05,1.0,0.6094492077827454,0.8632034632034633
582,3.564692087820731e-05,1.0,0.6011137366294861,0.8632034632034633
583,3.257772550568916e-05,1.0,0.5999271273612976,0.8737476808905379
584,2.958066761493683e-05,1.0,0.6039899587631226,0.8737476808905379
585,3.3643835195107386e-05,1.0,0.6140533685684204,0.8632034632034633
586,3.235847907490097e-05,1.0,0.6146197319030762,0.8632034632034633
587,3.125104194623418e-05,1.0,0.610444962978363,0.8632034632034633
588,3.027642742381431e-05,1.0,0.6141161322593689,0.8632034632034633
589,3.915823981515132e-05,1.0,0.6164026260375977,0.8632034632034633
590,3.1263083656085655e-05,1.0,0.6148929595947266,0.8632034632034633
591,3.207648842362687e-05,1.0,0.6075034141540527,0.8632034632034633
592,3.6306777474237606e-05,1.0,0.6035907864570618,0.8632034632034633
593,2.4668011974426918e-05,1.0,0.6046923398971558,0.8632034632034633
594,2.781178591249045e-05,1.0,0.610714316368103,0.8632034632034633
595,2.684249557205476e-05,1.0,0.6143346428871155,0.8733766233766234
596,3.574667061911896e-05,1.0,0.6127471327781677,0.8632034632034633
597,4.090833317604847e-05,1.0,0.6092347502708435,0.8632034632034633
598,2.667247645149473e-05,1.0,0.608473002910614,0.8632034632034633
599,3.733462654054165e-05,1.0,0.605895459651947,0.8632034632034633
600,3.5728160582948476e-05,1.0,0.6105293035507202,0.8632034632034633
601,3.2943607948254794e-05,1.0,0.6161774396896362,0.8632034632034633
602,2.7953374228673056e-05,1.0,0.6140284538269043,0.8632034632034633
603,3.5487802961142734e-05,1.0,0.6169646978378296,0.8632034632034633
604,3.1950690754456446e-05,1.0,0.6195893287658691,0.8632034632034633
605,2.9613456717925146e-05,1.0,0.6143765449523926,0.8632034632034633
606,2.872382538043894e-05,1.0,0.6116712689399719,0.8632034632034633
607,2.695181501621846e-05,1.0,0.6154338717460632,0.8632034632034633
608,3.4847314964281395e-05,1.0,0.6173295974731445,0.8632034632034633
609,2.7390417017159052e-05,1.0,0.6168054938316345,0.8632034632034633
610,2.7526426492840983e-05,1.0,0.6206449270248413,0.8632034632034633
611,3.109912358922884e-05,1.0,0.6229390501976013,0.8632034632034633
612,2.8123138690716587e-05,1.0,0.6254256367683411,0.8632034632034633
613,2.8748201657435857e-05,1.0,0.6240742802619934,0.8632034632034633
614,2.752075670287013e-05,1.0,0.6264516711235046,0.8632034632034633
615,3.087968798354268e-05,1.0,0.6222504377365112,0.8632034632034633
616,2.229675192211289e-05,1.0,0.6194901466369629,0.8632034632034633
617,2.9090979296597652e-05,1.0,0.6204692125320435,0.8632034632034633
618,3.5699667932931334e-05,1.0,0.6116788983345032,0.8632034632034633
619,3.026156991836615e-05,1.0,0.6094385385513306,0.8737476808905379
620,3.4613072784850374e-05,1.0,0.6133004426956177,0.8632034632034633
621,2.9018659915891476e-05,1.0,0.6248299479484558,0.8733766233766234
622,2.7405285436543636e-05,1.0,0.6185267567634583,0.8632034632034633
623,2.2549971617991105e-05,1.0,0.6142768263816833,0.8632034632034633
624,3.042758362425957e-05,1.0,0.614303708076477,0.8632034632034633
625,3.1906696676742285e-05,1.0,0.6187742352485657,0.8632034632034633
626,2.7703095838660374e-05,1.0,0.6203362345695496,0.8632034632034633
627,2.9153818104532547e-05,1.0,0.6158461570739746,0.8632034632034633
628,2.5816294510150328e-05,1.0,0.6179286241531372,0.8632034632034633
629,2.344722452107817e-05,1.0,0.6186617612838745,0.8632034632034633
630,2.767204750853125e-05,1.0,0.61628258228302,0.8632034632034633
631,2.4306014893227257e-05,1.0,0.6169911026954651,0.8632034632034633
632,2.5374527467647567e-05,1.0,0.6217151880264282,0.8632034632034633
633,2.8731928978231736e-05,1.0,0.621878981590271,0.8632034632034633
634,2.925899207184557e-05,1.0,0.6181660890579224,0.8632034632034633
635,2.291278724442236e-05,1.0,0.6121420860290527,0.8632034632034633
636,3.346954326843843e-05,1.0,0.6143960356712341,0.8632034632034633
637,3.053302498301491e-05,1.0,0.6188455820083618,0.8632034632034633
638,3.0257464459282346e-05,1.0,0.6223737001419067,0.8632034632034633
639,2.1722034944104962e-05,1.0,0.6180281043052673,0.8632034632034633
640,3.091286635026336e-05,1.0,0.6140777468681335,0.8632034632034633
641,2.1228197510936297e-05,1.0,0.6148927807807922,0.8632034632034633
642,2.2924470613361336e-05,1.0,0.6149514317512512,0.8632034632034633
643,2.8777985789929517e-05,1.0,0.6171727776527405,0.8632034632034633
644,2.8162334274384193e-05,1.0,0.6221317648887634,0.8632034632034633
645,2.5155834009638056e-05,1.0,0.6185808777809143,0.8632034632034633
646,2.0822686565225013e-05,1.0,0.617703914642334,0.8632034632034633
647,2.568401578173507e-05,1.0,0.6171640753746033,0.8632034632034633
648,2.8627760912058875e-05,1.0,0.6249004006385803,0.8632034632034633
649,2.319783925486263e-05,1.0,0.6361428499221802,0.8733766233766234
650,2.2996171537670307e-05,1.0,0.6255689263343811,0.8632034632034633
651,2.293311081302818e-05,1.0,0.6211538910865784,0.8632034632034633
652,2.2426280338549986e-05,1.0,0.6207646131515503,0.8632034632034633
653,2.716477138164919e-05,1.0,0.6237167119979858,0.8632034632034633
654,2.050422153843101e-05,1.0,0.6246451735496521,0.8632034632034633
655,2.4605014914413914e-05,1.0,0.6208367943763733,0.8632034632034633
656,2.4240916900453158e-05,1.0,0.6225022673606873,0.8632034632034633
657,2.2298880139715038e-05,1.0,0.6201502084732056,0.8632034632034633
658,3.01052368740784e-05,1.0,0.6198062300682068,0.8632034632034633
659,2.1994925191393122e-05,1.0,0.6251558065414429,0.8632034632034633
660,2.5666819055913948e-05,1.0,0.622803807258606,0.8632034632034633
661,2.535439853090793e-05,1.0,0.6245511174201965,0.8632034632034633
662,2.1163052224437706e-05,1.0,0.626715362071991,0.8632034632034633
663,2.1789075617562048e-05,1.0,0.6256394982337952,0.8632034632034633
664,2.5548952180542983e-05,1.0,0.6329589486122131,0.8733766233766234
665,2.0042451069457456e-05,1.0,0.6291216015815735,0.8733766233766234
666,2.9009081117692403e-05,1.0,0.619918704032898,0.8632034632034633
667,3.0514160243910737e-05,1.0,0.6196985840797424,0.8632034632034633
668,2.4501739972038195e-05,1.0,0.6243577003479004,0.8632034632034633
669,2.2755095415050164e-05,1.0,0.6314870715141296,0.8632034632034633
670,2.440689604554791e-05,1.0,0.6258966326713562,0.8632034632034633
671,2.1036585167166777e-05,1.0,0.6231188774108887,0.8632034632034633
672,1.8500175428926013e-05,1.0,0.6261515617370605,0.8632034632034633
673,2.1344869310269132e-05,1.0,0.6273579001426697,0.8632034632034633
674,2.0921395844197832e-05,1.0,0.6289913058280945,0.8632034632034633
675,2.3352415155386552e-05,1.0,0.6230536103248596,0.8632034632034633
676,2.0775702068931423e-05,1.0,0.6228986978530884,0.8737476808905379
677,2.5432565962546505e-05,1.0,0.6266199946403503,0.8632034632034633
678,2.394096736679785e-05,1.0,0.6344958543777466,0.8733766233766234
679,2.2307352992356755e-05,1.0,0.6337385177612305,0.8733766233766234
680,2.032968586718198e-05,1.0,0.6273843050003052,0.8632034632034633
681,2.1271704099490307e-05,1.0,0.6263188123703003,0.8632034632034633
682,2.0404420865816064e-05,1.0,0.6289997100830078,0.8632034632034633
683,2.264447721245233e-05,1.0,0.6276355385780334,0.8632034632034633
684,2.2356234694598243e-05,1.0,0.6277392506599426,0.8632034632034633
685,1.6005542420316488e-05,1.0,0.6275152564048767,0.8632034632034633
686,2.323534499737434e-05,1.0,0.6273980736732483,0.8632034632034633
687,1.9804183466476388e-05,1.0,0.6300660371780396,0.8632034632034633
688,2.22021099034464e-05,1.0,0.6296407580375671,0.8632034632034633
689,1.802026054065209e-05,1.0,0.6286581158638,0.8632034632034633
690,2.5277915483457036e-05,1.0,0.6286107301712036,0.8632034632034633
691,2.1014237063354813e-05,1.0,0.6302735209465027,0.8632034632034633
692,1.907067962747533e-05,1.0,0.6304429173469543,0.8632034632034633
693,2.73801815637853e-05,1.0,0.6369799375534058,0.8632034632034633
694,1.805117426556535e-05,1.0,0.6426495909690857,0.8807462378890951
695,2.0142597350059077e-05,1.0,0.6197525262832642,0.8632034632034633
696,1.7973530702874996e-05,1.0,0.6189237833023071,0.8632034632034633
697,1.9875373254762962e-05,1.0,0.6228552460670471,0.8632034632034633
698,1.924848766066134e-05,1.0,0.6269240975379944,0.8632034632034633
699,1.7541397028253414e-05,1.0,0.6290931105613708,0.8632034632034633
700,1.9303897715872154e-05,1.0,0.6292786002159119,0.8632034632034633
701,1.8705712136579677e-05,1.0,0.6372597813606262,0.8733766233766234
702,1.8723849279922433e-05,1.0,0.6284131407737732,0.8632034632034633
703,1.9397482901695184e-05,1.0,0.6290030479431152,0.8632034632034633
704,1.8986638679052703e-05,1.0,0.6317024827003479,0.8632034632034633
705,1.9067390894633718e-05,1.0,0.6322183012962341,0.8632034632034633
706,1.6879333998076618e-05,1.0,0.6337026953697205,0.8632034632034633
707,1.500297639722703e-05,1.0,0.6369886994361877,0.8632034632034633
708,1.7434886103728786e-05,1.0,0.6383547186851501,0.8632034632034633
709,1.7945871150004677e-05,1.0,0.6359831094741821,0.8632034632034633
710,1.785632412065752e-05,1.0,0.6361762881278992,0.8632034632034633
711,1.9020697436644696e-05,1.0,0.634722113609314,0.8632034632034633
712,2.0624253011192195e-05,1.0,0.6375295519828796,0.8632034632034633
713,1.6400252206949517e-05,1.0,0.6330441236495972,0.8632034632034633
714,2.2164167603477836e-05,1.0,0.6292743682861328,0.8632034632034633
715,1.962291389645543e-05,1.0,0.6322687268257141,0.8632034632034633
716,1.6496200260007754e-05,1.0,0.6333128809928894,0.8632034632034633
717,1.7377438780386e-05,1.0,0.6365388631820679,0.8632034632034633
718,1.5886344044702128e-05,1.0,0.6410026550292969,0.8632034632034633
719,1.4751832168258261e-05,1.0,0.6351507902145386,0.8632034632034633
720,1.5804398572072387e-05,1.0,0.6341991424560547,0.8632034632034633
721,1.7079397366615012e-05,1.0,0.6351892352104187,0.8632034632034633
722,1.49497636812157e-05,1.0,0.6332150101661682,0.8632034632034633
723,1.613437598280143e-05,1.0,0.6323719024658203,0.8632034632034633
724,1.5917245036689565e-05,1.0,0.6308396458625793,0.8632034632034633
725,1.7813621525419876e-05,1.0,0.6280199289321899,0.8632034632034633
726,1.9247378077125177e-05,1.0,0.6344167590141296,0.8632034632034633
727,1.84172185981879e-05,1.0,0.6376491189002991,0.8632034632034633
728,1.747539317875635e-05,1.0,0.6316290497779846,0.8632034632034633
729,1.7647787899477407e-05,1.0,0.6327759623527527,0.8632034632034633
730,2.198048787249718e-05,1.0,0.6400470733642578,0.8632034632034633
731,1.5402090866700746e-05,1.0,0.6445881128311157,0.8807462378890951
732,1.7295531506533735e-05,1.0,0.628453254699707,0.8632034632034633
733,1.574790985614527e-05,1.0,0.6212202906608582,0.8632034632034633
734,1.5489396901102737e-05,1.0,0.6219900250434875,0.8632034632034633
735,1.780183993105311e-05,1.0,0.6260489225387573,0.8632034632034633
736,1.9475051885819994e-05,1.0,0.6333160996437073,0.8632034632034633
737,1.80053375515854e-05,1.0,0.6353853344917297,0.8632034632034633
738,1.8205313608632423e-05,1.0,0.6367003321647644,0.8632034632034633
739,1.3865207620256115e-05,1.0,0.6367532014846802,0.8632034632034633
740,1.6226920706685632e-05,1.0,0.6322005391120911,0.8632034632034633
741,1.736351077852305e-05,1.0,0.6360238790512085,0.8632034632034633
742,1.757857717166189e-05,1.0,0.6415261030197144,0.8632034632034633
743,1.5537201761617325e-05,1.0,0.6418008208274841,0.8632034632034633
744,1.7717024093144573e-05,1.0,0.6417973637580872,0.8632034632034633
745,1.3343739738047589e-05,1.0,0.6444115042686462,0.8632034632034633
746,1.8653483493835665e-05,1.0,0.6388530731201172,0.8632034632034633
747,1.2021809197904076e-05,1.0,0.6349802017211914,0.8632034632034633
748,1.4932777048670687e-05,1.0,0.636485755443573,0.8632034632034633
749,1.4506988918583374e-05,1.0,0.6411446928977966,0.8733766233766234
750,1.2900949514005333e-05,1.0,0.6350560188293457,0.8632034632034633
751,1.5158984751906246e-05,1.0,0.6342674493789673,0.8632034632034633
752,1.4543166798830498e-05,1.0,0.6406071782112122,0.8632034632034633
753,2.156163645850029e-05,1.0,0.6478070616722107,0.8733766233766234
754,1.7848817151389085e-05,1.0,0.6374629735946655,0.8632034632034633
755,1.966468153113965e-05,1.0,0.6340926289558411,0.8632034632034633
756,1.3753410712524783e-05,1.0,0.6362455487251282,0.8632034632034633
757,1.2955261809111107e-05,1.0,0.6389452219009399,0.8632034632034633
758,1.3090233551338315e-05,1.0,0.6340522170066833,0.8632034632034633
759,1.53667224367382e-05,1.0,0.6378464102745056,0.8737476808905379
760,1.7042146282619797e-05,1.0,0.6446528434753418,0.8632034632034633
761,1.7658339857007377e-05,1.0,0.6505957841873169,0.8733766233766234
762,1.882687138277106e-05,1.0,0.646175742149353,0.8733766233766234
763,1.4321843991638161e-05,1.0,0.639427661895752,0.8733766233766234
764,1.2660291758948006e-05,1.0,0.6272526383399963,0.8632034632034633
765,1.5739507944090292e-05,1.0,0.6272550225257874,0.8632034632034633
766,1.4664467016700655e-05,1.0,0.6308375597000122,0.8632034632034633
767,1.3966195183456875e-05,1.0,0.6369947791099548,0.8632034632034633
768,1.5825640730326995e-05,1.0,0.6392302513122559,0.8632034632034633
769,1.838835123635363e-05,1.0,0.6450834274291992,0.8632034632034633
770,1.2807305211026687e-05,1.0,0.6461123824119568,0.8632034632034633
771,1.383434846502496e-05,1.0,0.6407721638679504,0.8632034632034633
772,1.7686050341580994e-05,1.0,0.6395779848098755,0.8632034632034633
773,1.1775968232541345e-05,1.0,0.6433132290840149,0.8632034632034633
774,1.4547203136316966e-05,1.0,0.6442163586616516,0.8632034632034633
775,1.3526705515687354e-05,1.0,0.64365154504776,0.8632034632034633
776,1.7061311154975556e-05,1.0,0.6416741609573364,0.8632034632034633
777,1.2786055776814464e-05,1.0,0.6399828791618347,0.8632034632034633
778,1.2974388482689392e-05,1.0,0.6365110278129578,0.8632034632034633
779,1.2667863302340265e-05,1.0,0.6367020010948181,0.8632034632034633
780,1.506534590589581e-05,1.0,0.6442239880561829,0.8632034632034633
781,1.5110076674318407e-05,1.0,0.6453588604927063,0.8632034632034633
782,1.2484726539696567e-05,1.0,0.6409483551979065,0.8632034632034633
783,1.4932648809917737e-05,1.0,0.6447295546531677,0.8632034632034633
784,1.7574280718690716e-05,1.0,0.6483607888221741,0.8632034632034633
785,1.633321699046064e-05,1.0,0.6541457772254944,0.8632034632034633
786,1.5278432329068892e-05,1.0,0.6470960378646851,0.8632034632034633
787,1.6474876247229986e-05,1.0,0.6404337882995605,0.8632034632034633
788,1.1813216588052455e-05,1.0,0.6421586871147156,0.8632034632034633
789,1.1898378943442367e-05,1.0,0.6413178443908691,0.8632034632034633
790,1.0898946129600517e-05,1.0,0.6418812870979309,0.8632034632034633
791,1.434934438293567e-05,1.0,0.6455081105232239,0.8632034632034633
792,1.2135729775764048e-05,1.0,0.6406299471855164,0.8632034632034633
793,1.903448355733417e-05,1.0,0.6385412216186523,0.8632034632034633
794,1.4391957847692538e-05,1.0,0.6418372392654419,0.8632034632034633
795,1.411950961482944e-05,1.0,0.6417385339736938,0.8632034632034633
796,1.4443161489907652e-05,1.0,0.6457218527793884,0.8632034632034633
797,1.4151485629554372e-05,1.0,0.6406159996986389,0.8632034632034633
798,1.2828577382606454e-05,1.0,0.6437863707542419,0.8632034632034633
799,1.3552186828746926e-05,1.0,0.6514099836349487,0.8632034632034633
800,1.295951096835779e-05,1.0,0.6515986323356628,0.8632034632034633
801,1.1324681508995127e-05,1.0,0.6405073404312134,0.8632034632034633
802,1.0314588507753797e-05,1.0,0.6406012773513794,0.8632034632034633
803,1.1970715604547877e-05,1.0,0.6425098180770874,0.8632034632034633
804,1.232403883477673e-05,1.0,0.6487399935722351,0.8632034632034633
805,1.3351184861676302e-05,1.0,0.6491867303848267,0.8632034632034633
806,1.1845134395116474e-05,1.0,0.6460581421852112,0.8632034632034633
807,1.0877635759243276e-05,1.0,0.6484702825546265,0.8632034632034633
808,1.1832350537588354e-05,1.0,0.6565273404121399,0.8632034632034633
809,1.2655104910663795e-05,1.0,0.6474166512489319,0.8632034632034633
810,1.3701338502869476e-05,1.0,0.6431089639663696,0.8632034632034633
811,9.712194696476217e-06,1.0,0.6463469862937927,0.8632034632034633
812,1.268276264454471e-05,1.0,0.6481903195381165,0.8632034632034633
813,1.2130361938034184e-05,1.0,0.6473938822746277,0.8632034632034633
814,1.1308742614346556e-05,1.0,0.6478567123413086,0.8632034632034633
815,1.137046729127178e-05,1.0,0.6535115838050842,0.8632034632034633
816,1.0922346518782433e-05,1.0,0.6578012704849243,0.8632034632034633
817,1.1932426787097938e-05,1.0,0.6520330309867859,0.8632034632034633
818,1.244009763468057e-05,1.0,0.6521714329719543,0.8632034632034633
819,1.2126089131925255e-05,1.0,0.6558430790901184,0.8632034632034633
820,1.1957922652072739e-05,1.0,0.658402144908905,0.8632034632034633
821,1.1904709936061408e-05,1.0,0.6539050340652466,0.8632034632034633
822,1.2989303286303766e-05,1.0,0.6552949547767639,0.8632034632034633
823,1.4067207303014584e-05,1.0,0.6589136123657227,0.8632034632034633
824,1.1235203601245303e-05,1.0,0.6570712924003601,0.8632034632034633
825,9.988948477257509e-06,1.0,0.6490491628646851,0.8632034632034633
826,1.1732209713954944e-05,1.0,0.6445279121398926,0.8632034632034633
827,9.204539310303517e-06,1.0,0.6467399597167969,0.8632034632034633
828,1.584882011229638e-05,1.0,0.6538148522377014,0.8632034632034633
829,1.1286339031357784e-05,1.0,0.6632959246635437,0.8807462378890951
830,1.0887213647947647e-05,1.0,0.6474746465682983,0.8632034632034633
831,1.2054811122652609e-05,1.0,0.6446524858474731,0.8632034632034633
832,1.1960099982388783e-05,1.0,0.6463437676429749,0.8632034632034633
833,1.1468362572486512e-05,1.0,0.6526369452476501,0.8632034632034633
834,8.601005902164616e-06,1.0,0.6534853577613831,0.8632034632034633
835,2.1113095499458723e-05,1.0,0.6651000380516052,0.8807462378890951
836,1.2155843251093756e-05,1.0,0.7018879652023315,0.8767161410018554
837,1.4814477253821678e-05,1.0,0.6294137239456177,0.8856524427953
838,1.4398338862520177e-05,1.0,0.6536291241645813,0.8722737579880437
839,1.1378940143913496e-05,1.0,0.6430519223213196,0.8737476808905379
840,1.169816005130997e-05,1.0,0.6678246259689331,0.8807462378890951
841,9.913391295413021e-06,1.0,0.6711382269859314,0.8733766233766234
842,1.1919658390979748e-05,1.0,0.6586340665817261,0.8632034632034633
843,1.21899283840321e-05,1.0,0.6546168327331543,0.8632034632034633
844,9.240649887942709e-06,1.0,0.6599311828613281,0.8632034632034633
845,1.2237849659868516e-05,1.0,0.6709668040275574,0.868274582560297
846,1.1188433745701332e-05,1.0,0.6683971285820007,0.8733766233766234
847,1.1896166142832953e-05,1.0,0.6591519713401794,0.8632034632034633
848,1.0557286259427201e-05,1.0,0.6560354232788086,0.8632034632034633
849,1.114998394768918e-05,1.0,0.6484774947166443,0.8632034632034633
850,7.527138222940266e-06,1.0,0.6495367884635925,0.8632034632034633
851,1.0430460861243773e-05,1.0,0.6530160307884216,0.8632034632034633
852,1.0835063221747987e-05,1.0,0.6630218625068665,0.8733766233766234
853,1.3465840311255306e-05,1.0,0.6572269201278687,0.8733766233766234
854,1.0583898074401077e-05,1.0,0.647120475769043,0.8632034632034633
855,7.581421414215583e-06,1.0,0.652158260345459,0.8632034632034633
856,8.858622095431201e-06,1.0,0.6565418839454651,0.8632034632034633
857,8.210441592382267e-06,1.0,0.664618194103241,0.8632034632034633
858,1.1025528692698572e-05,1.0,0.6643352508544922,0.8632034632034633
859,9.22475283005042e-06,1.0,0.6627823710441589,0.8632034632034633
860,1.2005813005089294e-05,1.0,0.6575237512588501,0.8632034632034633
861,1.1826973604911473e-05,1.0,0.6635042428970337,0.8632034632034633
862,8.049694770306814e-06,1.0,0.664248526096344,0.8632034632034633
863,8.37220977700781e-06,1.0,0.6565488576889038,0.8632034632034633
864,8.798984708846547e-06,1.0,0.6520211100578308,0.8632034632034633
865,7.81765174906468e-06,1.0,0.6542430520057678,0.8632034632034633
866,1.16599067041534e-05,1.0,0.6534534692764282,0.8632034632034633
867,6.535159172926797e-06,1.0,0.654546856880188,0.8632034632034633
868,8.053985766309779e-06,1.0,0.6576712727546692,0.8632034632034633
869,1.1283050298516173e-05,1.0,0.6704578399658203,0.8733766233766234
870,1.1169264325872064e-05,1.0,0.6751657128334045,0.8807462378890951
871,9.980331924452912e-06,1.0,0.6581851840019226,0.8632034632034633
872,1.1562980034796055e-05,1.0,0.6508786082267761,0.8737476808905379
873,1.0113367352460045e-05,1.0,0.6568831205368042,0.8632034632034633
874,1.1558275218703784e-05,1.0,0.6709666848182678,0.8632034632034633
875,1.0266703611705452e-05,1.0,0.6628301739692688,0.8632034632034633
876,1.1586306754907127e-05,1.0,0.6524060964584351,0.8632034632034633
877,1.1550300769158639e-05,1.0,0.653317928314209,0.8737476808905379
878,8.410515874857083e-06,1.0,0.6598647832870483,0.8632034632034633
879,7.946472578623798e-06,1.0,0.6663856506347656,0.8632034632034633
880,7.074786026350921e-06,1.0,0.6647437214851379,0.8632034632034633
881,1.0154930350836366e-05,1.0,0.6560859084129333,0.8632034632034633
882,8.899053682398517e-06,1.0,0.6582503318786621,0.8632034632034633
883,9.325834980700165e-06,1.0,0.6582370400428772,0.8632034632034633
884,7.5345828918216284e-06,1.0,0.6551730036735535,0.8632034632034633
885,9.224741006619297e-06,1.0,0.6576173901557922,0.8632034632034633
886,1.0368902621848974e-05,1.0,0.661037802696228,0.8632034632034633
887,8.046516086324118e-06,1.0,0.655269980430603,0.8632034632034633
888,8.154018360073678e-06,1.0,0.6532726287841797,0.8632034632034633
889,8.155096111295279e-06,1.0,0.6575621366500854,0.8632034632034633
890,7.213140179374022e-06,1.0,0.6598650813102722,0.8632034632034633
891,8.098640137177426e-06,1.0,0.6598701477050781,0.8632034632034633
892,8.051833901845384e-06,1.0,0.6605304479598999,0.8632034632034633
893,8.379635801247787e-06,1.0,0.66313636302948,0.8632034632034633
894,9.070375199371483e-06,1.0,0.67034512758255,0.8632034632034633
895,7.894305781519506e-06,1.0,0.6740620732307434,0.8632034632034633
896,6.963029591133818e-06,1.0,0.6608428359031677,0.8632034632034633
897,7.405777523672441e-06,1.0,0.6575731039047241,0.8632034632034633
898,8.723467544768937e-06,1.0,0.6608788371086121,0.8632034632034633
899,5.921017873333767e-06,1.0,0.6691496968269348,0.8632034632034633
900,8.148682354658376e-06,1.0,0.6672905087471008,0.8632034632034633
901,8.092284588201437e-06,1.0,0.6668801307678223,0.8632034632034633
902,8.768148290982936e-06,1.0,0.6697501540184021,0.8632034632034633
903,8.80109473655466e-06,1.0,0.6643874049186707,0.8632034632034633
904,8.245566277764738e-06,1.0,0.6648874878883362,0.8632034632034633
905,6.875737653899705e-06,1.0,0.6667524576187134,0.8632034632034633
906,6.603268502658466e-06,1.0,0.6672195792198181,0.8632034632034633
907,8.158170203387272e-06,1.0,0.6667117476463318,0.8632034632034633
908,7.870885383454151e-06,1.0,0.6700453758239746,0.8632034632034633
909,6.4946348174999e-06,1.0,0.6702582240104675,0.8632034632034633
910,8.187011189875193e-06,1.0,0.6694799661636353,0.8632034632034633
911,7.318524239963153e-06,1.0,0.6676264405250549,0.8632034632034633
912,8.502031050738879e-06,1.0,0.6629472374916077,0.8632034632034633
913,8.76495505508501e-06,1.0,0.6605216860771179,0.8632034632034633
914,6.772498181817355e-06,1.0,0.6670472025871277,0.8632034632034633
915,8.297698514070362e-06,1.0,0.6625748872756958,0.8632034632034633
916,8.563777555536944e-06,1.0,0.6595813632011414,0.8632034632034633
917,7.553726845799247e-06,1.0,0.6642568707466125,0.8632034632034633
918,6.236081844690489e-06,1.0,0.6713813543319702,0.8632034632034633
919,7.22911863704212e-06,1.0,0.662558376789093,0.8632034632034633
920,1.0141899110749364e-05,1.0,0.6657914519309998,0.8632034632034633
921,7.500495030399179e-06,1.0,0.6639100909233093,0.8632034632034633
922,9.710078302305192e-06,1.0,0.6659017205238342,0.8632034632034633
923,8.145476385834627e-06,1.0,0.6681737899780273,0.8632034632034633
924,8.143369086610619e-06,1.0,0.6635168194770813,0.8632034632034633
925,8.088031790975947e-06,1.0,0.6652552485466003,0.8632034632034633
926,7.440856734319823e-06,1.0,0.6635614633560181,0.8632034632034633
927,6.6894963310915045e-06,1.0,0.662933349609375,0.8632034632034633
928,7.64526612329064e-06,1.0,0.6696476936340332,0.8632034632034633
929,7.4058034442714415e-06,1.0,0.6782885789871216,0.8733766233766234
930,1.0591264071990736e-05,1.0,0.6732297539710999,0.8632034632034633
931,9.469452379562426e-06,1.0,0.6628854870796204,0.8632034632034633
932,8.00394900579704e-06,1.0,0.6576053500175476,0.8632034632034633
933,8.6585041572107e-06,1.0,0.6594766974449158,0.8632034632034633
934,6.0742954701709095e-06,1.0,0.6650975942611694,0.8632034632034633
935,5.169600171939237e-06,1.0,0.6743546724319458,0.8632034632034633
936,7.097136858646991e-06,1.0,0.670560359954834,0.8632034632034633
937,6.904475412738975e-06,1.0,0.6692986488342285,0.8632034632034633
938,7.879388249421027e-06,1.0,0.67597496509552,0.8632034632034633
939,7.43449436413357e-06,1.0,0.6767369508743286,0.8632034632034633
940,6.941678293514997e-06,1.0,0.6670122742652893,0.8632034632034633
941,5.4644337978970725e-06,1.0,0.6696228384971619,0.8632034632034633
942,6.413821665773867e-06,1.0,0.6728704571723938,0.8632034632034633
943,7.4365966611367185e-06,1.0,0.6834192872047424,0.8632034632034633
944,6.877872692712117e-06,1.0,0.6822163462638855,0.8733766233766234
945,6.988563654886093e-06,1.0,0.6689086556434631,0.8632034632034633
946,8.402023013331927e-06,1.0,0.6726258993148804,0.8632034632034633
947,6.925759862497216e-06,1.0,0.6739717721939087,0.8632034632034633
948,7.0215414780250285e-06,1.0,0.6762689352035522,0.8632034632034633
949,7.072632342897123e-06,1.0,0.6748159527778625,0.8632034632034633
950,8.076271114987321e-06,1.0,0.6720309853553772,0.8632034632034633
951,5.220681032369612e-06,1.0,0.6723596453666687,0.8632034632034633
952,6.406383363355417e-06,1.0,0.6711478233337402,0.8632034632034633
953,5.9806234276038595e-06,1.0,0.672673225402832,0.8632034632034633
954,7.244005246320739e-06,1.0,0.6706450581550598,0.8632034632034633
955,8.038014129851945e-06,1.0,0.6759839653968811,0.8632034632034633
956,8.125244676193688e-06,1.0,0.6762872338294983,0.8632034632034633
957,7.6208052632864565e-06,1.0,0.6731241345405579,0.8632034632034633
958,5.57404291612329e-06,1.0,0.6749170422554016,0.8632034632034633
959,5.9093367781315465e-06,1.0,0.6759223937988281,0.8632034632034633
960,6.4734258558019064e-06,1.0,0.6744837164878845,0.8632034632034633
961,5.4559068303206e-06,1.0,0.6778073906898499,0.8632034632034633
962,4.957778401148971e-06,1.0,0.673183023929596,0.8632034632034633
963,7.392995485133724e-06,1.0,0.6753110289573669,0.8632034632034633
964,5.3335038501245435e-06,1.0,0.6785143613815308,0.8632034632034633
965,6.082816071284469e-06,1.0,0.6783946752548218,0.8632034632034633
966,6.88309137331089e-06,1.0,0.6829203367233276,0.8632034632034633
967,6.156242307042703e-06,1.0,0.6769128441810608,0.8632034632034633
968,7.072650078043807e-06,1.0,0.6682524085044861,0.8632034632034633
969,6.050874162610853e-06,1.0,0.6696052551269531,0.8632034632034633
970,5.934852651989786e-06,1.0,0.6709508299827576,0.8632034632034633
971,6.617076905968133e-06,1.0,0.6704136729240417,0.8632034632034633
972,7.396125965897227e-06,1.0,0.6699457168579102,0.8632034632034633
973,7.043897767289309e-06,1.0,0.6717333793640137,0.8632034632034633
974,5.971008249616716e-06,1.0,0.6742359399795532,0.8632034632034633
975,6.5383560468035284e-06,1.0,0.6669541001319885,0.8632034632034633
976,6.692637725791428e-06,1.0,0.6640396118164062,0.8632034632034633
977,8.169935426849406e-06,1.0,0.671831488609314,0.8632034632034633
978,5.462284661916783e-06,1.0,0.7052544951438904,0.8756441970727684
979,7.299368462554412e-06,1.0,0.6754795908927917,0.8632034632034633
980,5.706012871087296e-06,1.0,0.6728050112724304,0.8632034632034633
981,5.681511083821533e-06,1.0,0.6739324331283569,0.8632034632034633
982,4.921602339891251e-06,1.0,0.676145613193512,0.8632034632034633
983,5.219610557105625e-06,1.0,0.6804909110069275,0.8632034632034633
984,6.186041900946293e-06,1.0,0.682421863079071,0.8632034632034633
985,5.840130597789539e-06,1.0,0.683133602142334,0.8632034632034633
986,6.1988130255485885e-06,1.0,0.6784714460372925,0.8632034632034633
987,6.393593594111735e-06,1.0,0.6749691963195801,0.8632034632034633
988,5.406954642239725e-06,1.0,0.6758041381835938,0.8632034632034633
989,4.8949655138130765e-06,1.0,0.6718891263008118,0.8632034632034633
990,5.334539764589863e-06,1.0,0.6763902902603149,0.8632034632034633
991,6.065766683605034e-06,1.0,0.6809905767440796,0.8632034632034633
992,4.055221779708518e-06,1.0,0.6817193627357483,0.8632034632034633
993,5.850709840160562e-06,1.0,0.6764739155769348,0.8632034632034633
994,5.829487690789392e-06,1.0,0.6833997964859009,0.8632034632034633
995,6.826787739555584e-06,1.0,0.6930962204933167,0.8632034632034633
996,4.091411483386764e-06,1.0,0.6927111744880676,0.8632034632034633
997,6.31907914794283e-06,1.0,0.68635493516922,0.8632034632034633
998,7.023661510174861e-06,1.0,0.6834964156150818,0.8632034632034633
999,6.833138741058065e-06,1.0,0.6840242743492126,0.8632034632034633
