,loss,recall,val_loss,val_recall
0,0.6924267411231995,0.6000000238418579,0.6877298951148987,0.6399999856948853
1,0.6869121789932251,0.6899999976158142,0.6823858022689819,0.6399999856948853
2,0.6802101135253906,0.6899999976158142,0.6764139533042908,0.6399999856948853
3,0.6731907725334167,0.6899999976158142,0.6694751977920532,0.6399999856948853
4,0.6647807359695435,0.6899999976158142,0.6612791419029236,0.6399999856948853
5,0.6563247442245483,0.6899999976158142,0.6515438556671143,0.6399999856948853
6,0.645352303981781,0.6899999976158142,0.6400322914123535,0.6499999761581421
7,0.6318337321281433,0.6899999976158142,0.6265544295310974,0.6499999761581421
8,0.6173524856567383,0.6899999976158142,0.6111211776733398,0.6499999761581421
9,0.5983779430389404,0.699999988079071,0.593986451625824,0.6499999761581421
10,0.5778161287307739,0.7099999785423279,0.5757599472999573,0.6499999761581421
11,0.5623325109481812,0.7099999785423279,0.5575264096260071,0.6600000262260437
12,0.535567581653595,0.7200000286102295,0.5408293604850769,0.6700000166893005
13,0.5204367637634277,0.7200000286102295,0.5273898839950562,0.6700000166893005
14,0.501883327960968,0.7200000286102295,0.5183157920837402,0.6700000166893005
15,0.4952910542488098,0.7300000190734863,0.5132248401641846,0.699999988079071
16,0.48939552903175354,0.7400000095367432,0.5102577805519104,0.7200000286102295
17,0.4676666259765625,0.7400000095367432,0.5072061419487,0.7200000286102295
18,0.46236637234687805,0.7400000095367432,0.5022895336151123,0.75
19,0.45855578780174255,0.75,0.49476584792137146,0.7699999809265137
20,0.4432169198989868,0.7400000095367432,0.4847377836704254,0.7900000214576721
21,0.440757155418396,0.7699999809265137,0.4728493094444275,0.7900000214576721
22,0.4173337519168854,0.7799999713897705,0.46034109592437744,0.800000011920929
23,0.39838412404060364,0.8100000023841858,0.4481372535228729,0.7900000214576721
24,0.38153141736984253,0.800000011920929,0.43681156635284424,0.7900000214576721
25,0.36415234208106995,0.8399999737739563,0.4265904128551483,0.7900000214576721
26,0.35783299803733826,0.8500000238418579,0.41742992401123047,0.7900000214576721
27,0.35166633129119873,0.8700000047683716,0.4091629683971405,0.8100000023841858
28,0.34604015946388245,0.8700000047683716,0.40179046988487244,0.8199999928474426
29,0.3274245858192444,0.8500000238418579,0.39513033628463745,0.8199999928474426
30,0.3291834890842438,0.8700000047683716,0.38896605372428894,0.8199999928474426
31,0.32484492659568787,0.8700000047683716,0.38336676359176636,0.8199999928474426
32,0.31028687953948975,0.8700000047683716,0.3786075711250305,0.8199999928474426
33,0.3073984682559967,0.8700000047683716,0.3749687671661377,0.8299999833106995
34,0.29809191823005676,0.8700000047683716,0.3726971447467804,0.8299999833106995
35,0.28263404965400696,0.8700000047683716,0.37145668268203735,0.8299999833106995
36,0.281523197889328,0.8700000047683716,0.3709087073802948,0.8299999833106995
37,0.27401968836784363,0.8700000047683716,0.3703896999359131,0.8299999833106995
38,0.26305678486824036,0.8700000047683716,0.36918050050735474,0.8299999833106995
39,0.25833582878112793,0.8799999952316284,0.3664405345916748,0.8299999833106995
40,0.25381413102149963,0.8700000047683716,0.36265185475349426,0.8399999737739563
41,0.2441682070493698,0.8700000047683716,0.35771140456199646,0.8500000238418579
42,0.2340015023946762,0.8799999952316284,0.35200992226600647,0.8399999737739563
43,0.2183050662279129,0.9100000262260437,0.3465323746204376,0.8399999737739563
44,0.2086980938911438,0.9100000262260437,0.3412174880504608,0.8399999737739563
45,0.1889766901731491,0.9399999976158142,0.33792248368263245,0.8600000143051147
46,0.18446038663387299,0.9399999976158142,0.33667057752609253,0.8600000143051147
47,0.17731034755706787,0.9399999976158142,0.3376309275627136,0.8399999737739563
48,0.16978761553764343,0.949999988079071,0.34149622917175293,0.8500000238418579
49,0.1531226485967636,0.9599999785423279,0.3475313186645508,0.8600000143051147
50,0.14754395186901093,0.9599999785423279,0.35323044657707214,0.8700000047683716
51,0.14437128603458405,0.9700000286102295,0.35813915729522705,0.8799999952316284
52,0.13449035584926605,0.9700000286102295,0.36289265751838684,0.8899999856948853
53,0.12600189447402954,0.9700000286102295,0.36660343408584595,0.8899999856948853
54,0.12867507338523865,0.9700000286102295,0.3694310486316681,0.8799999952316284
55,0.1252797544002533,0.9700000286102295,0.3725515604019165,0.8799999952316284
56,0.12011110037565231,0.9700000286102295,0.3775799572467804,0.8799999952316284
57,0.11454547941684723,0.9700000286102295,0.383521169424057,0.8700000047683716
58,0.11368248611688614,0.9700000286102295,0.3910078704357147,0.8700000047683716
59,0.10759159922599792,0.9700000286102295,0.40085116028785706,0.8799999952316284
60,0.10233563184738159,0.9700000286102295,0.4127155542373657,0.8700000047683716
61,0.09521511942148209,0.9700000286102295,0.42596298456192017,0.8600000143051147
62,0.08407445251941681,0.9700000286102295,0.44100797176361084,0.8600000143051147
63,0.09011083841323853,0.9700000286102295,0.458451509475708,0.8500000238418579
64,0.07939484715461731,0.9800000190734863,0.47452011704444885,0.8600000143051147
65,0.07273459434509277,0.9900000095367432,0.4858427941799164,0.8600000143051147
66,0.07762245088815689,0.9700000286102295,0.4914983808994293,0.8600000143051147
67,0.06506071239709854,0.9900000095367432,0.4974185824394226,0.8500000238418579
68,0.06862908601760864,0.9900000095367432,0.5017971992492676,0.8500000238418579
69,0.06149217113852501,0.9900000095367432,0.5079729557037354,0.8500000238418579
70,0.05261095613241196,0.9900000095367432,0.514413058757782,0.8600000143051147
71,0.058002546429634094,0.9800000190734863,0.5213223099708557,0.8600000143051147
72,0.0656699687242508,0.9800000190734863,0.5323736667633057,0.8600000143051147
73,0.051274288445711136,0.9900000095367432,0.543419599533081,0.8600000143051147
74,0.0522487498819828,0.9900000095367432,0.5532242655754089,0.8600000143051147
75,0.04877829924225807,0.9900000095367432,0.5621743202209473,0.8600000143051147
76,0.04680805653333664,0.9900000095367432,0.5700222849845886,0.8500000238418579
77,0.04962350055575371,0.9900000095367432,0.5777621269226074,0.8500000238418579
78,0.04646381735801697,0.9900000095367432,0.5852378606796265,0.8500000238418579
79,0.04484931379556656,0.9900000095367432,0.5924983024597168,0.8399999737739563
80,0.045123375952243805,0.9900000095367432,0.5992817878723145,0.8500000238418579
81,0.04322665557265282,0.9900000095367432,0.6059402823448181,0.8500000238418579
82,0.04023571312427521,0.9900000095367432,0.6112895607948303,0.8500000238418579
83,0.0472123846411705,0.9900000095367432,0.613635778427124,0.8500000238418579
84,0.0421706959605217,0.9900000095367432,0.6176197528839111,0.8500000238418579
85,0.03852798044681549,0.9900000095367432,0.6215856671333313,0.8500000238418579
86,0.03535092994570732,0.9900000095367432,0.6258158087730408,0.8500000238418579
87,0.03523188456892967,0.9900000095367432,0.6296765804290771,0.8500000238418579
88,0.036959417164325714,0.9900000095367432,0.6336913108825684,0.8600000143051147
89,0.03723851591348648,0.9900000095367432,0.6378551125526428,0.8600000143051147
90,0.03852114826440811,0.9900000095367432,0.6423637270927429,0.8700000047683716
91,0.030523262917995453,0.9900000095367432,0.6473190188407898,0.8700000047683716
92,0.033444494009017944,0.9900000095367432,0.6525083780288696,0.8700000047683716
93,0.03058510459959507,0.9900000095367432,0.6579211354255676,0.8700000047683716
94,0.029389210045337677,0.9900000095367432,0.6636927127838135,0.8700000047683716
95,0.02584325335919857,0.9900000095367432,0.6696268320083618,0.8500000238418579
96,0.026939263567328453,0.9900000095367432,0.6756298542022705,0.8500000238418579
97,0.02423606812953949,0.9900000095367432,0.6818870306015015,0.8500000238418579
98,0.026663122698664665,0.9900000095367432,0.6885132789611816,0.8500000238418579
99,0.023195769637823105,0.9900000095367432,0.6944072842597961,0.8500000238418579
100,0.02124875783920288,0.9900000095367432,0.6999050974845886,0.8500000238418579
101,0.01759122498333454,0.9900000095367432,0.705238401889801,0.8500000238418579
102,0.017839854583144188,0.9900000095367432,0.7105521559715271,0.8500000238418579
103,0.020912326872348785,0.9900000095367432,0.7155470252037048,0.8399999737739563
104,0.016511088237166405,0.9900000095367432,0.7202108502388,0.8399999737739563
105,0.015712512657046318,0.9900000095367432,0.7253423929214478,0.8399999737739563
106,0.01615302264690399,0.9900000095367432,0.7306417226791382,0.8399999737739563
107,0.01628752611577511,0.9900000095367432,0.7335934638977051,0.8399999737739563
108,0.014487553387880325,0.9900000095367432,0.7365680932998657,0.8399999737739563
109,0.012766633182764053,0.9900000095367432,0.7392888069152832,0.8399999737739563
110,0.012737526558339596,0.9900000095367432,0.7423019409179688,0.8399999737739563
111,0.010617103427648544,0.9900000095367432,0.7454625964164734,0.8399999737739563
112,0.00886954739689827,1.0,0.7487300038337708,0.8399999737739563
113,0.008840900845825672,1.0,0.7521629929542542,0.8399999737739563
114,0.006431709975004196,1.0,0.7564144730567932,0.8399999737739563
115,0.007545891217887402,1.0,0.7608095407485962,0.8500000238418579
116,0.007355797104537487,1.0,0.7674564123153687,0.8500000238418579
117,0.005943902302533388,1.0,0.7752477526664734,0.8500000238418579
118,0.004395200405269861,1.0,0.7836554646492004,0.8500000238418579
119,0.004625821020454168,1.0,0.7932771444320679,0.8500000238418579
120,0.003965957555919886,1.0,0.8090772032737732,0.8500000238418579
121,0.0021747939754277468,1.0,0.8239508867263794,0.8500000238418579
122,0.0021770393941551447,1.0,0.8384159207344055,0.8399999737739563
123,0.0032521996181458235,1.0,0.8491693735122681,0.8399999737739563
124,0.0021236059255898,1.0,0.858717143535614,0.8399999737739563
125,0.003426370909437537,1.0,0.8557869791984558,0.8399999737739563
126,0.00099500035867095,1.0,0.8519850373268127,0.8500000238418579
127,0.001627898309379816,1.0,0.8476169109344482,0.8500000238418579
128,0.0014163668965920806,1.0,0.8443592190742493,0.8500000238418579
129,0.0011671546380966902,1.0,0.8415510654449463,0.8500000238418579
130,0.0006505541387014091,1.0,0.8392335772514343,0.8500000238418579
131,0.001402773428708315,1.0,0.846172571182251,0.8500000238418579
132,0.0012511603999882936,1.0,0.8536063432693481,0.8500000238418579
133,0.0010996487690135837,1.0,0.8615481853485107,0.8500000238418579
134,0.0004282408335711807,1.0,0.8693758249282837,0.8500000238418579
135,0.00046107248635962605,1.0,0.8764410614967346,0.8500000238418579
136,0.000563681882340461,1.0,0.8829790353775024,0.8500000238418579
137,0.0003070987295359373,1.0,0.888905942440033,0.8500000238418579
138,0.00046553811989724636,1.0,0.8943018317222595,0.8500000238418579
139,0.000386921688914299,1.0,0.8989108204841614,0.8500000238418579
140,0.0003777772653847933,1.0,0.902967095375061,0.8500000238418579
141,0.00045359611976891756,1.0,0.9069699645042419,0.8500000238418579
142,0.00029864319367334247,1.0,0.9107445478439331,0.8500000238418579
143,0.00038656211108900607,1.0,0.9142212867736816,0.8500000238418579
144,0.00045097575639374554,1.0,0.9175456762313843,0.8500000238418579
145,0.0002999724238179624,1.0,0.919808566570282,0.8500000238418579
146,0.0004175410431344062,1.0,0.921984851360321,0.8500000238418579
147,0.0002937005483545363,1.0,0.9240738749504089,0.8500000238418579
148,0.0007014183211140335,1.0,0.9265367984771729,0.8500000238418579
149,0.00022567145060747862,1.0,0.9288526773452759,0.8500000238418579
