,loss,recall,val_loss,val_recall
0,0.8739305138587952,0.47619047619047616,0.6857120990753174,0.8115169964485033
1,3.197638511657715,0.7966988727858293,1.1109651327133179,0.18
2,3.8463213443756104,0.5838335334133653,1.2128124237060547,0.18
3,1.8760019540786743,0.8485221674876847,1.8835052251815796,0.18
4,1.4581938982009888,0.8279967159277504,2.6221890449523926,0.18
5,0.9051655530929565,0.8343841950399327,3.157902479171753,0.18
6,0.3178025484085083,0.8654513888888888,3.4356493949890137,0.18
7,0.15138334035873413,0.9298737727910238,3.506751537322998,0.18
8,0.16625761985778809,0.9214285714285715,3.4815754890441895,0.18
9,0.17891573905944824,0.9373482272948033,3.4762866497039795,0.18
10,0.1698262244462967,0.9384191176470589,3.5514321327209473,0.18
11,0.11385951936244965,0.9558823529411764,3.701662540435791,0.18
12,0.09597102552652359,0.9470827679782903,3.9232969284057617,0.18
13,0.1436924934387207,0.9452380952380952,3.9167375564575195,0.18
14,0.08379162847995758,0.9696969696969697,3.8924949169158936,0.18
15,0.07609787583351135,1.0,3.9117348194122314,0.18
16,0.07782386988401413,0.9613970588235294,3.9943456649780273,0.18
17,0.058407895267009735,0.9859154929577465,4.145742893218994,0.18
18,0.053249672055244446,0.9859154929577465,4.3861846923828125,0.18
19,0.04981487989425659,0.9928571428571429,4.684807300567627,0.18
20,0.04058108106255531,0.9928571428571429,5.021664142608643,0.18
21,0.03643827140331268,1.0,5.388504981994629,0.18
22,0.025750236585736275,1.0,5.818418025970459,0.18
23,0.021082011982798576,1.0,6.3399224281311035,0.18
24,0.01605973020195961,1.0,6.847554683685303,0.18
25,0.016547227278351784,1.0,7.324709892272949,0.18
26,0.01650364324450493,1.0,7.679651737213135,0.18
27,0.013642314821481705,1.0,7.8171820640563965,0.18
28,0.007220401428639889,1.0,7.802217960357666,0.18
29,0.005788748152554035,1.0,7.608161926269531,0.18
30,0.006452679634094238,1.0,7.083958625793457,0.18
31,0.005527034867554903,1.0,6.260701656341553,0.18
32,0.004842532332986593,1.0,5.237764835357666,0.18
33,0.003972148988395929,1.0,4.1611127853393555,0.6818181818181819
34,0.0028309619519859552,1.0,3.176539897918701,0.6818181818181819
35,0.002373712370172143,1.0,2.3638815879821777,0.6914893617021276
36,0.0021839174441993237,1.0,1.781996726989746,0.7142857142857143
37,0.002287598792463541,1.0,1.4068611860275269,0.7647058823529411
38,0.0019195848144590855,1.0,1.181663155555725,0.7898193760262726
39,0.0015124976634979248,1.0,1.0494868755340576,0.8195503813729426
40,0.001348228775896132,1.0,0.96949702501297,0.8473389355742297
41,0.001347714220173657,1.0,0.9176440238952637,0.8473389355742297
42,0.0014122873544692993,1.0,0.8819260001182556,0.8549679487179487
43,0.0012909364886581898,1.0,0.8535358905792236,0.8549679487179487
44,0.0013386947102844715,1.0,0.8306781053543091,0.8549679487179487
45,0.001149338437244296,1.0,0.8117373585700989,0.8549679487179487
46,0.0008438493823632598,1.0,0.795093834400177,0.8629064632677639
47,0.000979194650426507,1.0,0.7807288765907288,0.8629064632677639
48,0.0007786120404489338,1.0,0.7690190076828003,0.8629064632677639
49,0.0006120213656686246,1.0,0.7584818005561829,0.8629064632677639
50,0.000543049129191786,1.0,0.7489719986915588,0.8629064632677639
51,0.0005493315402418375,1.0,0.740045428276062,0.8711755233494365
52,0.0006320709362626076,1.0,0.7313963174819946,0.8711755233494365
53,0.00040431699017062783,1.0,0.7223129272460938,0.8711755233494365
54,0.0004172460758127272,1.0,0.7124595642089844,0.8711755233494365
55,0.00042160999146290123,1.0,0.7012168765068054,0.8711755233494365
56,0.0003863324236590415,1.0,0.6886633038520813,0.8711755233494365
57,0.0005151484510861337,1.0,0.6744392514228821,0.8711755233494365
58,0.0004327649949118495,1.0,0.6589807271957397,0.8711755233494365
59,0.00043373380322009325,1.0,0.6436129808425903,0.8711755233494365
60,0.00042022723937407136,1.0,0.6271932125091553,0.8711755233494365
61,0.00038327317452058196,1.0,0.6104635000228882,0.8711755233494365
62,0.0003929171652998775,1.0,0.5940464735031128,0.8711755233494365
63,0.00042158598080277443,1.0,0.5783722400665283,0.8797979797979798
64,0.0003274483897257596,1.0,0.5638583302497864,0.8887987012987013
65,0.0003239774378016591,1.0,0.5505315065383911,0.8887987012987013
66,0.00036544600152410567,1.0,0.5384900569915771,0.8887987012987013
67,0.0003102064074482769,1.0,0.5277156233787537,0.8982048143614851
68,0.0002799725334625691,1.0,0.5185213088989258,0.8982048143614851
69,0.0002762718067970127,1.0,0.5106707215309143,0.8982048143614851
70,0.0002564363821875304,1.0,0.5040113925933838,0.8982048143614851
71,0.00027341386885382235,1.0,0.4983610510826111,0.8982048143614851
72,0.0002734292938839644,1.0,0.49360719323158264,0.8982048143614851
73,0.00027778977528214455,1.0,0.48969486355781555,0.8976849937990905
74,0.00024055191897787154,1.0,0.4865025281906128,0.8976849937990905
75,0.00024766361457295716,1.0,0.4838809072971344,0.8976849937990905
76,0.00027625911752693355,1.0,0.4819962978363037,0.8984867591424968
77,0.0002583040331955999,1.0,0.4804426431655884,0.8984867591424968
78,0.0002362056402489543,1.0,0.47928881645202637,0.8984867591424968
79,0.0002525742747820914,1.0,0.4783236086368561,0.8984867591424968
80,0.00019401575264055282,1.0,0.47745558619499207,0.8984867591424968
81,0.0002418095973553136,1.0,0.4766694903373718,0.8984867591424968
82,0.00020654156105592847,1.0,0.4760674834251404,0.8984867591424968
83,0.0002125557221006602,1.0,0.4752643406391144,0.8984867591424968
84,0.0001994250633288175,1.0,0.4745776951313019,0.8984867591424968
85,0.00021806526638101786,1.0,0.4737263321876526,0.8984867591424968
86,0.00021793987252749503,1.0,0.47287237644195557,0.8984867591424968
87,0.00021979608573019505,1.0,0.47199609875679016,0.8984867591424968
88,0.00021310393640305847,1.0,0.47135648131370544,0.8984867591424968
89,0.00017432794265914708,1.0,0.4707440137863159,0.8984867591424968
90,0.00017591087089385837,1.0,0.47006955742836,0.8984867591424968
91,0.00023905988200567663,1.0,0.46961867809295654,0.8984867591424968
92,0.00021720313816331327,1.0,0.46944162249565125,0.8984867591424968
93,0.0002052266790997237,1.0,0.46944618225097656,0.8984867591424968
94,0.000199102854821831,1.0,0.469384104013443,0.8984867591424968
95,0.00021787043078802526,1.0,0.46948450803756714,0.8984867591424968
96,0.00018518301658332348,1.0,0.4695166051387787,0.9083333333333333
97,0.00020431600569281727,1.0,0.4695803225040436,0.9083333333333333
98,0.00017751220730133355,1.0,0.4696190655231476,0.9083333333333333
99,0.00020824313105549663,1.0,0.4698861539363861,0.9083333333333333
100,0.00022533087758347392,1.0,0.4704793393611908,0.9083333333333333
101,0.00016753165982663631,1.0,0.4708790183067322,0.9083333333333333
102,0.00019780235015787184,1.0,0.47130054235458374,0.9083333333333333
103,0.0001839305623434484,1.0,0.47192642092704773,0.9083333333333333
104,0.00016449550457764417,1.0,0.4725527763366699,0.9083333333333333
105,0.0001573662448208779,1.0,0.47308215498924255,0.9083333333333333
106,0.0001690536882961169,1.0,0.4735877513885498,0.9083333333333333
107,0.00015490275109186769,1.0,0.47411009669303894,0.9083333333333333
108,0.0001977512874873355,1.0,0.4747937321662903,0.9083333333333333
109,0.00018565412028692663,1.0,0.475303590297699,0.9083333333333333
110,0.0001670947385719046,1.0,0.47589024901390076,0.9083333333333333
111,0.0001669317134656012,1.0,0.4764569103717804,0.9083333333333333
112,0.00014469084271695465,1.0,0.47698545455932617,0.9083333333333333
113,0.00020686104835476726,1.0,0.4776044487953186,0.9083333333333333
114,0.0001766461064107716,1.0,0.4784347116947174,0.9083333333333333
115,0.0001451063435524702,1.0,0.4791940152645111,0.9083333333333333
116,0.00015082165191415697,1.0,0.4797396659851074,0.9083333333333333
117,0.00016252345812972635,1.0,0.48040738701820374,0.9083333333333333
118,0.0001528178690932691,1.0,0.4809893071651459,0.9083333333333333
119,0.00015061654266901314,1.0,0.4814792573451996,0.9083333333333333
120,0.00015452566731255502,1.0,0.48195379972457886,0.9083333333333333
121,0.00016573398897890002,1.0,0.48248201608657837,0.9083333333333333
122,0.0001626386947464198,1.0,0.4831967055797577,0.9083333333333333
123,0.00015938052092678845,1.0,0.4840529263019562,0.9083333333333333
124,0.0001640371629036963,1.0,0.48495692014694214,0.9083333333333333
125,0.00015505314513575286,1.0,0.4856259524822235,0.9083333333333333
126,0.00013762153685092926,1.0,0.4861597418785095,0.9083333333333333
127,0.00014808615378569812,1.0,0.4865880608558655,0.9083333333333333
128,0.0001458431506762281,1.0,0.4870702922344208,0.9083333333333333
129,0.00013408498489297926,1.0,0.487453818321228,0.9083333333333333
130,0.00014556385576725006,1.0,0.4876793622970581,0.9083333333333333
131,0.0001217655444634147,1.0,0.4878675043582916,0.9083333333333333
132,0.00014086389273870736,1.0,0.4884089529514313,0.9083333333333333
133,0.00015341615653596818,1.0,0.4889943599700928,0.9083333333333333
134,0.00013717934780288488,1.0,0.48997846245765686,0.9083333333333333
135,0.00013287759793456644,1.0,0.4907206594944,0.9083333333333333
136,0.00012688942661043257,1.0,0.49122750759124756,0.9083333333333333
137,0.0001253430818906054,1.0,0.491574227809906,0.9083333333333333
138,0.0001276333350688219,1.0,0.4917547404766083,0.9083333333333333
139,0.00010710857895901427,1.0,0.49193957448005676,0.9083333333333333
140,0.00014088339230511338,1.0,0.492161363363266,0.9083333333333333
141,0.00013640482211485505,1.0,0.4925607442855835,0.9083333333333333
142,0.0001441061176592484,1.0,0.49309709668159485,0.9083333333333333
143,0.00014246981299947947,1.0,0.49380937218666077,0.9083333333333333
144,0.0001593488414073363,1.0,0.4943152368068695,0.9083333333333333
145,0.00013004888023715466,1.0,0.49490755796432495,0.9083333333333333
146,0.00010623108391882852,1.0,0.49540865421295166,0.9083333333333333
147,0.00014823267702013254,1.0,0.4961283802986145,0.9083333333333333
148,0.00012138563033659011,1.0,0.4967830181121826,0.9083333333333333
149,0.00010708672925829887,1.0,0.4973549544811249,0.9083333333333333
150,0.00012012348452117294,1.0,0.49785667657852173,0.9083333333333333
151,0.00012473085371311754,1.0,0.4982861280441284,0.9083333333333333
152,0.0001252099609700963,1.0,0.49856191873550415,0.9083333333333333
153,0.000125607693917118,1.0,0.4985445439815521,0.9083333333333333
154,0.0001252887595910579,1.0,0.4986096918582916,0.9083333333333333
155,0.00011968405306106433,1.0,0.49871355295181274,0.9083333333333333
156,0.00012579525355249643,1.0,0.4987259805202484,0.9083333333333333
157,0.00010804067278513685,1.0,0.49873027205467224,0.9083333333333333
158,0.00011234575504204258,1.0,0.49864184856414795,0.9083333333333333
159,0.00011281779006822035,1.0,0.49860548973083496,0.9083333333333333
160,9.67670202953741e-05,1.0,0.49862468242645264,0.9083333333333333
161,0.00010943799861706793,1.0,0.49861544370651245,0.9083333333333333
162,0.00010689572809496894,1.0,0.4986405074596405,0.9083333333333333
163,0.0001193898351630196,1.0,0.49881383776664734,0.9083333333333333
164,0.00012072629760950804,1.0,0.4989551901817322,0.9083333333333333
165,0.00010220295371254906,1.0,0.49907445907592773,0.9083333333333333
166,0.00011216638085898012,1.0,0.4991704821586609,0.9083333333333333
167,9.828092152019963e-05,1.0,0.49937304854393005,0.9083333333333333
168,0.0001021530115394853,1.0,0.4995015859603882,0.9083333333333333
169,9.505728667136282e-05,1.0,0.49964168667793274,0.9083333333333333
170,0.00010978485806845129,1.0,0.499814510345459,0.9083333333333333
171,0.00010768917127279565,1.0,0.5000309348106384,0.9083333333333333
172,0.00010522213415242732,1.0,0.5003204345703125,0.9083333333333333
173,0.00010033221769845113,1.0,0.5005270838737488,0.9083333333333333
174,0.00011368608829798177,1.0,0.5007870197296143,0.9083333333333333
175,0.00010130737064173445,1.0,0.5011020302772522,0.9083333333333333
176,9.479081199970096e-05,1.0,0.5014380812644958,0.9083333333333333
177,9.193628648063168e-05,1.0,0.5017592906951904,0.9083333333333333
178,9.04692496987991e-05,1.0,0.502124547958374,0.9083333333333333
179,0.000105528328276705,1.0,0.5027052164077759,0.9083333333333333
180,9.273342584492639e-05,1.0,0.5033514499664307,0.9083333333333333
181,9.879028220893815e-05,1.0,0.5041527152061462,0.9083333333333333
182,9.611572022549808e-05,1.0,0.5048888921737671,0.9083333333333333
183,9.12458635866642e-05,1.0,0.5055691599845886,0.9083333333333333
184,9.779285755939782e-05,1.0,0.5061696767807007,0.9083333333333333
185,0.00010367391223553568,1.0,0.506780743598938,0.9083333333333333
186,9.111834515351802e-05,1.0,0.5073360204696655,0.9083333333333333
187,8.869390876498073e-05,1.0,0.5079041719436646,0.9083333333333333
188,8.516920206602663e-05,1.0,0.5084997415542603,0.9083333333333333
189,8.620438165962696e-05,1.0,0.5090565085411072,0.9083333333333333
190,8.737936150282621e-05,1.0,0.5096146464347839,0.9083333333333333
191,7.688445475650951e-05,1.0,0.5101332068443298,0.9083333333333333
192,8.375235483981669e-05,1.0,0.5105698108673096,0.9083333333333333
193,9.016606054501608e-05,1.0,0.5108199119567871,0.9083333333333333
194,8.451077155768871e-05,1.0,0.5109251737594604,0.9083333333333333
195,8.551388600608334e-05,1.0,0.5112060308456421,0.9083333333333333
196,7.879937038524076e-05,1.0,0.5113356709480286,0.9083333333333333
197,9.662669617682695e-05,1.0,0.5115553736686707,0.9083333333333333
198,8.537584653822705e-05,1.0,0.5117300152778625,0.9083333333333333
199,7.913808804005384e-05,1.0,0.5118990540504456,0.9083333333333333
200,8.32390142022632e-05,1.0,0.5120308995246887,0.9083333333333333
201,8.312932914122939e-05,1.0,0.512230396270752,0.9083333333333333
202,8.252977568190545e-05,1.0,0.5125802755355835,0.9083333333333333
203,8.890363824320957e-05,1.0,0.5130765438079834,0.9083333333333333
204,8.418402285315096e-05,1.0,0.5135325789451599,0.9083333333333333
205,8.60318323248066e-05,1.0,0.5140905380249023,0.9083333333333333
206,8.997316035674885e-05,1.0,0.5146052241325378,0.9083333333333333
207,8.212157263187692e-05,1.0,0.5149951577186584,0.9083333333333333
208,8.256358705693856e-05,1.0,0.5153131484985352,0.9083333333333333
209,8.656292629893869e-05,1.0,0.5157762169837952,0.9083333333333333
210,8.640365558676422e-05,1.0,0.5162975192070007,0.9083333333333333
211,7.092376472428441e-05,1.0,0.5167275667190552,0.9083333333333333
212,8.61674634506926e-05,1.0,0.5172865986824036,0.9083333333333333
213,6.917124846950173e-05,1.0,0.5177149176597595,0.9083333333333333
214,7.626959995832294e-05,1.0,0.5181326270103455,0.9083333333333333
215,8.990222704596817e-05,1.0,0.5183873176574707,0.9083333333333333
216,7.210067997220904e-05,1.0,0.5186522006988525,0.9083333333333333
217,8.826024713926017e-05,1.0,0.5188345313072205,0.9083333333333333
218,7.583370461361483e-05,1.0,0.5189192295074463,0.9083333333333333
219,8.187213825294748e-05,1.0,0.5191743969917297,0.9083333333333333
220,7.574142364319414e-05,1.0,0.5194816589355469,0.9083333333333333
221,7.7790129580535e-05,1.0,0.5198605060577393,0.9083333333333333
222,6.566025695065036e-05,1.0,0.5202850103378296,0.9083333333333333
223,7.993388862814754e-05,1.0,0.5206983089447021,0.9083333333333333
224,7.318926509469748e-05,1.0,0.5211474299430847,0.9083333333333333
225,7.033748261164874e-05,1.0,0.5217289924621582,0.9083333333333333
226,7.586451101815328e-05,1.0,0.522345244884491,0.9083333333333333
227,7.225584704428911e-05,1.0,0.5229957699775696,0.9083333333333333
228,6.715788185829297e-05,1.0,0.5235877633094788,0.9083333333333333
229,7.108454155968502e-05,1.0,0.5240659713745117,0.9083333333333333
230,6.723019760102034e-05,1.0,0.5245058536529541,0.9083333333333333
231,6.927240610821173e-05,1.0,0.5248620510101318,0.9083333333333333
232,7.220816041808575e-05,1.0,0.5250445604324341,0.9083333333333333
233,7.583691331092268e-05,1.0,0.5251355767250061,0.9083333333333333
234,6.83108446537517e-05,1.0,0.5253024101257324,0.9083333333333333
235,6.58786011626944e-05,1.0,0.525413990020752,0.9083333333333333
236,6.110878166509792e-05,1.0,0.5254516005516052,0.9083333333333333
237,8.125080785248429e-05,1.0,0.525459349155426,0.9083333333333333
238,7.781713793519884e-05,1.0,0.5254102349281311,0.9083333333333333
239,6.78355572745204e-05,1.0,0.5253977179527283,0.9083333333333333
240,6.329697498586029e-05,1.0,0.5254296660423279,0.9083333333333333
241,7.281234138645232e-05,1.0,0.525488018989563,0.9083333333333333
242,7.322443707380444e-05,1.0,0.5254237055778503,0.9083333333333333
243,6.233742897165939e-05,1.0,0.5254258513450623,0.9083333333333333
244,7.079670467646793e-05,1.0,0.5254889726638794,0.9083333333333333
245,6.507858779514208e-05,1.0,0.5256451368331909,0.9083333333333333
246,5.732251156587154e-05,1.0,0.5258678793907166,0.9083333333333333
247,6.236163608264178e-05,1.0,0.5260834693908691,0.9083333333333333
248,7.428714889101684e-05,1.0,0.5263734459877014,0.9083333333333333
249,6.282336107688025e-05,1.0,0.5266744494438171,0.9083333333333333
250,6.412541551981121e-05,1.0,0.5268407464027405,0.9083333333333333
251,6.48541099508293e-05,1.0,0.5270904302597046,0.9083333333333333
252,6.4087136706803e-05,1.0,0.5274032950401306,0.9083333333333333
253,6.053682227502577e-05,1.0,0.5277486443519592,0.9083333333333333
254,5.656115899910219e-05,1.0,0.5280349254608154,0.9083333333333333
255,6.0859172663185745e-05,1.0,0.5283421277999878,0.9083333333333333
256,5.6473490985808894e-05,1.0,0.5286778211593628,0.9083333333333333
257,5.939253605902195e-05,1.0,0.5290783047676086,0.9083333333333333
258,5.64031106478069e-05,1.0,0.5294321179389954,0.9083333333333333
259,5.7310953707201406e-05,1.0,0.5297864675521851,0.9083333333333333
260,6.994944124016911e-05,1.0,0.5301961302757263,0.9083333333333333
261,6.434436363633722e-05,1.0,0.5306898951530457,0.9083333333333333
262,6.047558053978719e-05,1.0,0.5312279462814331,0.9083333333333333
263,6.590550037799403e-05,1.0,0.5317236185073853,0.9083333333333333
264,6.354608194669709e-05,1.0,0.5323429107666016,0.9083333333333333
265,5.086521923658438e-05,1.0,0.5328279137611389,0.9083333333333333
266,6.269016012083739e-05,1.0,0.5332663655281067,0.9083333333333333
267,5.2554067224264145e-05,1.0,0.5336657762527466,0.9083333333333333
268,5.6569897424196824e-05,1.0,0.5340760946273804,0.9083333333333333
269,5.573686212301254e-05,1.0,0.5344893336296082,0.9083333333333333
270,7.203765562735498e-05,1.0,0.5349887609481812,0.9083333333333333
271,5.763839726569131e-05,1.0,0.5354136824607849,0.9083333333333333
272,6.364550063153729e-05,1.0,0.5359450578689575,0.9083333333333333
273,5.0957463827217e-05,1.0,0.5363792777061462,0.9083333333333333
274,5.830236477777362e-05,1.0,0.5367103815078735,0.9083333333333333
275,5.4063242714619264e-05,1.0,0.5370554327964783,0.9083333333333333
276,5.6316675909329206e-05,1.0,0.5373879671096802,0.9083333333333333
277,5.824856270919554e-05,1.0,0.5377071499824524,0.9083333333333333
278,5.9323916502762586e-05,1.0,0.5380391478538513,0.9083333333333333
279,5.324312223820016e-05,1.0,0.538303792476654,0.9083333333333333
280,5.3500512876780704e-05,1.0,0.5385776162147522,0.9083333333333333
281,5.3500847570830956e-05,1.0,0.5389022827148438,0.9083333333333333
282,5.292570131132379e-05,1.0,0.5392293930053711,0.9083333333333333
283,5.1213628466939554e-05,1.0,0.5395698547363281,0.9083333333333333
284,6.426724576158449e-05,1.0,0.5398961901664734,0.9083333333333333
285,5.505559965968132e-05,1.0,0.5402002334594727,0.9083333333333333
286,5.804051397717558e-05,1.0,0.5406063795089722,0.9083333333333333
287,4.81682363897562e-05,1.0,0.5409149527549744,0.9083333333333333
288,4.774011540575884e-05,1.0,0.5412444472312927,0.9083333333333333
289,5.257457451079972e-05,1.0,0.5416666865348816,0.9083333333333333
290,5.305372178554535e-05,1.0,0.5419845581054688,0.9083333333333333
291,4.363542393548414e-05,1.0,0.5422654747962952,0.9083333333333333
292,5.972312283120118e-05,1.0,0.5426101684570312,0.9083333333333333
293,4.7273941163439304e-05,1.0,0.542929470539093,0.9083333333333333
294,4.5231019612401724e-05,1.0,0.5432538390159607,0.9083333333333333
295,4.313369208830409e-05,1.0,0.5435613393783569,0.9083333333333333
296,5.191907621338032e-05,1.0,0.5439912676811218,0.9083333333333333
297,4.985772102372721e-05,1.0,0.5443774461746216,0.9083333333333333
298,5.079036418464966e-05,1.0,0.544743537902832,0.9083333333333333
299,4.968045686837286e-05,1.0,0.5451011657714844,0.9083333333333333
300,4.9295758799416944e-05,1.0,0.5454419255256653,0.9083333333333333
301,4.9950729589909315e-05,1.0,0.5458981990814209,0.9083333333333333
302,4.877743776887655e-05,1.0,0.5464553833007812,0.9083333333333333
303,4.824068309972063e-05,1.0,0.5469576120376587,0.9083333333333333
304,5.087050885776989e-05,1.0,0.5475032925605774,0.9083333333333333
305,4.786440695170313e-05,1.0,0.5479766130447388,0.9083333333333333
306,4.540872760117054e-05,1.0,0.5482736229896545,0.9083333333333333
307,4.339326187619008e-05,1.0,0.5484713912010193,0.9083333333333333
308,4.2226041841786355e-05,1.0,0.5485894083976746,0.9083333333333333
309,4.850293407798745e-05,1.0,0.5487135052680969,0.9083333333333333
310,4.179625102551654e-05,1.0,0.5488120913505554,0.9083333333333333
311,4.9566027882974595e-05,1.0,0.5489969253540039,0.9083333333333333
312,4.8814163164934143e-05,1.0,0.5494059920310974,0.9083333333333333
313,4.430015542311594e-05,1.0,0.5497980117797852,0.9083333333333333
314,4.550419544102624e-05,1.0,0.5501369833946228,0.9083333333333333
315,4.5037864765617996e-05,1.0,0.55043625831604,0.9083333333333333
316,4.361692845122889e-05,1.0,0.550659716129303,0.9083333333333333
317,4.3076015572296456e-05,1.0,0.5509229898452759,0.9083333333333333
318,4.928010457661003e-05,1.0,0.5511985421180725,0.9083333333333333
319,4.4496777263702825e-05,1.0,0.5514365434646606,0.9083333333333333
320,5.034843343310058e-05,1.0,0.5515841841697693,0.9083333333333333
321,4.505702599999495e-05,1.0,0.5517235994338989,0.9083333333333333
322,3.8657733966829255e-05,1.0,0.5518788695335388,0.9083333333333333
323,4.33130917372182e-05,1.0,0.5520004034042358,0.9083333333333333
324,4.9245834816247225e-05,1.0,0.5522066354751587,0.9083333333333333
325,4.658487159758806e-05,1.0,0.5524295568466187,0.9083333333333333
326,4.09637505072169e-05,1.0,0.5526288747787476,0.9083333333333333
327,4.178889139438979e-05,1.0,0.552868127822876,0.9083333333333333
328,5.170301301404834e-05,1.0,0.5531702041625977,0.9083333333333333
329,4.080282087670639e-05,1.0,0.5534605383872986,0.9083333333333333
330,4.8882648115977645e-05,1.0,0.5539185404777527,0.8984867591424968
331,4.910005009151064e-05,1.0,0.5542406439781189,0.8984867591424968
332,4.1670340579003096e-05,1.0,0.5545606017112732,0.8984867591424968
333,4.961267040926032e-05,1.0,0.5548744201660156,0.8984867591424968
334,4.240584166836925e-05,1.0,0.5551334023475647,0.8984867591424968
335,3.869575448334217e-05,1.0,0.5553551912307739,0.8984867591424968
336,3.6447778256842867e-05,1.0,0.5555543303489685,0.8984867591424968
337,4.632088166545145e-05,1.0,0.5556492209434509,0.8984867591424968
338,4.205432196613401e-05,1.0,0.5558276176452637,0.8984867591424968
339,3.8294059777399525e-05,1.0,0.5559611916542053,0.8984867591424968
340,3.656325861811638e-05,1.0,0.5560138821601868,0.8984867591424968
341,4.986682688468136e-05,1.0,0.5561704039573669,0.8984867591424968
342,3.9877926610643044e-05,1.0,0.5562776327133179,0.9083333333333333
343,4.181145777693018e-05,1.0,0.5563344359397888,0.9083333333333333
344,4.377583900350146e-05,1.0,0.5563920140266418,0.9083333333333333
345,3.798433317570016e-05,1.0,0.5565366148948669,0.9083333333333333
346,3.8531132304342464e-05,1.0,0.5566890239715576,0.9083333333333333
347,4.420752520672977e-05,1.0,0.5568273067474365,0.9083333333333333
348,3.727449075086042e-05,1.0,0.5568780899047852,0.9083333333333333
349,4.421530684339814e-05,1.0,0.5569520592689514,0.9083333333333333
350,3.982289490522817e-05,1.0,0.5570073127746582,0.9083333333333333
351,4.143810292589478e-05,1.0,0.5571065545082092,0.9083333333333333
352,3.707469659275375e-05,1.0,0.5572203993797302,0.9083333333333333
353,3.676965206977911e-05,1.0,0.5573561191558838,0.9083333333333333
354,3.744885907508433e-05,1.0,0.5574910640716553,0.9083333333333333
355,3.6614466807805e-05,1.0,0.5575975179672241,0.9083333333333333
356,3.754873978323303e-05,1.0,0.5576853156089783,0.9083333333333333
357,3.825411477009766e-05,1.0,0.5577801465988159,0.9083333333333333
358,4.3694588384823874e-05,1.0,0.5578941106796265,0.9083333333333333
359,3.635832035797648e-05,1.0,0.5579502582550049,0.9083333333333333
360,4.0020902815740556e-05,1.0,0.5579690933227539,0.9083333333333333
361,3.732024924829602e-05,1.0,0.5580090880393982,0.9083333333333333
362,3.6283097870182246e-05,1.0,0.5580440163612366,0.9083333333333333
363,3.82817852369044e-05,1.0,0.558046281337738,0.9083333333333333
364,3.759910396183841e-05,1.0,0.5581620335578918,0.9083333333333333
365,3.716665378306061e-05,1.0,0.5583313703536987,0.9083333333333333
366,3.771188130485825e-05,1.0,0.5585792064666748,0.9083333333333333
367,3.7903766497038305e-05,1.0,0.5590245723724365,0.9083333333333333
368,3.0777569918427616e-05,1.0,0.5594214200973511,0.9083333333333333
369,3.477714562905021e-05,1.0,0.5597926378250122,0.9083333333333333
370,4.084956890437752e-05,1.0,0.560251772403717,0.9083333333333333
371,3.282163379481062e-05,1.0,0.560711145401001,0.9083333333333333
372,3.09050919895526e-05,1.0,0.5611683130264282,0.9083333333333333
373,3.601143544074148e-05,1.0,0.5615737438201904,0.9083333333333333
374,3.582299541449174e-05,1.0,0.5619301795959473,0.9083333333333333
375,4.162469849688932e-05,1.0,0.562481164932251,0.9083333333333333
376,3.554976865416393e-05,1.0,0.5631489157676697,0.9083333333333333
377,3.304348501842469e-05,1.0,0.5637752413749695,0.9083333333333333
378,4.1088824218604714e-05,1.0,0.5643596053123474,0.9083333333333333
379,3.848614142043516e-05,1.0,0.5650705695152283,0.9083333333333333
380,3.245102197979577e-05,1.0,0.5656514763832092,0.9083333333333333
381,3.789801485254429e-05,1.0,0.5660896897315979,0.9083333333333333
382,3.413409285712987e-05,1.0,0.5665460228919983,0.9083333333333333
383,2.9716673452639952e-05,1.0,0.5668834447860718,0.9083333333333333
384,3.317447044537403e-05,1.0,0.5671533346176147,0.9083333333333333
385,3.552080670488067e-05,1.0,0.5674070119857788,0.9083333333333333
386,3.654863394331187e-05,1.0,0.5677291750907898,0.9083333333333333
387,3.318527524243109e-05,1.0,0.5679976344108582,0.9083333333333333
388,3.377761458978057e-05,1.0,0.5682333111763,0.9083333333333333
389,3.3199554309248924e-05,1.0,0.5683876276016235,0.9083333333333333
390,3.333410495542921e-05,1.0,0.5685076117515564,0.9083333333333333
391,2.99287166853901e-05,1.0,0.5686433911323547,0.9083333333333333
392,3.535061841830611e-05,1.0,0.5688238739967346,0.9083333333333333
393,3.663620009319857e-05,1.0,0.5690856575965881,0.9083333333333333
394,3.3526212064316496e-05,1.0,0.5693434476852417,0.9083333333333333
395,3.428057243581861e-05,1.0,0.5697063207626343,0.9083333333333333
396,3.400535570108332e-05,1.0,0.5700765252113342,0.9083333333333333
397,3.353323700139299e-05,1.0,0.5704204440116882,0.9083333333333333
398,2.561726068961434e-05,1.0,0.5706905722618103,0.9083333333333333
399,3.344960350659676e-05,1.0,0.5710161328315735,0.9083333333333333
400,3.189549897797406e-05,1.0,0.5712854862213135,0.9083333333333333
401,3.263632606831379e-05,1.0,0.5715624094009399,0.9083333333333333
402,3.0652230634586886e-05,1.0,0.5718942880630493,0.9083333333333333
403,3.354858927195892e-05,1.0,0.5722839832305908,0.9083333333333333
404,3.396126703592017e-05,1.0,0.5726721286773682,0.9083333333333333
405,3.167266913806088e-05,1.0,0.5729873776435852,0.9083333333333333
406,3.0118275390123017e-05,1.0,0.5732730627059937,0.9083333333333333
407,3.086326250922866e-05,1.0,0.5735275745391846,0.9083333333333333
408,2.9544880817411467e-05,1.0,0.5736993551254272,0.9083333333333333
409,3.2520052627660334e-05,1.0,0.5738058090209961,0.9083333333333333
410,3.1575757020618767e-05,1.0,0.573991596698761,0.9083333333333333
411,3.3086307666962966e-05,1.0,0.5741011500358582,0.9083333333333333
412,3.489330629236065e-05,1.0,0.5742648243904114,0.9083333333333333
413,3.57653116225265e-05,1.0,0.574457049369812,0.9083333333333333
414,3.318689050502144e-05,1.0,0.5747474431991577,0.9083333333333333
415,3.108257442363538e-05,1.0,0.5749725699424744,0.9083333333333333
416,3.346440280438401e-05,1.0,0.575503945350647,0.9083333333333333
417,3.38165664288681e-05,1.0,0.575957715511322,0.9083333333333333
418,3.168684634147212e-05,1.0,0.5762894153594971,0.9083333333333333
419,2.90954158117529e-05,1.0,0.5766183137893677,0.9083333333333333
420,2.725503327383194e-05,1.0,0.5768147110939026,0.9083333333333333
421,2.8636584829655476e-05,1.0,0.577004611492157,0.9083333333333333
422,2.873559424187988e-05,1.0,0.5771381855010986,0.9083333333333333
423,2.8050159016856924e-05,1.0,0.5772534608840942,0.9083333333333333
424,2.976420546474401e-05,1.0,0.5774797797203064,0.9083333333333333
425,3.0998806323623285e-05,1.0,0.5777149200439453,0.9083333333333333
426,3.356549859745428e-05,1.0,0.5778970718383789,0.9083333333333333
427,3.123853821307421e-05,1.0,0.5781060457229614,0.9083333333333333
428,2.8033327907905914e-05,1.0,0.5782985687255859,0.9083333333333333
429,3.3504511520732194e-05,1.0,0.5785927176475525,0.9083333333333333
430,2.9612685466418043e-05,1.0,0.5787570476531982,0.9083333333333333
431,2.882005355786532e-05,1.0,0.5789219737052917,0.9083333333333333
432,2.999694879690651e-05,1.0,0.5792741179466248,0.9083333333333333
433,3.180845669703558e-05,1.0,0.5796722769737244,0.9083333333333333
434,3.110754187218845e-05,1.0,0.5800264477729797,0.9083333333333333
435,2.690810833883006e-05,1.0,0.5803147554397583,0.9083333333333333
436,2.6958081434713677e-05,1.0,0.5805070996284485,0.9083333333333333
437,2.7632884666672908e-05,1.0,0.5806955099105835,0.9083333333333333
438,2.5121395083260722e-05,1.0,0.5809674859046936,0.9083333333333333
439,2.8032245609210804e-05,1.0,0.5811848044395447,0.9083333333333333
440,3.199290586053394e-05,1.0,0.5814472436904907,0.9083333333333333
441,2.434421367070172e-05,1.0,0.5816471576690674,0.9083333333333333
442,2.730274536588695e-05,1.0,0.5818447470664978,0.9083333333333333
443,3.269039370934479e-05,1.0,0.5819091200828552,0.9083333333333333
444,2.8014261260977946e-05,1.0,0.5819710493087769,0.9083333333333333
445,3.0704381060786545e-05,1.0,0.5819689631462097,0.9083333333333333
446,2.628123365866486e-05,1.0,0.5820083022117615,0.9083333333333333
447,2.5838971851044334e-05,1.0,0.5820803642272949,0.9083333333333333
448,3.289302549092099e-05,1.0,0.5824608206748962,0.9083333333333333
449,2.6662586606107652e-05,1.0,0.5827214121818542,0.9083333333333333
450,2.6526702640694566e-05,1.0,0.5829600691795349,0.9083333333333333
451,2.592477176222019e-05,1.0,0.5831567049026489,0.9083333333333333
452,2.711553497647401e-05,1.0,0.583236575126648,0.9083333333333333
453,2.8571008442668244e-05,1.0,0.5833379030227661,0.9083333333333333
454,2.460505311319139e-05,1.0,0.5833775401115417,0.9083333333333333
455,2.8075060981791466e-05,1.0,0.5835350751876831,0.9083333333333333
456,2.3861381123424508e-05,1.0,0.5837079882621765,0.9083333333333333
457,2.5191722670570016e-05,1.0,0.5839137434959412,0.9083333333333333
458,2.7400226827012375e-05,1.0,0.5841941833496094,0.9083333333333333
459,2.661132748471573e-05,1.0,0.5844892263412476,0.9083333333333333
460,2.8821328669437207e-05,1.0,0.5848776698112488,0.9083333333333333
461,2.6010526198660955e-05,1.0,0.5851702094078064,0.9083333333333333
462,2.656850847415626e-05,1.0,0.5853679180145264,0.9083333333333333
463,3.3764372346922755e-05,1.0,0.5857408046722412,0.9083333333333333
464,2.623114596644882e-05,1.0,0.5860931873321533,0.9083333333333333
465,2.7144085834152065e-05,1.0,0.5864443182945251,0.9083333333333333
466,2.6853400413529016e-05,1.0,0.5867615342140198,0.9083333333333333
467,2.7539692382561043e-05,1.0,0.5872309803962708,0.9083333333333333
468,2.4296483388752677e-05,1.0,0.5876145958900452,0.9083333333333333
469,2.389358814980369e-05,1.0,0.5880035758018494,0.9083333333333333
470,2.7656480597215705e-05,1.0,0.5884974002838135,0.9083333333333333
471,2.8514768928289413e-05,1.0,0.588816225528717,0.9083333333333333
472,2.8451717298594303e-05,1.0,0.5892648100852966,0.9083333333333333
473,2.6258274374413304e-05,1.0,0.5897321701049805,0.9083333333333333
474,2.82980236079311e-05,1.0,0.5901005864143372,0.9083333333333333
475,2.4386941731791012e-05,1.0,0.5903647541999817,0.9083333333333333
476,2.50295070145512e-05,1.0,0.5906071066856384,0.9083333333333333
477,2.9693477699765936e-05,1.0,0.5908610224723816,0.9083333333333333
478,2.898320963140577e-05,1.0,0.5911155343055725,0.9083333333333333
479,2.6451481971889734e-05,1.0,0.5912854671478271,0.9083333333333333
480,2.825020783348009e-05,1.0,0.5914137363433838,0.9083333333333333
481,2.2017349692760035e-05,1.0,0.591492772102356,0.8984867591424968
482,2.155004403903149e-05,1.0,0.5915667414665222,0.8984867591424968
483,2.959830999316182e-05,1.0,0.5917097926139832,0.8984867591424968
484,2.748732003965415e-05,1.0,0.5917638540267944,0.8984867591424968
485,2.5987928893300705e-05,1.0,0.5918158292770386,0.8984867591424968
486,2.442642107780557e-05,1.0,0.5918102860450745,0.8984867591424968
487,2.448111627018079e-05,1.0,0.5918115973472595,0.8984867591424968
488,2.3580025299452245e-05,1.0,0.5917912125587463,0.8984867591424968
489,2.2292721041594632e-05,1.0,0.5917323231697083,0.9083333333333333
490,2.219608722953126e-05,1.0,0.5917271971702576,0.9083333333333333
491,3.0220286134863272e-05,1.0,0.591985285282135,0.9083333333333333
492,2.4110524464049377e-05,1.0,0.5922058820724487,0.9083333333333333
493,2.2169979274622165e-05,1.0,0.5924103260040283,0.9083333333333333
494,2.5161845769616775e-05,1.0,0.5926764607429504,0.9083333333333333
495,2.451340878906194e-05,1.0,0.5930174589157104,0.9083333333333333
496,2.5395480406587012e-05,1.0,0.593231201171875,0.9083333333333333
497,2.4719607608858496e-05,1.0,0.5934126377105713,0.9083333333333333
498,2.6366942620370537e-05,1.0,0.5935619473457336,0.9083333333333333
499,2.353718264203053e-05,1.0,0.5937455892562866,0.9083333333333333
500,2.33403843594715e-05,1.0,0.5938698649406433,0.9083333333333333
501,2.579126157797873e-05,1.0,0.5940971374511719,0.9083333333333333
502,2.2440401153289713e-05,1.0,0.5943537950515747,0.9083333333333333
503,2.2013748093741015e-05,1.0,0.5946102142333984,0.9083333333333333
504,2.1943447791272774e-05,1.0,0.5948933959007263,0.9083333333333333
505,2.1616802769131027e-05,1.0,0.5951516032218933,0.9083333333333333
506,2.347157715121284e-05,1.0,0.5953850150108337,0.9083333333333333
507,2.195297747675795e-05,1.0,0.5956353545188904,0.9083333333333333
508,2.109944398398511e-05,1.0,0.5957884192466736,0.9083333333333333
509,2.2569223801838234e-05,1.0,0.5958769917488098,0.9083333333333333
510,2.3807757315807976e-05,1.0,0.5959779024124146,0.9083333333333333
511,2.3224842152558267e-05,1.0,0.5962334871292114,0.9083333333333333
512,2.3055543351802044e-05,1.0,0.5964335203170776,0.9083333333333333
513,2.072994175250642e-05,1.0,0.5965883731842041,0.9083333333333333
514,2.0670364392572083e-05,1.0,0.5966989994049072,0.9083333333333333
515,2.829790537361987e-05,1.0,0.596868097782135,0.9083333333333333
516,2.730859887378756e-05,1.0,0.5971559882164001,0.9083333333333333
517,2.2269854525802657e-05,1.0,0.5974113941192627,0.9083333333333333
518,2.2085234377300367e-05,1.0,0.5976132154464722,0.9083333333333333
519,2.044500070041977e-05,1.0,0.5977374315261841,0.9083333333333333
520,1.965464798558969e-05,1.0,0.5978760719299316,0.9083333333333333
521,1.9822822650894523e-05,1.0,0.5980008840560913,0.9083333333333333
522,1.9801338567049243e-05,1.0,0.5981191396713257,0.9083333333333333
523,2.4906570615712553e-05,1.0,0.598192036151886,0.9083333333333333
524,2.4050832507782616e-05,1.0,0.59840989112854,0.9083333333333333
525,2.0850307919317856e-05,1.0,0.5986065864562988,0.9083333333333333
526,2.0585703168762848e-05,1.0,0.5987995266914368,0.9083333333333333
527,2.363111707381904e-05,1.0,0.5990503430366516,0.9083333333333333
528,2.1350806491682306e-05,1.0,0.5991848707199097,0.9083333333333333
529,2.3185320969787426e-05,1.0,0.5992562770843506,0.9083333333333333
530,2.2907803213456646e-05,1.0,0.5993068814277649,0.9083333333333333
531,2.1165022189961746e-05,1.0,0.5993931293487549,0.9083333333333333
532,2.043437234533485e-05,1.0,0.5994280576705933,0.9083333333333333
533,2.148673593183048e-05,1.0,0.5995080471038818,0.9083333333333333
534,2.2618049115408212e-05,1.0,0.5996496677398682,0.9083333333333333
535,2.177049100282602e-05,1.0,0.5997538566589355,0.9083333333333333
536,2.4369086531805806e-05,1.0,0.5998738408088684,0.9083333333333333
537,2.1540467059821822e-05,1.0,0.6000892519950867,0.9083333333333333
538,2.3075890567270108e-05,1.0,0.6002405285835266,0.9083333333333333
539,2.1219904738245532e-05,1.0,0.6003963351249695,0.9083333333333333
540,2.0880153897451237e-05,1.0,0.6005369424819946,0.9083333333333333
541,2.2217516743694432e-05,1.0,0.6007177829742432,0.9083333333333333
542,2.3245087504619732e-05,1.0,0.6009595990180969,0.9083333333333333
543,1.98822672246024e-05,1.0,0.601238489151001,0.9083333333333333
544,2.120668978022877e-05,1.0,0.601615846157074,0.9083333333333333
545,2.047595990006812e-05,1.0,0.6020040512084961,0.9083333333333333
546,2.09183017432224e-05,1.0,0.6023690104484558,0.9083333333333333
547,1.9530756617314182e-05,1.0,0.6026540994644165,0.9083333333333333
548,1.787145265552681e-05,1.0,0.6029032468795776,0.9083333333333333
549,2.0193558157188818e-05,1.0,0.6031584739685059,0.9083333333333333
550,1.9938452169299126e-05,1.0,0.6033996343612671,0.9083333333333333
551,2.140699143637903e-05,1.0,0.6036680936813354,0.9083333333333333
552,2.133183807018213e-05,1.0,0.6038141846656799,0.9083333333333333
553,1.925186370499432e-05,1.0,0.6039586067199707,0.9083333333333333
554,2.1787180230603553e-05,1.0,0.6041650176048279,0.9083333333333333
555,2.1269921489874832e-05,1.0,0.6043844819068909,0.9083333333333333
556,1.9906221496057697e-05,1.0,0.6046364307403564,0.9083333333333333
557,1.9894298020517454e-05,1.0,0.6048671007156372,0.9083333333333333
558,1.878218972706236e-05,1.0,0.6050835847854614,0.9083333333333333
559,1.806219370337203e-05,1.0,0.6052976250648499,0.9083333333333333
560,2.032224256254267e-05,1.0,0.6054525375366211,0.9083333333333333
561,2.142963421647437e-05,1.0,0.6055974960327148,0.9083333333333333
562,2.1137549992999993e-05,1.0,0.6058046221733093,0.9083333333333333
563,1.9995588445453905e-05,1.0,0.6061092019081116,0.9083333333333333
564,1.9394727132748812e-05,1.0,0.606419563293457,0.9083333333333333
565,1.8006108803092502e-05,1.0,0.6066734790802002,0.9083333333333333
566,2.2029023966751993e-05,1.0,0.6069843769073486,0.9083333333333333
567,1.8492497474653646e-05,1.0,0.6072635054588318,0.9083333333333333
568,1.8882306903833523e-05,1.0,0.6075621843338013,0.9083333333333333
569,1.8867929611587897e-05,1.0,0.6077145338058472,0.9083333333333333
570,2.0644096366595477e-05,1.0,0.6078675985336304,0.9083333333333333
571,1.907541445689276e-05,1.0,0.6080567240715027,0.9083333333333333
572,1.727544076857157e-05,1.0,0.6082367300987244,0.9083333333333333
573,1.8106265997630544e-05,1.0,0.6084212064743042,0.9083333333333333
574,1.7948921595234424e-05,1.0,0.608576774597168,0.9083333333333333
575,2.461051190039143e-05,1.0,0.6089896559715271,0.9083333333333333
576,1.923859235830605e-05,1.0,0.6093934774398804,0.9083333333333333
577,1.7656919226283208e-05,1.0,0.6097356081008911,0.9083333333333333
578,1.9894274373655207e-05,1.0,0.6099843382835388,0.9083333333333333
579,1.9837105355691165e-05,1.0,0.610179603099823,0.9083333333333333
580,1.7169324564747512e-05,1.0,0.6103283762931824,0.9083333333333333
581,1.5301400708267465e-05,1.0,0.6104374527931213,0.9083333333333333
582,1.8636586901266128e-05,1.0,0.6106104850769043,0.9083333333333333
583,1.5964158592396416e-05,1.0,0.61076420545578,0.9083333333333333
584,1.6597157809883356e-05,1.0,0.6108558773994446,0.9083333333333333
585,1.8162345440941863e-05,1.0,0.6109327673912048,0.9083333333333333
586,2.056180892395787e-05,1.0,0.6109944581985474,0.9083333333333333
587,1.64124012371758e-05,1.0,0.6110542416572571,0.9083333333333333
588,1.730285475787241e-05,1.0,0.611139714717865,0.9083333333333333
589,1.8672397345653735e-05,1.0,0.6112638711929321,0.9083333333333333
590,1.65328001457965e-05,1.0,0.611373782157898,0.9083333333333333
591,1.7668828149908222e-05,1.0,0.6114468574523926,0.9083333333333333
592,2.0783552827197127e-05,1.0,0.6115010976791382,0.9083333333333333
593,1.798706580302678e-05,1.0,0.6116062998771667,0.9083333333333333
594,2.0620123905246146e-05,1.0,0.6117572784423828,0.8984867591424968
595,1.7301656043855473e-05,1.0,0.6118963360786438,0.8984867591424968
596,1.6842597688082606e-05,1.0,0.6122266054153442,0.8984867591424968
597,1.8705879483604804e-05,1.0,0.6125296950340271,0.8984867591424968
598,1.959859764610883e-05,1.0,0.61281418800354,0.8984867591424968
599,1.7288535673287697e-05,1.0,0.61301589012146,0.8984867591424968
600,1.8683211237657815e-05,1.0,0.6132091283798218,0.8984867591424968
601,1.6752095689298585e-05,1.0,0.6134277582168579,0.8984867591424968
602,1.547903048049193e-05,1.0,0.6136131286621094,0.8984867591424968
603,1.5605373846483417e-05,1.0,0.6137242913246155,0.8984867591424968
604,1.682360380073078e-05,1.0,0.6138052344322205,0.8984867591424968
605,1.88344838534249e-05,1.0,0.6139827966690063,0.8984867591424968
606,1.7370770365232602e-05,1.0,0.6141207814216614,0.8984867591424968
607,1.978808722924441e-05,1.0,0.6142877340316772,0.8984867591424968
608,1.7946540538105182e-05,1.0,0.6144448518753052,0.8984867591424968
609,1.8029984858003445e-05,1.0,0.6145322918891907,0.8984867591424968
610,1.7942895283340476e-05,1.0,0.6145906448364258,0.8984867591424968
611,1.536099262011703e-05,1.0,0.6146101951599121,0.8984867591424968
612,1.5165509466896765e-05,1.0,0.6146036386489868,0.8984867591424968
613,1.5828209143364802e-05,1.0,0.6146547198295593,0.8984867591424968
614,1.6382537069148384e-05,1.0,0.6146383881568909,0.8984867591424968
615,1.878686271084007e-05,1.0,0.6147482395172119,0.8984867591424968
616,1.84721593541326e-05,1.0,0.6148579120635986,0.8984867591424968
617,1.5595860531902872e-05,1.0,0.6149691939353943,0.8984867591424968
618,1.673424594628159e-05,1.0,0.6151719093322754,0.8984867591424968
619,1.686295036051888e-05,1.0,0.6153407692909241,0.8984867591424968
620,1.6140576917678118e-05,1.0,0.6155878901481628,0.8984867591424968
621,1.747083842928987e-05,1.0,0.6157597899436951,0.8984867591424968
622,1.4500352335744537e-05,1.0,0.6159033179283142,0.8984867591424968
623,1.5850962881813757e-05,1.0,0.6159960627555847,0.8984867591424968
624,1.703940324659925e-05,1.0,0.6161633133888245,0.8984867591424968
625,1.672590042289812e-05,1.0,0.6162896752357483,0.8984867591424968
626,1.5567216905765235e-05,1.0,0.616457998752594,0.8984867591424968
627,1.3763672541244887e-05,1.0,0.6166239976882935,0.8984867591424968
628,1.5700732546974905e-05,1.0,0.6168243885040283,0.8984867591424968
629,1.58235397975659e-05,1.0,0.6170052289962769,0.8984867591424968
630,1.867844366643112e-05,1.0,0.6171345114707947,0.8984867591424968
631,1.5459965652553365e-05,1.0,0.6172794699668884,0.9083333333333333
632,1.7888136426336132e-05,1.0,0.6175052523612976,0.9083333333333333
633,1.7283762645092793e-05,1.0,0.6178246736526489,0.9083333333333333
634,1.477928708482068e-05,1.0,0.6180590391159058,0.9083333333333333
635,1.851632259786129e-05,1.0,0.6182764172554016,0.9083333333333333
636,1.6311016224790365e-05,1.0,0.6183902025222778,0.9083333333333333
637,1.648622492211871e-05,1.0,0.618448793888092,0.9083333333333333
638,1.5935558622004464e-05,1.0,0.6184769868850708,0.9083333333333333
639,1.58795592142269e-05,1.0,0.6185196042060852,0.9083333333333333
640,1.5539777450612746e-05,1.0,0.6185672879219055,0.9083333333333333
641,1.3081806173431687e-05,1.0,0.618617057800293,0.9083333333333333
642,1.7431617379770614e-05,1.0,0.6187873482704163,0.9083333333333333
643,1.8227830878458917e-05,1.0,0.6189963817596436,0.9083333333333333
644,1.53908331412822e-05,1.0,0.6192253828048706,0.9083333333333333
645,1.786875509424135e-05,1.0,0.619571328163147,0.9083333333333333
646,1.55981833813712e-05,1.0,0.6198390126228333,0.9083333333333333
647,1.8078730136039667e-05,1.0,0.6201662421226501,0.9083333333333333
648,1.488893303758232e-05,1.0,0.6204346418380737,0.9083333333333333
649,1.587357110111043e-05,1.0,0.620718777179718,0.9083333333333333
650,1.4686326721857768e-05,1.0,0.6210242509841919,0.9083333333333333
651,1.7830903743742965e-05,1.0,0.6213774085044861,0.9083333333333333
652,1.2948326912010089e-05,1.0,0.621690034866333,0.9083333333333333
653,1.5568421076750383e-05,1.0,0.6219677925109863,0.9083333333333333
654,1.4227388419385534e-05,1.0,0.6221779584884644,0.9083333333333333
655,1.621804403839633e-05,1.0,0.6224273443222046,0.9083333333333333
656,1.604522913112305e-05,1.0,0.6226483583450317,0.9083333333333333
657,1.37255128720426e-05,1.0,0.6228426098823547,0.9083333333333333
658,1.4604091120418161e-05,1.0,0.623054027557373,0.9083333333333333
659,1.7712900444166735e-05,1.0,0.623194694519043,0.9083333333333333
660,1.4255969290388748e-05,1.0,0.6232574582099915,0.9083333333333333
661,1.6970250726444647e-05,1.0,0.6232712268829346,0.9083333333333333
662,1.5940333469188772e-05,1.0,0.6233231425285339,0.9083333333333333
663,1.6547044651815668e-05,1.0,0.6233792304992676,0.9083333333333333
664,1.7114414731622674e-05,1.0,0.6234543919563293,0.9083333333333333
665,1.4410957192012575e-05,1.0,0.6235524415969849,0.9083333333333333
666,1.5291872841771692e-05,1.0,0.6236105561256409,0.9083333333333333
667,1.510472793597728e-05,1.0,0.6236650943756104,0.9083333333333333
668,1.5042719496705104e-05,1.0,0.623822033405304,0.9083333333333333
669,1.3224832400737796e-05,1.0,0.6239360570907593,0.9083333333333333
670,1.73849275597604e-05,1.0,0.6240519285202026,0.9083333333333333
671,1.6087911717477255e-05,1.0,0.624221682548523,0.9083333333333333
672,1.4308424397313502e-05,1.0,0.6244292855262756,0.9083333333333333
673,1.5672088920837268e-05,1.0,0.6246974468231201,0.9083333333333333
674,1.721564694889821e-05,1.0,0.6250733733177185,0.9083333333333333
675,1.3171214050089475e-05,1.0,0.6254040598869324,0.9083333333333333
676,1.3348837455851026e-05,1.0,0.6257185339927673,0.9083333333333333
677,1.3854280041414313e-05,1.0,0.6260088086128235,0.9083333333333333
678,1.611667721590493e-05,1.0,0.6264371871948242,0.9083333333333333
679,1.45587628139765e-05,1.0,0.6268231868743896,0.9083333333333333
680,1.5855675883358344e-05,1.0,0.6271430253982544,0.9083333333333333
681,1.2527527360362e-05,1.0,0.6274253129959106,0.9083333333333333
682,1.45563517435221e-05,1.0,0.6277056336402893,0.9083333333333333
683,1.30949456433882e-05,1.0,0.6279529929161072,0.9083333333333333
684,1.5326409993576817e-05,1.0,0.6281665563583374,0.9083333333333333
685,1.4070051292947028e-05,1.0,0.6283870935440063,0.9083333333333333
686,1.4942546840757132e-05,1.0,0.6285941004753113,0.9083333333333333
687,1.49520719787688e-05,1.0,0.6287878155708313,0.9083333333333333
688,1.3072299225314055e-05,1.0,0.6289320588111877,0.9083333333333333
689,1.5805568182258867e-05,1.0,0.6290266513824463,0.9083333333333333
690,1.558744588692207e-05,1.0,0.6292195916175842,0.9083333333333333
691,1.3956771908851806e-05,1.0,0.6293643116950989,0.9083333333333333
692,1.4458642908721231e-05,1.0,0.6295779347419739,0.9083333333333333
693,1.4351336176332552e-05,1.0,0.6298349499702454,0.9083333333333333
694,1.6597105059190653e-05,1.0,0.6301648020744324,0.9083333333333333
695,1.5126189282455016e-05,1.0,0.6304710507392883,0.9083333333333333
696,1.5414669178426266e-05,1.0,0.6307670474052429,0.9083333333333333
697,1.3977049093227834e-05,1.0,0.6310367584228516,0.9083333333333333
698,1.530733788968064e-05,1.0,0.6312920451164246,0.9083333333333333
699,1.3000758372072596e-05,1.0,0.6314625144004822,0.9083333333333333
700,1.2435712960723322e-05,1.0,0.6315866112709045,0.9083333333333333
701,1.3780347217107192e-05,1.0,0.6317253708839417,0.9083333333333333
702,1.375533338432433e-05,1.0,0.6317639946937561,0.9083333333333333
703,1.3031749404035509e-05,1.0,0.631787121295929,0.9083333333333333
704,1.32510995172197e-05,1.0,0.6318004727363586,0.9083333333333333
705,1.4402554370462894e-05,1.0,0.6318079233169556,0.9083333333333333
706,1.5029525457066484e-05,1.0,0.6318029165267944,0.9083333333333333
707,1.4650498997070827e-05,1.0,0.6317602396011353,0.9083333333333333
708,1.3866178960597608e-05,1.0,0.6317311525344849,0.9083333333333333
709,1.4834124158369377e-05,1.0,0.6316925883293152,0.9083333333333333
710,1.399131906509865e-05,1.0,0.6316941976547241,0.9083333333333333
711,1.4811463188380003e-05,1.0,0.6317168474197388,0.9083333333333333
712,1.5734067346784286e-05,1.0,0.6318897604942322,0.9083333333333333
713,1.3073437912680674e-05,1.0,0.63203364610672,0.9083333333333333
714,1.2948308722116053e-05,1.0,0.6322084665298462,0.9083333333333333
715,1.5725714547443204e-05,1.0,0.632461428642273,0.9083333333333333
716,1.4251198081183247e-05,1.0,0.6326671242713928,0.9083333333333333
717,1.3547897651733365e-05,1.0,0.6329416632652283,0.9083333333333333
718,1.1046980034734588e-05,1.0,0.6331418752670288,0.9083333333333333
719,1.4373958947544452e-05,1.0,0.6332954168319702,0.9083333333333333
720,1.3817305443808436e-05,1.0,0.6334248185157776,0.9083333333333333
721,1.4375144928635564e-05,1.0,0.6336092352867126,0.9083333333333333
722,1.278379113500705e-05,1.0,0.6338033676147461,0.9083333333333333
723,1.3175979802326765e-05,1.0,0.6339589357376099,0.9083333333333333
724,1.144989346357761e-05,1.0,0.6340991258621216,0.9083333333333333
725,1.0912258403550368e-05,1.0,0.6342177391052246,0.9083333333333333
726,1.2835057532356586e-05,1.0,0.6342917680740356,0.9083333333333333
727,1.4923454727977514e-05,1.0,0.63438880443573,0.9083333333333333
728,1.4006752280693036e-05,1.0,0.6344743967056274,0.9083333333333333
729,1.4285752513387706e-05,1.0,0.6345813870429993,0.9083333333333333
730,1.2073342077201232e-05,1.0,0.6346849203109741,0.9083333333333333
731,1.3433461390377488e-05,1.0,0.6347797513008118,0.9083333333333333
732,1.3967477570986375e-05,1.0,0.6349207758903503,0.9083333333333333
733,1.5072347196110059e-05,1.0,0.6351938247680664,0.9083333333333333
734,1.288629209739156e-05,1.0,0.6354522109031677,0.9083333333333333
735,1.257517851627199e-05,1.0,0.6356329917907715,0.9083333333333333
736,1.2782595149474218e-05,1.0,0.6358875036239624,0.9083333333333333
737,1.2876766049885191e-05,1.0,0.6361818909645081,0.9083333333333333
738,1.3003123967791907e-05,1.0,0.6365322470664978,0.9083333333333333
739,1.1398647984606214e-05,1.0,0.6368476152420044,0.9083333333333333
740,1.2486973901104648e-05,1.0,0.6370689868927002,0.9083333333333333
741,1.2522747056209482e-05,1.0,0.6372330188751221,0.9083333333333333
742,1.5170131518971175e-05,1.0,0.6374015808105469,0.9083333333333333
743,1.5135717148950789e-05,1.0,0.6375985145568848,0.9083333333333333
744,1.1439157788117882e-05,1.0,0.6377758383750916,0.9083333333333333
745,1.2984069144295063e-05,1.0,0.6379677057266235,0.9083333333333333
746,1.2546555808512494e-05,1.0,0.6381106972694397,0.9083333333333333
747,1.4209458640834782e-05,1.0,0.6383045315742493,0.9083333333333333
748,1.2444050298654474e-05,1.0,0.638415515422821,0.9083333333333333
749,1.3320222933543846e-05,1.0,0.6385388970375061,0.9083333333333333
750,1.2565643373818602e-05,1.0,0.6386831998825073,0.9083333333333333
751,1.2601376511156559e-05,1.0,0.6388405561447144,0.9083333333333333
752,1.1440366506576538e-05,1.0,0.6389583945274353,0.9083333333333333
753,1.1644180631265044e-05,1.0,0.6390912532806396,0.9083333333333333
754,1.233559669344686e-05,1.0,0.6392128467559814,0.9083333333333333
755,1.1519023246364668e-05,1.0,0.6392790675163269,0.9083333333333333
756,1.2559678907564376e-05,1.0,0.6392899751663208,0.9083333333333333
757,1.2297432476771064e-05,1.0,0.6392602324485779,0.9083333333333333
758,1.3060348464932758e-05,1.0,0.639305830001831,0.9083333333333333
759,1.115902796300361e-05,1.0,0.6392931342124939,0.9083333333333333
760,1.2844549019064289e-05,1.0,0.6392956972122192,0.9083333333333333
761,1.276951479667332e-05,1.0,0.6392567753791809,0.9083333333333333
762,1.2018504094157834e-05,1.0,0.6392126679420471,0.9083333333333333
763,1.2645487004192546e-05,1.0,0.6391404867172241,0.9083333333333333
764,1.1570295100682415e-05,1.0,0.6391124725341797,0.9083333333333333
765,1.3341656995180529e-05,1.0,0.6390998959541321,0.9083333333333333
766,1.2838616385124624e-05,1.0,0.6391164660453796,0.9083333333333333
767,1.384830738970777e-05,1.0,0.6391750574111938,0.9083333333333333
768,1.2626403986359946e-05,1.0,0.6393560767173767,0.9083333333333333
769,1.0024165021604858e-05,1.0,0.6394991874694824,0.9083333333333333
770,1.0526045116421301e-05,1.0,0.6396377682685852,0.9083333333333333
771,1.2459508070605807e-05,1.0,0.6398756504058838,0.9083333333333333
772,1.1260348401265219e-05,1.0,0.6401083469390869,0.9083333333333333
773,1.131875797000248e-05,1.0,0.6403272747993469,0.9083333333333333
774,1.1552376236068085e-05,1.0,0.6405850052833557,0.9083333333333333
775,1.2709906513919123e-05,1.0,0.6408818960189819,0.9083333333333333
776,1.2216353752592113e-05,1.0,0.641235888004303,0.9083333333333333
777,1.2510826309153344e-05,1.0,0.6415095329284668,0.9083333333333333
778,1.1813474884547759e-05,1.0,0.6417784690856934,0.9083333333333333
779,1.3140205737727229e-05,1.0,0.6420348286628723,0.9083333333333333
780,1.0732255759648979e-05,1.0,0.6421952843666077,0.9083333333333333
781,1.2063800568284933e-05,1.0,0.6422959566116333,0.9083333333333333
782,1.1211493983864784e-05,1.0,0.6423954367637634,0.9083333333333333
783,1.0466441381140612e-05,1.0,0.6424751281738281,0.9083333333333333
784,1.1075558177253697e-05,1.0,0.6426092982292175,0.9083333333333333
785,1.2368969692033716e-05,1.0,0.6427627205848694,0.9083333333333333
786,1.0791872227855492e-05,1.0,0.6428506374359131,0.9083333333333333
787,1.426071048626909e-05,1.0,0.6429569125175476,0.9083333333333333
788,1.0385370842413977e-05,1.0,0.6430373787879944,0.9083333333333333
789,1.2298597539484035e-05,1.0,0.6430222392082214,0.9083333333333333
790,1.1275850738456938e-05,1.0,0.6430399417877197,0.9083333333333333
791,1.1000467566191219e-05,1.0,0.6430451273918152,0.9083333333333333
792,1.1459396773716435e-05,1.0,0.6430628895759583,0.9083333333333333
793,1.1741956768673845e-05,1.0,0.6430626511573792,0.9083333333333333
794,1.1774105587392114e-05,1.0,0.64310622215271,0.9083333333333333
795,1.0491465218365192e-05,1.0,0.6431231498718262,0.9083333333333333
796,1.063330546458019e-05,1.0,0.643173098564148,0.9083333333333333
797,1.0963534805341624e-05,1.0,0.6432159543037415,0.9083333333333333
798,9.95743084786227e-06,1.0,0.6432926058769226,0.9083333333333333
799,1.1149506462970749e-05,1.0,0.6433477401733398,0.9083333333333333
800,1.253345726581756e-05,1.0,0.6434309482574463,0.9083333333333333
801,1.2302177310630213e-05,1.0,0.6435059309005737,0.9083333333333333
802,1.0742984159151092e-05,1.0,0.6436452269554138,0.9083333333333333
803,9.894251888908911e-06,1.0,0.64377361536026,0.9083333333333333
804,1.2316505490161944e-05,1.0,0.6440403461456299,0.9083333333333333
805,1.0163661499973387e-05,1.0,0.6443204879760742,0.9083333333333333
806,1.0053997357317712e-05,1.0,0.6445828080177307,0.9083333333333333
807,1.2103123481210787e-05,1.0,0.6448367238044739,0.9083333333333333
808,1.2326035175647121e-05,1.0,0.6450715661048889,0.9083333333333333
809,1.3246288290247321e-05,1.0,0.6452376246452332,0.9083333333333333
810,1.1461812391644344e-05,1.0,0.6453792452812195,0.9083333333333333
811,9.022853191709146e-06,1.0,0.6454993486404419,0.9083333333333333
812,1.113753933168482e-05,1.0,0.6456762552261353,0.9083333333333333
813,1.09992779471213e-05,1.0,0.6458236575126648,0.9083333333333333
814,1.1153013474540785e-05,1.0,0.6459975838661194,0.9083333333333333
815,1.1876600183313712e-05,1.0,0.6461212635040283,0.9083333333333333
816,1.0396101970400196e-05,1.0,0.646262526512146,0.9083333333333333
817,1.0695301170926541e-05,1.0,0.6463962197303772,0.9083333333333333
818,1.0343666872358881e-05,1.0,0.646563708782196,0.9083333333333333
819,1.1839624676213134e-05,1.0,0.6468635201454163,0.9083333333333333
820,1.0611880497890525e-05,1.0,0.6470748782157898,0.9083333333333333
821,1.1693072337948252e-05,1.0,0.6472982168197632,0.9083333333333333
822,1.0536780791881029e-05,1.0,0.6475149989128113,0.9083333333333333
823,1.0332923920941539e-05,1.0,0.6477113366127014,0.9083333333333333
824,1.0094521712744609e-05,1.0,0.6479021906852722,0.9083333333333333
825,1.1210264347027987e-05,1.0,0.6480734348297119,0.9083333333333333
826,9.181401765090413e-06,1.0,0.6482511758804321,0.9083333333333333
827,1.0239948096568696e-05,1.0,0.64836585521698,0.9083333333333333
828,1.0942083463305607e-05,1.0,0.648453414440155,0.9083333333333333
829,1.1005231499439105e-05,1.0,0.6485242247581482,0.9083333333333333
830,9.667772246757522e-06,1.0,0.6485910415649414,0.9083333333333333
831,1.0474773262103554e-05,1.0,0.6486783623695374,0.9083333333333333
832,1.094800427381415e-05,1.0,0.6488049030303955,0.9083333333333333
833,1.1720478141796775e-05,1.0,0.6489875912666321,0.9083333333333333
834,1.0129070687980857e-05,1.0,0.6491270065307617,0.9083333333333333
835,1.1046984582208097e-05,1.0,0.6493217349052429,0.9083333333333333
836,1.0136230230273213e-05,1.0,0.6495041251182556,0.9083333333333333
837,1.0679820661607664e-05,1.0,0.6496997475624084,0.9083333333333333
838,1.060352678905474e-05,1.0,0.6499200463294983,0.9083333333333333
839,1.1999418347841129e-05,1.0,0.6501632332801819,0.9083333333333333
840,1.1048146916436963e-05,1.0,0.6503738164901733,0.9083333333333333
841,9.946701538865454e-06,1.0,0.6505276560783386,0.9083333333333333
842,9.661803233029786e-06,1.0,0.6506247520446777,0.9083333333333333
843,1.0355556696595158e-05,1.0,0.6506795883178711,0.9083333333333333
844,9.428151315660216e-06,1.0,0.6506982445716858,0.9083333333333333
845,9.819135811994784e-06,1.0,0.650687575340271,0.9083333333333333
846,1.2117438927816693e-05,1.0,0.6507591605186462,0.9083333333333333
847,9.982469237002078e-06,1.0,0.650827169418335,0.9083333333333333
848,1.022803371597547e-05,1.0,0.6509132385253906,0.9083333333333333
849,1.188975693366956e-05,1.0,0.6510762572288513,0.9083333333333333
850,1.0236355592496693e-05,1.0,0.6512081623077393,0.9083333333333333
851,9.457953638047911e-06,1.0,0.6513285040855408,0.9083333333333333
852,1.0642865163390525e-05,1.0,0.6514524221420288,0.9083333333333333
853,1.0489085070730653e-05,1.0,0.651548445224762,0.9083333333333333
854,9.142055205302313e-06,1.0,0.6516843438148499,0.9083333333333333
855,1.2921911547891796e-05,1.0,0.6518876552581787,0.9083333333333333
856,1.0309093340765685e-05,1.0,0.652091383934021,0.9083333333333333
857,1.0558227586443536e-05,1.0,0.6522703170776367,0.9083333333333333
858,1.017080921883462e-05,1.0,0.6524052023887634,0.9083333333333333
859,9.965691788238473e-06,1.0,0.6525605916976929,0.9083333333333333
860,1.031384090310894e-05,1.0,0.6527289152145386,0.9083333333333333
861,1.0756104529718868e-05,1.0,0.652898907661438,0.9083333333333333
862,1.0357972314523067e-05,1.0,0.6529906988143921,0.9083333333333333
863,1.0949202078336384e-05,1.0,0.6531726121902466,0.9083333333333333
864,1.1112530046375468e-05,1.0,0.6533176898956299,0.9083333333333333
865,9.236237929144409e-06,1.0,0.6534885764122009,0.9083333333333333
866,9.707092431199271e-06,1.0,0.6536274552345276,0.9083333333333333
867,9.993193089030683e-06,1.0,0.6537244319915771,0.9083333333333333
868,1.1658492439892143e-05,1.0,0.6538220643997192,0.9083333333333333
869,1.0533189197303727e-05,1.0,0.6539279222488403,0.9083333333333333
870,8.898888154362794e-06,1.0,0.654039204120636,0.9083333333333333
871,9.851327376964036e-06,1.0,0.6540746688842773,0.9083333333333333
872,1.049384445650503e-05,1.0,0.6541192531585693,0.9083333333333333
873,8.621125743957236e-06,1.0,0.6541423797607422,0.9083333333333333
874,1.0375827514508273e-05,1.0,0.6541708111763,0.9083333333333333
875,1.0210145774181001e-05,1.0,0.6542553305625916,0.9083333333333333
876,1.1883710612892173e-05,1.0,0.6544157266616821,0.9083333333333333
877,9.066958227776922e-06,1.0,0.6545683741569519,0.9083333333333333
878,9.667758604336996e-06,1.0,0.6547753214836121,0.9083333333333333
879,1.3457145541906357e-05,1.0,0.6551980972290039,0.9083333333333333
880,9.34352010517614e-06,1.0,0.6555449366569519,0.9083333333333333
881,1.0505764294066466e-05,1.0,0.6558413505554199,0.9083333333333333
882,9.720199159346521e-06,1.0,0.6561617851257324,0.9083333333333333
883,1.0272136933053844e-05,1.0,0.6564213633537292,0.9083333333333333
884,9.459146895096637e-06,1.0,0.6566327810287476,0.9083333333333333
885,9.754772690939717e-06,1.0,0.6568840742111206,0.9083333333333333
886,8.25993083708454e-06,1.0,0.6570881605148315,0.9083333333333333
887,1.1953987268498167e-05,1.0,0.6575767993927002,0.9083333333333333
888,9.425755706615746e-06,1.0,0.6579461693763733,0.9083333333333333
889,1.0036095773102716e-05,1.0,0.6582638621330261,0.9083333333333333
890,9.454376595385838e-06,1.0,0.6585075259208679,0.9083333333333333
891,8.392251402256079e-06,1.0,0.6586754322052002,0.9083333333333333
892,9.829874215938617e-06,1.0,0.658795177936554,0.9083333333333333
893,1.1504704161779955e-05,1.0,0.6590077877044678,0.9083333333333333
894,9.829873306443915e-06,1.0,0.6591830849647522,0.9083333333333333
895,9.946683348971419e-06,1.0,0.6594405770301819,0.9083333333333333
896,9.637942639528774e-06,1.0,0.6597112417221069,0.9083333333333333
897,8.98232428880874e-06,1.0,0.6599216461181641,0.9083333333333333
898,9.285094165534247e-06,1.0,0.6601607203483582,0.9083333333333333
899,9.344706995761953e-06,1.0,0.6603730916976929,0.9083333333333333
900,8.641378371976316e-06,1.0,0.6605064868927002,0.9083333333333333
901,8.510267434758134e-06,1.0,0.6606047749519348,0.9083333333333333
902,9.313713235314935e-06,1.0,0.6606438159942627,0.9083333333333333
903,1.040443021338433e-05,1.0,0.6605497598648071,0.9083333333333333
904,9.801243322726805e-06,1.0,0.6604335904121399,0.9083333333333333
905,9.099136150325648e-06,1.0,0.6602841019630432,0.9083333333333333
906,8.292118764074985e-06,1.0,0.6601638793945312,0.9083333333333333
907,8.054897989495657e-06,1.0,0.6600154042243958,0.9083333333333333
908,1.0598763765301555e-05,1.0,0.659893274307251,0.9083333333333333
909,8.956081728683785e-06,1.0,0.6598514318466187,0.9083333333333333
910,8.82852964423364e-06,1.0,0.6597906351089478,0.9083333333333333
911,9.871583642961923e-06,1.0,0.6597646474838257,0.9083333333333333
912,8.716480806469917e-06,1.0,0.659759521484375,0.9083333333333333
913,9.286295608035289e-06,1.0,0.6597127914428711,0.9083333333333333
914,9.38881748879794e-06,1.0,0.6596595644950867,0.9083333333333333
915,9.758343367138878e-06,1.0,0.6596101522445679,0.9083333333333333
916,1.0629727512423415e-05,1.0,0.6595602035522461,0.9083333333333333
917,9.0395533334231e-06,1.0,0.6595067977905273,0.9083333333333333
918,1.0285233656759374e-05,1.0,0.6595614552497864,0.9083333333333333
919,9.612920621293597e-06,1.0,0.6596233248710632,0.9083333333333333
920,9.641516953706741e-06,1.0,0.6596497297286987,0.9083333333333333
921,1.0363915862399153e-05,1.0,0.659706175327301,0.9083333333333333
922,1.0105221917910967e-05,1.0,0.6597785949707031,0.9083333333333333
923,8.203888683055993e-06,1.0,0.659862756729126,0.9083333333333333
924,8.51264576340327e-06,1.0,0.6599637269973755,0.9083333333333333
925,8.830924343783408e-06,1.0,0.6600524187088013,0.9083333333333333
926,9.282696737500373e-06,1.0,0.660150945186615,0.9083333333333333
927,9.149217476078775e-06,1.0,0.6602862477302551,0.9083333333333333
928,9.475833394390065e-06,1.0,0.660452127456665,0.9083333333333333
929,9.584307008481119e-06,1.0,0.6606314182281494,0.9083333333333333
930,9.245771252608392e-06,1.0,0.660757839679718,0.9083333333333333
931,9.570012480253354e-06,1.0,0.6608737111091614,0.9083333333333333
932,8.617548701295163e-06,1.0,0.6610146164894104,0.9083333333333333
933,8.934634934121277e-06,1.0,0.66111159324646,0.9083333333333333
934,8.46258262754418e-06,1.0,0.6611940860748291,0.9083333333333333
935,9.631992725189775e-06,1.0,0.6613312363624573,0.9083333333333333
936,7.991718121047597e-06,1.0,0.6614359617233276,0.9083333333333333
937,8.802319825917948e-06,1.0,0.6615299582481384,0.9083333333333333
938,9.523521839582827e-06,1.0,0.6616202592849731,0.9083333333333333
939,8.799934221315198e-06,1.0,0.6617277264595032,0.9083333333333333
940,9.039533324539661e-06,1.0,0.6618298292160034,0.9083333333333333
941,8.655697456561029e-06,1.0,0.6619225740432739,0.9083333333333333
942,8.687866284162737e-06,1.0,0.6619561910629272,0.9083333333333333
943,8.739137228985783e-06,1.0,0.6619646549224854,0.9083333333333333
944,7.941645890241489e-06,1.0,0.6620587706565857,0.9083333333333333
945,8.221783900808077e-06,1.0,0.6621814370155334,0.9083333333333333
946,8.523373253410682e-06,1.0,0.662303626537323,0.9083333333333333
947,9.23027801036369e-06,1.0,0.6624333262443542,0.9083333333333333
948,8.20151672087377e-06,1.0,0.6625489592552185,0.9083333333333333
949,8.86668567545712e-06,1.0,0.6626673936843872,0.9083333333333333
950,7.438593911501812e-06,1.0,0.6627415418624878,0.9083333333333333
951,9.130118996836245e-06,1.0,0.662897527217865,0.9083333333333333
952,7.74255022406578e-06,1.0,0.6630516052246094,0.9083333333333333
953,9.07529829419218e-06,1.0,0.6632407307624817,0.9083333333333333
954,7.902306606411003e-06,1.0,0.6634208559989929,0.9083333333333333
955,8.150244866556022e-06,1.0,0.6635701656341553,0.9083333333333333
956,9.829862392507493e-06,1.0,0.6637539267539978,0.9083333333333333
957,7.902312063379213e-06,1.0,0.6639447808265686,0.9083333333333333
958,7.352760803769343e-06,1.0,0.6641329526901245,0.9083333333333333
959,8.771335160417948e-06,1.0,0.6642873287200928,0.9083333333333333
960,8.299264663946815e-06,1.0,0.6644052863121033,0.9083333333333333
961,8.605626135249622e-06,1.0,0.6645448207855225,0.9083333333333333
962,7.954759894346353e-06,1.0,0.6646500825881958,0.9083333333333333
963,8.813032764010131e-06,1.0,0.6647447943687439,0.9083333333333333
964,7.259784524649149e-06,1.0,0.6648759841918945,0.9083333333333333
965,1.0595136700430885e-05,1.0,0.6651753783226013,0.9083333333333333
966,9.264802429242991e-06,1.0,0.6653938293457031,0.9083333333333333
967,8.155026080203243e-06,1.0,0.6655749082565308,0.9083333333333333
968,8.836885172058828e-06,1.0,0.6657931208610535,0.9083333333333333
969,1.0844294592970982e-05,1.0,0.6660475134849548,0.9083333333333333
970,8.686683031555731e-06,1.0,0.6662487387657166,0.9083333333333333
971,9.156354281003587e-06,1.0,0.6664555072784424,0.9083333333333333
972,7.778332474117633e-06,1.0,0.6666178703308105,0.9083333333333333
973,8.542437171854544e-06,1.0,0.6668038964271545,0.9083333333333333
974,8.371972398890648e-06,1.0,0.6670334339141846,0.9083333333333333
975,7.384933724097209e-06,1.0,0.6672053337097168,0.9083333333333333
976,7.742572961433325e-06,1.0,0.6673492789268494,0.9083333333333333
977,9.652243534219451e-06,1.0,0.6674844026565552,0.9083333333333333
978,8.758212061366066e-06,1.0,0.6676560640335083,0.9083333333333333
979,8.193178473447915e-06,1.0,0.667827308177948,0.9083333333333333
980,9.434098501515109e-06,1.0,0.6680679321289062,0.9083333333333333
981,8.088250979199074e-06,1.0,0.6683748960494995,0.9083333333333333
982,8.664016604598146e-06,1.0,0.6687449216842651,0.9083333333333333
983,7.498181275877869e-06,1.0,0.6691117882728577,0.9083333333333333
984,9.031194167619105e-06,1.0,0.6693688631057739,0.9083333333333333
985,7.4862746259896085e-06,1.0,0.6695500612258911,0.9083333333333333
986,7.783109140291344e-06,1.0,0.6696929931640625,0.9083333333333333
987,8.516224625054747e-06,1.0,0.6698429584503174,0.9083333333333333
988,7.74257568991743e-06,1.0,0.6699823141098022,0.9083333333333333
989,7.1119616222858895e-06,1.0,0.670063316822052,0.9083333333333333
990,8.493570021528285e-06,1.0,0.6701107621192932,0.9083333333333333
991,8.362450898857787e-06,1.0,0.670126736164093,0.9083333333333333
992,8.407743735006079e-06,1.0,0.6701071858406067,0.9083333333333333
993,8.493573659507092e-06,1.0,0.6700693368911743,0.9083333333333333
994,8.474490641674493e-06,1.0,0.6700614094734192,0.9083333333333333
995,8.199131116271019e-06,1.0,0.670038640499115,0.9083333333333333
996,8.33740796224447e-06,1.0,0.6700711846351624,0.9083333333333333
997,7.750893928459845e-06,1.0,0.6701701879501343,0.9083333333333333
998,8.41130986373173e-06,1.0,0.6702251434326172,0.9083333333333333
999,8.550773600290995e-06,1.0,0.670224666595459,0.9083333333333333
