,loss,recall,val_loss,val_recall
0,0.5592426061630249,0.6527056277056278,0.6640220284461975,0.3125
1,0.3861350417137146,0.8062564419707277,0.643742561340332,0.7083487940630798
2,0.28773340582847595,0.8742630385487529,0.6932232975959778,0.6584046905475477
3,0.2338424026966095,0.9071969696969697,0.9504680633544922,0.6384615384615385
4,0.17031534016132355,0.9135745207173779,2.476367235183716,0.1875
5,0.14867757260799408,0.9254792826221397,1.2716370820999146,0.6306122448979591
6,0.13811983168125153,0.9363017934446506,0.39404281973838806,0.872623408337694
7,0.16207464039325714,0.9375,1.0311341285705566,0.619642857142857
8,0.1101255863904953,0.9571428571428572,0.4821743071079254,0.8873015873015874
9,0.09823618829250336,0.9577922077922078,0.6102645993232727,0.7492798867798868
10,0.05771810933947563,1.0,0.30908092856407166,0.874885828457257
11,0.038812439888715744,1.0,0.3039720952510834,0.8916666666666666
12,0.0301749836653471,1.0,0.36169105768203735,0.8916666666666666
13,0.03864383324980736,1.0,0.3731158375740051,0.8799295942153086
14,0.03164789453148842,1.0,0.39271947741508484,0.8958333333333333
15,0.0881650522351265,0.9642857142857143,0.4652371108531952,0.8482142857142856
16,0.16029740869998932,0.9512987012987013,1.04451322555542,0.6827838827838829
17,0.14951398968696594,0.9464285714285714,1.200433611869812,0.7992935635792778
18,0.18425202369689941,0.9452380952380952,1.0944184064865112,0.732780612244898
19,0.10373681038618088,0.9506493506493506,0.3834131062030792,0.8864968364968365
20,0.05387682095170021,1.0,0.5039524435997009,0.8414399092970521
21,0.03541601076722145,0.9935064935064936,0.4423334002494812,0.8519274376417234
22,0.02174709178507328,1.0,0.379981130361557,0.8502370645227789
23,0.015473991632461548,1.0,0.35789933800697327,0.8637901780758924
24,0.011043057776987553,1.0,0.36982426047325134,0.8811791383219955
25,0.008787729777395725,1.0,0.36261194944381714,0.8945578231292517
26,0.007160354871302843,1.0,0.36637982726097107,0.8906617192331477
27,0.0060952710919082165,1.0,0.37653103470802307,0.8906617192331477
28,0.0053717936389148235,1.0,0.3796207904815674,0.9025664811379096
29,0.004799631889909506,1.0,0.3839561343193054,0.9025664811379096
30,0.004352973308414221,1.0,0.3900734484195709,0.9025664811379096
31,0.003989017568528652,1.0,0.39327844977378845,0.9025664811379096
32,0.003683004528284073,1.0,0.39560797810554504,0.8937229437229437
33,0.003421617206186056,1.0,0.3986458480358124,0.8937229437229437
34,0.003194062039256096,1.0,0.40130719542503357,0.8937229437229437
35,0.002992249559611082,1.0,0.40353745222091675,0.8937229437229437
36,0.0028095138259232044,1.0,0.4059750437736511,0.8712121212121212
37,0.0026376862078905106,1.0,0.410017728805542,0.8831168831168831
38,0.0024928876664489508,1.0,0.4116341769695282,0.8657176157176157
39,0.002344494918361306,1.0,0.41091054677963257,0.8818181818181818
40,0.002216959837824106,1.0,0.4133862853050232,0.9042671614100185
41,0.002115752547979355,1.0,0.4162465035915375,0.9042671614100185
42,0.002009033691138029,1.0,0.41733282804489136,0.8923623995052566
43,0.0019177735084667802,1.0,0.41960352659225464,0.8818181818181818
44,0.0018328326987102628,1.0,0.4216541647911072,0.8818181818181818
45,0.00175337097607553,1.0,0.42323920130729675,0.8763236763236764
46,0.0016815661219879985,1.0,0.4245176613330841,0.8763236763236764
47,0.0016128309071063995,1.0,0.42637208104133606,0.8763236763236764
48,0.0015491924714297056,1.0,0.42817047238349915,0.8763236763236764
49,0.0014904031995683908,1.0,0.4297034740447998,0.8763236763236764
50,0.0014345109229907393,1.0,0.431160032749176,0.8763236763236764
51,0.001382424496114254,1.0,0.43248578906059265,0.8763236763236764
52,0.001333215506747365,1.0,0.43379488587379456,0.8763236763236764
53,0.0012870293576270342,1.0,0.435081422328949,0.8763236763236764
54,0.001243269769474864,1.0,0.4361502230167389,0.8763236763236764
55,0.0012016540858894587,1.0,0.43688875436782837,0.8763236763236764
56,0.0011633412213996053,1.0,0.4383230209350586,0.8763236763236764
57,0.0011250057723373175,1.0,0.43980997800827026,0.8763236763236764
58,0.0010894439183175564,1.0,0.4406898617744446,0.8763236763236764
59,0.0010584063129499555,1.0,0.44254252314567566,0.8763236763236764
60,0.0010246324818581343,1.0,0.44420453906059265,0.8763236763236764
61,0.0009941214229911566,1.0,0.44437679648399353,0.8763236763236764
62,0.0009645539685152471,1.0,0.4450046420097351,0.8763236763236764
63,0.0009395658271387219,1.0,0.44707852602005005,0.8763236763236764
64,0.0009105714270845056,1.0,0.4478367269039154,0.8763236763236764
65,0.000876996258739382,1.0,0.44824910163879395,0.8763236763236764
66,0.0008555888780392706,1.0,0.45197466015815735,0.8763236763236764
67,0.0008307247189804912,1.0,0.45031896233558655,0.8763236763236764
68,0.00080658815568313,1.0,0.4521569311618805,0.8763236763236764
69,0.0007867609965614974,1.0,0.45329347252845764,0.8763236763236764
70,0.0007679751724936068,1.0,0.45359212160110474,0.8763236763236764
71,0.0007422846392728388,1.0,0.45539218187332153,0.8763236763236764
72,0.0007269004709087312,1.0,0.4586530029773712,0.8763236763236764
73,0.0007075508474372327,1.0,0.45778584480285645,0.8763236763236764
74,0.0006928137154318392,1.0,0.45935043692588806,0.8763236763236764
75,0.0006767899030819535,1.0,0.4566493034362793,0.8802197802197803
76,0.000660071091260761,1.0,0.4573971629142761,0.8802197802197803
77,0.0006461387383751571,1.0,0.4601173996925354,0.8802197802197803
78,0.0006287119467742741,1.0,0.45883896946907043,0.8802197802197803
79,0.0006142361089587212,1.0,0.46176695823669434,0.8802197802197803
80,0.0006010024808347225,1.0,0.46049419045448303,0.8802197802197803
81,0.0005900231772102416,1.0,0.46226388216018677,0.8802197802197803
82,0.0005778201739303768,1.0,0.46287718415260315,0.8802197802197803
83,0.0005731243290938437,1.0,0.46243971586227417,0.8802197802197803
84,0.0005535065429285169,1.0,0.46537619829177856,0.8802197802197803
85,0.0005411496385931969,1.0,0.46190282702445984,0.8802197802197803
86,0.0005264406790956855,1.0,0.4643605351448059,0.8802197802197803
87,0.0005187854403629899,1.0,0.4660194218158722,0.8802197802197803
88,0.0005081720883026719,1.0,0.4639093279838562,0.8802197802197803
89,0.0004974585608579218,1.0,0.4673005938529968,0.8802197802197803
90,0.0004869858385063708,1.0,0.4672134816646576,0.8802197802197803
91,0.000478360743727535,1.0,0.4675464928150177,0.8802197802197803
92,0.0004678655241150409,1.0,0.4675389230251312,0.8802197802197803
93,0.00045979980495758355,1.0,0.46992892026901245,0.8802197802197803
94,0.0004504166718106717,1.0,0.4691378176212311,0.8802197802197803
95,0.00044246556353755295,1.0,0.4706082344055176,0.8802197802197803
96,0.0004339402075856924,1.0,0.4703298509120941,0.8802197802197803
97,0.00042607818613760173,1.0,0.4717894196510315,0.8802197802197803
98,0.00041883389349095523,1.0,0.4704318940639496,0.8802197802197803
99,0.0004107216955162585,1.0,0.4720427393913269,0.8802197802197803
100,0.0004049014823976904,1.0,0.4715091586112976,0.8802197802197803
101,0.00039688352262601256,1.0,0.472735196352005,0.8802197802197803
102,0.00039021956035867333,1.0,0.4724285304546356,0.8802197802197803
103,0.000383185368264094,1.0,0.4722340404987335,0.8802197802197803
104,0.00037675927160307765,1.0,0.4738737940788269,0.8802197802197803
105,0.0003704089322127402,1.0,0.4746684432029724,0.8802197802197803
106,0.000364241364877671,1.0,0.4746249318122864,0.8802197802197803
107,0.0003583299112506211,1.0,0.47516924142837524,0.8802197802197803
108,0.0003524768981151283,1.0,0.4753781259059906,0.8802197802197803
109,0.00034685892751440406,1.0,0.4753480851650238,0.8802197802197803
110,0.00034134607994928956,1.0,0.4760459065437317,0.8802197802197803
111,0.00033609280944801867,1.0,0.47648221254348755,0.8802197802197803
112,0.000330622453475371,1.0,0.4769401252269745,0.8802197802197803
113,0.00032620527781546116,1.0,0.47557762265205383,0.8802197802197803
114,0.0003205410612281412,1.0,0.47740453481674194,0.8802197802197803
115,0.00031561730429530144,1.0,0.4778556227684021,0.8802197802197803
116,0.00031094340374693274,1.0,0.47834447026252747,0.8802197802197803
117,0.00030618763412348926,1.0,0.4789721667766571,0.8802197802197803
118,0.0003018264251295477,1.0,0.47909775376319885,0.8802197802197803
119,0.00029719711164943874,1.0,0.47977355122566223,0.8802197802197803
120,0.0002921296691056341,1.0,0.4804116189479828,0.8802197802197803
121,0.00029058472136966884,1.0,0.4853307604789734,0.8802197802197803
122,0.00028493007994256914,1.0,0.47811898589134216,0.8802197802197803
123,0.0002804282121360302,1.0,0.48084381222724915,0.8802197802197803
124,0.00027657434111461043,1.0,0.4798457622528076,0.8802197802197803
125,0.0002726234670262784,1.0,0.4814055263996124,0.8802197802197803
126,0.00026885553961619735,1.0,0.4815414249897003,0.8802197802197803
127,0.0002651237591635436,1.0,0.4819149672985077,0.8802197802197803
128,0.00026152707869187,1.0,0.48256397247314453,0.8802197802197803
129,0.0002579473948571831,1.0,0.482717901468277,0.8802197802197803
130,0.000254443206358701,1.0,0.4832457900047302,0.8802197802197803
131,0.00025107726105488837,1.0,0.483261376619339,0.8802197802197803
132,0.00024766664137132466,1.0,0.48383450508117676,0.8802197802197803
133,0.0002444783167447895,1.0,0.48438864946365356,0.8802197802197803
134,0.0002412506437394768,1.0,0.4848581850528717,0.8802197802197803
135,0.0002381112426519394,1.0,0.48455047607421875,0.8802197802197803
136,0.00023499946109950542,1.0,0.48525434732437134,0.8802197802197803
137,0.00023204194440040737,1.0,0.48566341400146484,0.8802197802197803
138,0.00022901735792402178,1.0,0.4863339960575104,0.8802197802197803
139,0.0002261757617816329,1.0,0.4869181513786316,0.8802197802197803
140,0.00022323839948512614,1.0,0.4871039390563965,0.8802197802197803
141,0.00022052015992812812,1.0,0.4872981905937195,0.8802197802197803
142,0.00021773592743556947,1.0,0.4883114993572235,0.8802197802197803
143,0.0002152538363588974,1.0,0.4878745973110199,0.8802197802197803
144,0.00021252701117191464,1.0,0.4903869330883026,0.8802197802197803
145,0.00021042059233877808,1.0,0.4868893027305603,0.8802197802197803
146,0.00020708412921521813,1.0,0.49037203192710876,0.8802197802197803
147,0.0002046009904006496,1.0,0.4892928898334503,0.8802197802197803
148,0.00020194223907310516,1.0,0.49063220620155334,0.8802197802197803
149,0.00019865478680003434,1.0,0.492145299911499,0.8802197802197803
150,0.00020048001897521317,1.0,0.49637386202812195,0.8802197802197803
151,0.00019506386888679117,1.0,0.4883790910243988,0.8802197802197803
152,0.00019307740149088204,1.0,0.48973846435546875,0.8802197802197803
153,0.0001907579426188022,1.0,0.49323081970214844,0.8802197802197803
154,0.00018899414862971753,1.0,0.4908672273159027,0.8802197802197803
155,0.00018555732094682753,1.0,0.4942266643047333,0.8802197802197803
156,0.00018403810099698603,1.0,0.49151355028152466,0.8802197802197803
157,0.00018216975149698555,1.0,0.4926953613758087,0.8802197802197803
158,0.0001798555167624727,1.0,0.4955567717552185,0.8802197802197803
159,0.00017802788352128118,1.0,0.4922483563423157,0.890763997906855
160,0.00017403694801032543,1.0,0.49553820490837097,0.8802197802197803
161,0.00017123222642112523,1.0,0.49592018127441406,0.8802197802197803
162,0.00017018194193951786,1.0,0.49538692831993103,0.8802197802197803
163,0.0001694105303613469,1.0,0.4963788092136383,0.8802197802197803
164,0.0001675325183896348,1.0,0.4977676272392273,0.8802197802197803
165,0.00016559289360884577,1.0,0.5001043677330017,0.8802197802197803
166,0.00016373195103369653,1.0,0.49830010533332825,0.8802197802197803
167,0.00016170497110579163,1.0,0.5006069540977478,0.8802197802197803
168,0.00015960683231242,1.0,0.4988102614879608,0.8802197802197803
169,0.00015868629270698875,1.0,0.5004168748855591,0.8802197802197803
170,0.00015685416292399168,1.0,0.4973633885383606,0.890763997906855
171,0.00015508258366025984,1.0,0.4991985261440277,0.8802197802197803
172,0.0001534642360638827,1.0,0.4991653859615326,0.8802197802197803
173,0.0001516830234322697,1.0,0.5012882351875305,0.8802197802197803
174,0.0001500359212514013,1.0,0.5007792115211487,0.8802197802197803
175,0.0001481472427258268,1.0,0.5028592348098755,0.8802197802197803
176,0.0001461756182834506,1.0,0.5027496218681335,0.8802197802197803
177,0.00014518592797685415,1.0,0.5059245824813843,0.8802197802197803
178,0.00014304408978205174,1.0,0.5024945735931396,0.890763997906855
179,0.0001409734832122922,1.0,0.5054818391799927,0.8802197802197803
180,0.00013942633813712746,1.0,0.5057728886604309,0.8802197802197803
181,0.00013740677968598902,1.0,0.5065261125564575,0.8802197802197803
182,0.00013607880100607872,1.0,0.5060577988624573,0.8802197802197803
183,0.00013447951641865075,1.0,0.5083687901496887,0.8802197802197803
184,0.00013326646876521409,1.0,0.5068830847740173,0.8802197802197803
185,0.0001317789137829095,1.0,0.5086580514907837,0.8802197802197803
186,0.0001306999329244718,1.0,0.5077564120292664,0.8802197802197803
187,0.00012926661293022335,1.0,0.5095531940460205,0.8802197802197803
188,0.0001281280565308407,1.0,0.5079631209373474,0.890763997906855
189,0.0001267713523702696,1.0,0.5093938708305359,0.8802197802197803
190,0.00012571256957016885,1.0,0.5086959600448608,0.890763997906855
191,0.00012438457633834332,1.0,0.5099751353263855,0.8802197802197803
192,0.00012328643060754985,1.0,0.5086286067962646,0.890763997906855
193,0.00012185737432446331,1.0,0.5097930431365967,0.8802197802197803
194,0.00011973028449574485,1.0,0.5097085237503052,0.8802197802197803
195,0.00011897156946361065,1.0,0.510503888130188,0.8802197802197803
196,0.00011786700633820146,1.0,0.5096141695976257,0.890763997906855
197,0.00011623789032455534,1.0,0.5120097994804382,0.8802197802197803
198,0.0001160037427325733,1.0,0.5105477571487427,0.890763997906855
199,0.0001147725633927621,1.0,0.5126250386238098,0.890763997906855
200,0.00011328281107125804,1.0,0.5121075510978699,0.890763997906855
201,0.00011241129686823115,1.0,0.5131064057350159,0.890763997906855
202,0.00011142378934891894,1.0,0.5122113227844238,0.890763997906855
203,0.00011034798080800101,1.0,0.513714611530304,0.890763997906855
204,0.00011009998706867918,1.0,0.5125263929367065,0.890763997906855
205,0.0001092029269784689,1.0,0.5155729055404663,0.890763997906855
206,0.00010856021253857762,1.0,0.5153751373291016,0.890763997906855
207,0.00010744181781774387,1.0,0.5153579115867615,0.890763997906855
208,0.00010588930308585986,1.0,0.5134125351905823,0.890763997906855
209,0.00010598285734886304,1.0,0.5145887732505798,0.8802197802197803
210,0.00010419411410111934,1.0,0.51348477602005,0.890763997906855
211,0.0001026490208460018,1.0,0.5169378519058228,0.890763997906855
212,0.00010261064016958699,1.0,0.5145730376243591,0.890763997906855
213,0.00010173909686272964,1.0,0.5190731883049011,0.890763997906855
214,0.00010088564886245877,1.0,0.5181220769882202,0.890763997906855
215,9.98417817754671e-05,1.0,0.5190225839614868,0.890763997906855
216,9.849349589785561e-05,1.0,0.5161260962486267,0.890763997906855
217,9.858713019639254e-05,1.0,0.516804575920105,0.890763997906855
218,9.691752347862348e-05,1.0,0.5183520913124084,0.890763997906855
219,9.547344961902127e-05,1.0,0.519757866859436,0.890763997906855
220,9.540103928884491e-05,1.0,0.5173793435096741,0.890763997906855
221,9.47998050833121e-05,1.0,0.5215424299240112,0.890763997906855
222,9.412836516276002e-05,1.0,0.5198399424552917,0.890763997906855
223,9.271622548112646e-05,1.0,0.5209682583808899,0.890763997906855
224,9.241076622856781e-05,1.0,0.5179944634437561,0.890763997906855
225,9.147646051133052e-05,1.0,0.5220255255699158,0.890763997906855
226,9.08092551981099e-05,1.0,0.5204931497573853,0.890763997906855
227,8.929813338909298e-05,1.0,0.5224082469940186,0.890763997906855
228,8.86447451193817e-05,1.0,0.5206393599510193,0.890763997906855
229,8.784555393503979e-05,1.0,0.5218325257301331,0.890763997906855
230,8.721451740711927e-05,1.0,0.5234153270721436,0.890763997906855
231,8.648662333143875e-05,1.0,0.522617757320404,0.890763997906855
232,8.585342584410682e-05,1.0,0.5239511132240295,0.890763997906855
233,8.51170188980177e-05,1.0,0.5228961110115051,0.890763997906855
234,8.441147656412795e-05,1.0,0.5244153141975403,0.890763997906855
235,8.391982555622235e-05,1.0,0.5241299271583557,0.890763997906855
236,8.30961434985511e-05,1.0,0.524663507938385,0.890763997906855
237,8.264918142231181e-05,1.0,0.5243321061134338,0.890763997906855
238,8.174996037269011e-05,1.0,0.5254830121994019,0.890763997906855
239,8.124873420456424e-05,1.0,0.5255240201950073,0.890763997906855
240,8.050167525652796e-05,1.0,0.5257769227027893,0.890763997906855
241,8.006535063032061e-05,1.0,0.5257995128631592,0.890763997906855
242,7.931191066745669e-05,1.0,0.5267104506492615,0.890763997906855
243,7.884580554673448e-05,1.0,0.5264257788658142,0.890763997906855
244,7.804021151969209e-05,1.0,0.5274634957313538,0.890763997906855
245,7.758365973131731e-05,1.0,0.5270898938179016,0.890763997906855
246,7.6879165135324e-05,1.0,0.5276368856430054,0.890763997906855
247,7.641944102942944e-05,1.0,0.5281245708465576,0.890763997906855
248,7.569047011202201e-05,1.0,0.5285324454307556,0.890763997906855
249,7.52403138903901e-05,1.0,0.5282458662986755,0.890763997906855
250,7.45773286325857e-05,1.0,0.5292433500289917,0.890763997906855
251,7.411120168399066e-05,1.0,0.5291110873222351,0.890763997906855
252,7.343543256865814e-05,1.0,0.5297688245773315,0.890763997906855
253,7.303210441023111e-05,1.0,0.5297031998634338,0.890763997906855
254,7.237974932650104e-05,1.0,0.5306409001350403,0.890763997906855
255,7.191894110292196e-05,1.0,0.5317487120628357,0.890763997906855
256,7.099629146978259e-05,1.0,0.5329006314277649,0.890763997906855
257,7.10633466951549e-05,1.0,0.5307127833366394,0.890763997906855
258,6.961708277231082e-05,1.0,0.532755434513092,0.890763997906855
259,7.081852527335286e-05,1.0,0.5317277312278748,0.890763997906855
260,6.956596917007118e-05,1.0,0.5296195149421692,0.890763997906855
261,6.891574594192207e-05,1.0,0.5354549288749695,0.8802197802197803
262,6.84123660903424e-05,1.0,0.5317212343215942,0.890763997906855
263,6.78994256304577e-05,1.0,0.531732439994812,0.890763997906855
264,6.722792750224471e-05,1.0,0.5341130495071411,0.890763997906855
265,6.631375435972586e-05,1.0,0.5357583165168762,0.890763997906855
266,6.596364983124658e-05,1.0,0.5324910283088684,0.890763997906855
267,6.543684139614925e-05,1.0,0.5336595773696899,0.890763997906855
268,6.4684463723097e-05,1.0,0.5352680087089539,0.890763997906855
269,6.455460970755666e-05,1.0,0.5331462621688843,0.890763997906855
270,6.398845289368182e-05,1.0,0.5359678864479065,0.890763997906855
271,6.381709681591019e-05,1.0,0.5340055823326111,0.890763997906855
272,6.32200826657936e-05,1.0,0.5357063412666321,0.890763997906855
273,6.243256211746484e-05,1.0,0.5366441607475281,0.890763997906855
274,6.225377001101151e-05,1.0,0.535627007484436,0.890763997906855
275,6.155776645755395e-05,1.0,0.5369974374771118,0.890763997906855
276,6.136939919088036e-05,1.0,0.5359106659889221,0.890763997906855
277,6.078620572225191e-05,1.0,0.5367559790611267,0.890763997906855
278,6.05435561737977e-05,1.0,0.5370766520500183,0.890763997906855
279,5.998908090987243e-05,1.0,0.5376256704330444,0.890763997906855
280,5.968791447230615e-05,1.0,0.5374590754508972,0.890763997906855
281,5.91249336139299e-05,1.0,0.5381313562393188,0.890763997906855
282,5.8848236221820116e-05,1.0,0.5385444760322571,0.890763997906855
283,5.8357622037874535e-05,1.0,0.5383005142211914,0.890763997906855
284,5.805538239656016e-05,1.0,0.5391893982887268,0.890763997906855
285,5.758285988122225e-05,1.0,0.5388844609260559,0.890763997906855
286,5.727423194912262e-05,1.0,0.5401667356491089,0.890763997906855
287,5.682937990059145e-05,1.0,0.5391072630882263,0.890763997906855
288,5.6502660299884155e-05,1.0,0.5405939817428589,0.890763997906855
289,5.602588498732075e-05,1.0,0.5398272275924683,0.890763997906855
290,5.571299698203802e-05,1.0,0.5410970449447632,0.890763997906855
291,5.525005326489918e-05,1.0,0.5406090021133423,0.890763997906855
292,5.489140676218085e-05,1.0,0.5416861176490784,0.890763997906855
293,5.456468352349475e-05,1.0,0.5406574606895447,0.890763997906855
294,5.4282660130411386e-05,1.0,0.5419367551803589,0.890763997906855
295,5.3844185458729044e-05,1.0,0.5414866805076599,0.890763997906855
296,5.3529180149780586e-05,1.0,0.5424226522445679,0.890763997906855
297,5.31343393959105e-05,1.0,0.5412948727607727,0.890763997906855
298,5.281719859340228e-05,1.0,0.5422182679176331,0.890763997906855
299,5.2434068493312225e-05,1.0,0.5426235795021057,0.890763997906855
300,5.20913781656418e-05,1.0,0.5427245497703552,0.890763997906855
301,5.170399890630506e-05,1.0,0.5418781042098999,0.890763997906855
302,5.13751401740592e-05,1.0,0.542080283164978,0.890763997906855
303,5.095370579510927e-05,1.0,0.5387639403343201,0.890763997906855
304,4.9966078222496435e-05,1.0,0.5423514246940613,0.890763997906855
305,5.025555219617672e-05,1.0,0.5426937341690063,0.890763997906855
306,5.00480346090626e-05,1.0,0.5451592803001404,0.890763997906855
307,4.974364856025204e-05,1.0,0.5467051267623901,0.890763997906855
308,4.934137177770026e-05,1.0,0.5460042357444763,0.890763997906855
309,4.901782813249156e-05,1.0,0.5461451411247253,0.890763997906855
310,4.87187753606122e-05,1.0,0.5455678105354309,0.890763997906855
311,4.843674469157122e-05,1.0,0.546172559261322,0.890763997906855
312,4.808874291484244e-05,1.0,0.5465314388275146,0.890763997906855
313,4.7810965043026954e-05,1.0,0.5465065240859985,0.890763997906855
314,4.7482113586738706e-05,1.0,0.5466882586479187,0.890763997906855
315,4.721285222331062e-05,1.0,0.5474520921707153,0.890763997906855
316,4.688825720222667e-05,1.0,0.5468150973320007,0.890763997906855
317,4.6593460865551606e-05,1.0,0.5476333498954773,0.890763997906855
318,4.632419586414471e-05,1.0,0.5472959280014038,0.890763997906855
319,4.610496762325056e-05,1.0,0.5479220747947693,0.890763997906855
320,4.576758510665968e-05,1.0,0.548001766204834,0.890763997906855
321,4.549514051177539e-05,1.0,0.5485851168632507,0.890763997906855
322,4.523864481598139e-05,1.0,0.547921359539032,0.890763997906855
323,4.4985354179516435e-05,1.0,0.5488035082817078,0.890763997906855
324,4.464798257686198e-05,1.0,0.5492693185806274,0.890763997906855
325,4.436701783561148e-05,1.0,0.5496366620063782,0.890763997906855
326,4.406370499054901e-05,1.0,0.5490064024925232,0.890763997906855
327,4.379338497528806e-05,1.0,0.5504867434501648,0.890763997906855
328,4.354966222308576e-05,1.0,0.5494700074195862,0.890763997906855
329,4.332297612563707e-05,1.0,0.5502622723579407,0.890763997906855
330,4.301753142499365e-05,1.0,0.5502654314041138,0.890763997906855
331,4.279723361833021e-05,1.0,0.5505931377410889,0.890763997906855
332,4.2467301682336256e-05,1.0,0.5507182478904724,0.890763997906855
333,4.2181021854048595e-05,1.0,0.5513649582862854,0.890763997906855
334,4.192772394162603e-05,1.0,0.5506011843681335,0.890763997906855
335,4.168826126260683e-05,1.0,0.5515651106834412,0.890763997906855
336,4.1388138924958184e-05,1.0,0.5507778525352478,0.890763997906855
337,4.111994712729938e-05,1.0,0.5505506992340088,0.890763997906855
338,4.0725099097471684e-05,1.0,0.5486580729484558,0.890763997906855
339,4.0241899114334956e-05,1.0,0.5512447953224182,0.890763997906855
340,4.039836494484916e-05,1.0,0.5595927834510803,0.890763997906855
341,4.023660221719183e-05,1.0,0.5575801730155945,0.890763997906855
342,3.993434802396223e-05,1.0,0.5574908256530762,0.890763997906855
343,3.972254853579216e-05,1.0,0.5554238557815552,0.890763997906855
344,3.946180368075147e-05,1.0,0.5552406907081604,0.890763997906855
345,3.925426790374331e-05,1.0,0.5542431473731995,0.890763997906855
346,3.89988454116974e-05,1.0,0.5548599362373352,0.890763997906855
347,3.877534982166253e-05,1.0,0.5547326803207397,0.890763997906855
348,3.8532692997250706e-05,1.0,0.5554430484771729,0.890763997906855
349,3.833047958323732e-05,1.0,0.5553479194641113,0.890763997906855
350,3.807079701800831e-05,1.0,0.5560206174850464,0.890763997906855
351,3.7861133023398e-05,1.0,0.5555772185325623,0.890763997906855
352,3.761847983696498e-05,1.0,0.5563227534294128,0.890763997906855
353,3.742265471373685e-05,1.0,0.5561708807945251,0.890763997906855
354,3.718319203471765e-05,1.0,0.5567947030067444,0.890763997906855
355,3.6978850403102115e-05,1.0,0.5566926598548889,0.890763997906855
356,3.67478933185339e-05,1.0,0.5571277737617493,0.890763997906855
357,3.654568354249932e-05,1.0,0.5571879148483276,0.890763997906855
358,3.6327506677480415e-05,1.0,0.5575434565544128,0.890763997906855
359,3.613487569964491e-05,1.0,0.5576019883155823,0.890763997906855
360,3.5910306905861944e-05,1.0,0.55809485912323,0.890763997906855
361,3.572512650862336e-05,1.0,0.5580148100852966,0.890763997906855
362,3.549098255462013e-05,1.0,0.558661699295044,0.890763997906855
363,3.531005131662823e-05,1.0,0.55851811170578,0.890763997906855
364,3.509506495902315e-05,1.0,0.558731734752655,0.890763997906855
365,3.490881499601528e-05,1.0,0.559257447719574,0.890763997906855
366,3.469063449301757e-05,1.0,0.5590137839317322,0.890763997906855
367,3.449267751420848e-05,1.0,0.5594466328620911,0.890763997906855
368,3.4290464100195095e-05,1.0,0.5590869188308716,0.890763997906855
369,3.409782948438078e-05,1.0,0.5595861673355103,0.890763997906855
370,3.3881780836964026e-05,1.0,0.5588955283164978,0.890763997906855
371,3.365295924595557e-05,1.0,0.5586270689964294,0.890763997906855
372,3.3267690014326945e-05,1.0,0.5564256310462952,0.890763997906855
373,3.337302041472867e-05,1.0,0.5566295385360718,0.890763997906855
374,3.2938816730165854e-05,1.0,0.5607591867446899,0.890763997906855
375,3.274086702731438e-05,1.0,0.5580982565879822,0.890763997906855
376,3.234280666220002e-05,1.0,0.5642462372779846,0.8981336124193267
377,3.2607826142339036e-05,1.0,0.5674834847450256,0.890763997906855
378,3.242370439693332e-05,1.0,0.5663073062896729,0.890763997906855
379,3.222680606995709e-05,1.0,0.563829243183136,0.890763997906855
380,3.202885636710562e-05,1.0,0.5618687272071838,0.890763997906855
381,3.1777679396327585e-05,1.0,0.5622225403785706,0.890763997906855
382,3.149458279949613e-05,1.0,0.5595083832740784,0.890763997906855
383,3.1128449336392805e-05,1.0,0.5614742636680603,0.890763997906855
384,3.127746094833128e-05,1.0,0.5712869763374329,0.890763997906855
385,3.1229570595314726e-05,1.0,0.5681488513946533,0.890763997906855
386,3.101138645433821e-05,1.0,0.5692824721336365,0.890763997906855
387,3.084216587012634e-05,1.0,0.5659825205802917,0.890763997906855
388,3.06165347865317e-05,1.0,0.566697895526886,0.890763997906855
389,3.04696641251212e-05,1.0,0.565581202507019,0.890763997906855
390,3.0288734706118703e-05,1.0,0.5656348466873169,0.890763997906855
391,3.012163688254077e-05,1.0,0.5661031007766724,0.890763997906855
392,2.995986505993642e-05,1.0,0.5663852691650391,0.890763997906855
393,2.9799153708154336e-05,1.0,0.5666026473045349,0.890763997906855
394,2.964483246614691e-05,1.0,0.5668726563453674,0.890763997906855
395,2.9480930606951006e-05,1.0,0.5668703317642212,0.890763997906855
396,2.9315966457943432e-05,1.0,0.5673448443412781,0.890763997906855
397,2.9156319214962423e-05,1.0,0.5674734711647034,0.890763997906855
398,2.901157677115407e-05,1.0,0.5679343938827515,0.890763997906855
399,2.884448076656554e-05,1.0,0.5679503679275513,0.890763997906855
400,2.8685899451375008e-05,1.0,0.5685173273086548,0.890763997906855
401,2.853157820936758e-05,1.0,0.5682966113090515,0.890763997906855
402,2.837831743818242e-05,1.0,0.5688502192497253,0.890763997906855
403,2.8214413759997115e-05,1.0,0.5686559081077576,0.890763997906855
404,2.8052643756382167e-05,1.0,0.56913822889328,0.890763997906855
405,2.7908959964406677e-05,1.0,0.568897545337677,0.890763997906855
406,2.7745059924200177e-05,1.0,0.5692100524902344,0.890763997906855
407,2.756625872279983e-05,1.0,0.5687429308891296,0.890763997906855
408,2.7393838536227122e-05,1.0,0.5684862732887268,0.890763997906855
409,2.7134150514029898e-05,1.0,0.567054271697998,0.890763997906855
410,2.6886160412686877e-05,1.0,0.5679677724838257,0.890763997906855
411,2.684572245925665e-05,1.0,0.5742279291152954,0.890763997906855
412,2.681592377484776e-05,1.0,0.5696523785591125,0.890763997906855
413,2.6365725716459565e-05,1.0,0.5700825452804565,0.890763997906855
414,2.607409805932548e-05,1.0,0.5720673203468323,0.890763997906855
415,2.627738649607636e-05,1.0,0.5734677314758301,0.890763997906855
416,2.5947458198061213e-05,1.0,0.5688745975494385,0.890763997906855
417,2.586230039014481e-05,1.0,0.5706825256347656,0.890763997906855
418,2.5908073439495638e-05,1.0,0.5789580941200256,0.890763997906855
419,2.5900624677888118e-05,1.0,0.5760794878005981,0.890763997906855
420,2.5736719180713408e-05,1.0,0.5757743120193481,0.890763997906855
421,2.559729546192102e-05,1.0,0.5731862187385559,0.890763997906855
422,2.544510061852634e-05,1.0,0.5724520683288574,0.890763997906855
423,2.5207758881151676e-05,1.0,0.5708382725715637,0.890763997906855
424,2.4756494894973002e-05,1.0,0.5718494653701782,0.890763997906855
425,2.455640242260415e-05,1.0,0.5728060007095337,0.890763997906855
426,2.442442928440869e-05,1.0,0.5754302144050598,0.890763997906855
427,2.4341410608030856e-05,1.0,0.5738633871078491,0.890763997906855
428,2.4212629796238616e-05,1.0,0.5765703320503235,0.890763997906855
429,2.4262650185846724e-05,1.0,0.5764995813369751,0.890763997906855
430,2.398699871264398e-05,1.0,0.5751208662986755,0.890763997906855
431,2.390930058027152e-05,1.0,0.5750607848167419,0.890763997906855
432,2.385502193646971e-05,1.0,0.5734777450561523,0.890763997906855
433,2.3877370040281676e-05,1.0,0.5816248655319214,0.890763997906855
434,2.385182961006649e-05,1.0,0.5750659704208374,0.890763997906855
435,2.3420787329087034e-05,1.0,0.5756062269210815,0.890763997906855
436,2.3179183699539863e-05,1.0,0.5775465369224548,0.890763997906855
437,2.3098300516721793e-05,1.0,0.5756539702415466,0.890763997906855
438,2.298015715496149e-05,1.0,0.5784479379653931,0.890763997906855
439,2.3051466996548697e-05,1.0,0.5794431567192078,0.890763997906855
440,2.283435060235206e-05,1.0,0.575534462928772,0.890763997906855
441,2.2649153834208846e-05,1.0,0.5798450112342834,0.890763997906855
442,2.272046731377486e-05,1.0,0.5796340703964233,0.890763997906855
443,2.252357080578804e-05,1.0,0.5764016509056091,0.890763997906855
444,2.2388396246242337e-05,1.0,0.578678548336029,0.890763997906855
445,2.2442680347012356e-05,1.0,0.5819858908653259,0.890763997906855
446,2.23777587962104e-05,1.0,0.5795067548751831,0.890763997906855
447,2.1988220396451652e-05,1.0,0.5788168907165527,0.890763997906855
448,2.180302908527665e-05,1.0,0.5802651643753052,0.890763997906855
449,2.1845598894287832e-05,1.0,0.5811276435852051,0.890763997906855
450,2.1596553779090755e-05,1.0,0.5794762372970581,0.890763997906855
451,2.1431582354125567e-05,1.0,0.5823883414268494,0.890763997906855
452,2.1343244952731766e-05,1.0,0.5808895230293274,0.890763997906855
453,2.12027553061489e-05,1.0,0.5827730298042297,0.890763997906855
454,2.1104837287566625e-05,1.0,0.5818049311637878,0.890763997906855
455,2.0990957636968233e-05,1.0,0.5825095772743225,0.890763997906855
456,2.088984547299333e-05,1.0,0.5824502110481262,0.890763997906855
457,2.079299338220153e-05,1.0,0.5826016068458557,0.890763997906855
458,2.0685494746430777e-05,1.0,0.5829498171806335,0.890763997906855
459,2.0591836801031604e-05,1.0,0.5830561518669128,0.890763997906855
460,2.0481147657847032e-05,1.0,0.5829916000366211,0.890763997906855
461,2.0410900106071495e-05,1.0,0.5837130546569824,0.890763997906855
462,2.037152080447413e-05,1.0,0.583038330078125,0.890763997906855
463,2.0319366740295663e-05,1.0,0.5818102955818176,0.890763997906855
464,2.026402398769278e-05,1.0,0.5857149362564087,0.890763997906855
465,2.008203045988921e-05,1.0,0.5825577974319458,0.890763997906855
466,1.9900029656128027e-05,1.0,0.5856155157089233,0.890763997906855
467,1.9838296793750487e-05,1.0,0.5846248865127563,0.890763997906855
468,1.980317392735742e-05,1.0,0.5852773785591125,0.890763997906855
469,1.9736122339963913e-05,1.0,0.5846832990646362,0.890763997906855
470,1.953602986759506e-05,1.0,0.5862917900085449,0.890763997906855
471,1.9495588276186027e-05,1.0,0.5844770669937134,0.890763997906855
472,1.938063905981835e-05,1.0,0.5870033502578735,0.890763997906855
473,1.9326358597027138e-05,1.0,0.5849162936210632,0.890763997906855
474,1.91805465874495e-05,1.0,0.5874494910240173,0.890763997906855
475,1.913371670525521e-05,1.0,0.5855168700218201,0.890763997906855
476,1.8984710550284944e-05,1.0,0.5879457592964172,0.890763997906855
477,1.8934688341687433e-05,1.0,0.5860481262207031,0.890763997906855
478,1.8809098037309013e-05,1.0,0.5885429978370667,0.890763997906855
479,1.874949703051243e-05,1.0,0.5866175293922424,0.890763997906855
480,1.8610069673741236e-05,1.0,0.5888592004776001,0.890763997906855
481,1.8558985175332054e-05,1.0,0.5872669816017151,0.890763997906855
482,1.8416363673168235e-05,1.0,0.5894802808761597,0.890763997906855
483,1.836527735576965e-05,1.0,0.5878027081489563,0.890763997906855
484,1.821946534619201e-05,1.0,0.5900653004646301,0.890763997906855
485,1.8164120774599724e-05,1.0,0.5885090827941895,0.890763997906855
486,1.8033209926215932e-05,1.0,0.5904096961021423,0.890763997906855
487,1.7989570551435463e-05,1.0,0.5889281034469604,0.890763997906855
488,1.7855465557659045e-05,1.0,0.5907490849494934,0.890763997906855
489,1.780225102265831e-05,1.0,0.5894636511802673,0.890763997906855
490,1.7686239516478963e-05,1.0,0.5910990834236145,0.890763997906855
491,1.7653244867688045e-05,1.0,0.5899704098701477,0.890763997906855
492,1.7512753402115777e-05,1.0,0.5919929146766663,0.890763997906855
493,1.7435058907722123e-05,1.0,0.5903615355491638,0.890763997906855
494,1.732436976453755e-05,1.0,0.592910885810852,0.890763997906855
495,1.7250931705348194e-05,1.0,0.5912622213363647,0.890763997906855
496,1.7159398339572363e-05,1.0,0.5925353765487671,0.890763997906855
497,1.7076383301173337e-05,1.0,0.5923539996147156,0.890763997906855
498,1.6998685168800876e-05,1.0,0.5925208330154419,0.890763997906855
499,1.6908217730815522e-05,1.0,0.5928900837898254,0.890763997906855
500,1.683371556282509e-05,1.0,0.5930972099304199,0.890763997906855
501,1.675708517723251e-05,1.0,0.593252956867218,0.890763997906855
502,1.6668744137859903e-05,1.0,0.5936030149459839,0.890763997906855
503,1.65846631716704e-05,1.0,0.5936285257339478,0.890763997906855
504,1.651122329349164e-05,1.0,0.5940073132514954,0.890763997906855
505,1.6431400581495836e-05,1.0,0.593946635723114,0.890763997906855
506,1.634731779631693e-05,1.0,0.5945023894309998,0.890763997906855
507,1.6279200281132944e-05,1.0,0.5943775773048401,0.890763997906855
508,1.619937756913714e-05,1.0,0.5949012041091919,0.890763997906855
509,1.6129130017361604e-05,1.0,0.5947698354721069,0.890763997906855
510,1.604611134098377e-05,1.0,0.5953641533851624,0.890763997906855
511,1.5979059753590263e-05,1.0,0.5950860977172852,0.890763997906855
512,1.590668580320198e-05,1.0,0.5957289338111877,0.890763997906855
513,1.5831117707421072e-05,1.0,0.5954423546791077,0.890763997906855
514,1.575235728523694e-05,1.0,0.5960782766342163,0.890763997906855
515,1.5682111552450806e-05,1.0,0.596016526222229,0.890763997906855
516,1.5605479347868823e-05,1.0,0.5964468717575073,0.890763997906855
517,1.552139838167932e-05,1.0,0.5965409874916077,0.890763997906855
518,1.5456473192898557e-05,1.0,0.5970187783241272,0.890763997906855
519,1.5381971024908125e-05,1.0,0.5968460440635681,0.890763997906855
520,1.5309597074519843e-05,1.0,0.5973614454269409,0.890763997906855
521,1.5239350432239007e-05,1.0,0.5971642136573792,0.890763997906855
522,1.5169104699452873e-05,1.0,0.5977481007575989,0.890763997906855
523,1.5094600712473039e-05,1.0,0.5976768732070923,0.890763997906855
524,1.5024355889181606e-05,1.0,0.598051130771637,0.890763997906855
525,1.4943465430405922e-05,1.0,0.5981107354164124,0.890763997906855
526,1.4872157407808118e-05,1.0,0.5985520482063293,0.890763997906855
527,1.4815746908425353e-05,1.0,0.5983740091323853,0.890763997906855
528,1.474763030273607e-05,1.0,0.5990023016929626,0.890763997906855
529,1.4678445950266905e-05,1.0,0.5988461375236511,0.890763997906855
530,1.4606072909373324e-05,1.0,0.5995174646377563,0.890763997906855
531,1.454647190257674e-05,1.0,0.5992302894592285,0.890763997906855
532,1.4466645552602131e-05,1.0,0.5996437072753906,0.890763997906855
533,1.4410235962714069e-05,1.0,0.5997196435928345,0.890763997906855
534,1.4339991139422636e-05,1.0,0.6002975702285767,0.890763997906855
535,1.427187271474395e-05,1.0,0.600115180015564,0.890763997906855
536,1.4198434655554593e-05,1.0,0.6007418036460876,0.890763997906855
537,1.414415419276338e-05,1.0,0.6003700494766235,0.890763997906855
538,1.4088807802181691e-05,1.0,0.6011406779289246,0.890763997906855
539,1.4014303815201856e-05,1.0,0.6010159850120544,0.890763997906855
540,1.395683011651272e-05,1.0,0.6013437509536743,0.890763997906855
541,1.3881262930226512e-05,1.0,0.6014114022254944,0.890763997906855
542,1.3818467778037302e-05,1.0,0.6018014550209045,0.890763997906855
543,1.3753543498751242e-05,1.0,0.6018567681312561,0.890763997906855
544,1.3691810636373702e-05,1.0,0.602138102054596,0.890763997906855
545,1.3622629921883345e-05,1.0,0.6022648215293884,0.890763997906855
546,1.3560898878495209e-05,1.0,0.602719783782959,0.890763997906855
547,1.3505552487913519e-05,1.0,0.6024172902107239,0.890763997906855
548,1.343956228083698e-05,1.0,0.6031641960144043,0.890763997906855
549,1.33757048388361e-05,1.0,0.6029247641563416,0.890763997906855
550,1.3315037904249039e-05,1.0,0.6033962368965149,0.890763997906855
551,1.32533050418715e-05,1.0,0.6032620668411255,0.890763997906855
552,1.3191574907978065e-05,1.0,0.6039314270019531,0.890763997906855
553,1.3136227607901674e-05,1.0,0.6034898161888123,0.890763997906855
554,1.3080883036309388e-05,1.0,0.6041961312294006,0.890763997906855
555,1.3022344319324475e-05,1.0,0.6039177775382996,0.890763997906855
556,1.2959549167135265e-05,1.0,0.6044731140136719,0.890763997906855
557,1.2898881323053502e-05,1.0,0.6041589975357056,0.890763997906855
558,1.2840342606068589e-05,1.0,0.6047096252441406,0.890763997906855
559,1.278393483516993e-05,1.0,0.604394257068634,0.890763997906855
560,1.2721137863991316e-05,1.0,0.6047190427780151,0.890763997906855
561,1.2658340892812703e-05,1.0,0.6045811772346497,0.890763997906855
562,1.260831777472049e-05,1.0,0.6046064496040344,0.890763997906855
563,1.2548714948934503e-05,1.0,0.6041130423545837,0.890763997906855
564,1.2488048014347441e-05,1.0,0.6037432551383972,0.890763997906855
565,1.2427380170265678e-05,1.0,0.6025503277778625,0.890763997906855
566,1.237629203387769e-05,1.0,0.6005170941352844,0.890763997906855
567,1.2316689208091702e-05,1.0,0.6048418283462524,0.890763997906855
568,1.225815049110679e-05,1.0,0.6130398511886597,0.890763997906855
569,1.2202805919514503e-05,1.0,0.6124454736709595,0.890763997906855
570,1.2145332220825367e-05,1.0,0.6110332608222961,0.890763997906855
571,1.2097435501345899e-05,1.0,0.6092535257339478,0.890763997906855
572,1.2047411473758984e-05,1.0,0.60906982421875,0.890763997906855
573,1.1994195119768847e-05,1.0,0.6083654761314392,0.890763997906855
574,1.1944172911171336e-05,1.0,0.6087064743041992,0.890763997906855
575,1.1883503248100169e-05,1.0,0.6083369851112366,0.890763997906855
576,1.183454423880903e-05,1.0,0.6088054776191711,0.890763997906855
577,1.1777069630625192e-05,1.0,0.6085529327392578,0.890763997906855
578,1.1727045603038277e-05,1.0,0.6088957786560059,0.890763997906855
579,1.1674893357849214e-05,1.0,0.6086654663085938,0.890763997906855
580,1.1629126674961299e-05,1.0,0.6089385151863098,0.890763997906855
581,1.1568459740374237e-05,1.0,0.6088625192642212,0.890763997906855
582,1.1516306585690472e-05,1.0,0.6085804104804993,0.890763997906855
583,1.1463089322205633e-05,1.0,0.608282208442688,0.890763997906855
584,1.1413065294618718e-05,1.0,0.6077538728713989,0.890763997906855
585,1.1359849850123283e-05,1.0,0.6066655516624451,0.890763997906855
586,1.129492466134252e-05,1.0,0.604695200920105,0.890763997906855
587,1.1236385034862906e-05,1.0,0.6075081825256348,0.890763997906855
588,1.1160817848576698e-05,1.0,0.6064507365226746,0.890763997906855
589,1.121084005717421e-05,1.0,0.6491416096687317,0.8977625549054121
590,1.1135272870888002e-05,1.0,0.6345275640487671,0.8875893947322518
591,1.1077799172198866e-05,1.0,0.6251657605171204,0.8875893947322518
592,1.1018196346412878e-05,1.0,0.6182609796524048,0.890763997906855
593,1.0964978173433337e-05,1.0,0.6159224510192871,0.890763997906855
594,1.0916019164142199e-05,1.0,0.6143288612365723,0.890763997906855
595,1.0870251571759582e-05,1.0,0.6141071915626526,0.890763997906855
596,1.0823421689565293e-05,1.0,0.6136592030525208,0.890763997906855
597,1.0773396752483677e-05,1.0,0.6140785217285156,0.890763997906855
598,1.0725501851993613e-05,1.0,0.6139727830886841,0.890763997906855
599,1.0679735169105697e-05,1.0,0.6144008636474609,0.890763997906855
600,1.064035404851893e-05,1.0,0.6143835783004761,0.890763997906855
601,1.0592460057523567e-05,1.0,0.6148173213005066,0.890763997906855
602,1.05403059933451e-05,1.0,0.6148824095726013,0.890763997906855
603,1.0491346984053962e-05,1.0,0.6151143908500671,0.890763997906855
604,1.044451528287027e-05,1.0,0.6152640581130981,0.890763997906855
605,1.0406199180579279e-05,1.0,0.6154388189315796,0.890763997906855
606,1.0351917808293365e-05,1.0,0.6157097220420837,0.890763997906855
607,1.0310408470104448e-05,1.0,0.6157438158988953,0.890763997906855
608,1.0263577678415459e-05,1.0,0.6160858273506165,0.890763997906855
609,1.0223132449027617e-05,1.0,0.6161556839942932,0.890763997906855
610,1.0175237548537552e-05,1.0,0.6166459918022156,0.890763997906855
611,1.0131598173757084e-05,1.0,0.616446316242218,0.890763997906855
612,1.0085831490869168e-05,1.0,0.6171006560325623,0.890763997906855
613,1.0046451279777102e-05,1.0,0.6169641613960266,0.890763997906855
614,9.993234925786965e-06,1.0,0.6174219846725464,0.890763997906855
615,9.950660569302272e-06,1.0,0.6175269484519958,0.890763997906855
616,9.908087122312281e-06,1.0,0.6178520917892456,0.890763997906855
617,9.864449566521216e-06,1.0,0.6180077791213989,0.890763997906855
618,9.8144246294396e-06,1.0,0.6182528138160706,0.890763997906855
619,9.781430890143383e-06,1.0,0.6184352040290833,0.890763997906855
620,9.727148608362768e-06,1.0,0.6187063455581665,0.890763997906855
621,9.700539521872997e-06,1.0,0.6187725067138672,0.890763997906855
622,9.648386367189232e-06,1.0,0.6190571784973145,0.890763997906855
623,9.609007065591868e-06,1.0,0.6193262934684753,0.890763997906855
624,9.568560926709324e-06,1.0,0.6193418502807617,0.890763997906855
625,9.524922461423557e-06,1.0,0.6196684241294861,0.890763997906855
626,9.482349014433566e-06,1.0,0.619978129863739,0.890763997906855
627,9.449354365642648e-06,1.0,0.6200234293937683,0.890763997906855
628,9.399330338055734e-06,1.0,0.6205344200134277,0.890763997906855
629,9.362078344565816e-06,1.0,0.6206127405166626,0.890763997906855
630,9.321632205683272e-06,1.0,0.621030330657959,0.890763997906855
631,9.285445230489131e-06,1.0,0.6212831735610962,0.890763997906855
632,9.24074265640229e-06,1.0,0.6218851208686829,0.890763997906855
633,9.12473024072824e-06,1.0,0.621614396572113,0.890763997906855
634,9.44828843785217e-06,1.0,0.6147990822792053,0.890763997906855
635,9.407845027453732e-06,1.0,0.6123544573783875,0.890763997906855
636,9.361014235764742e-06,1.0,0.6143611073493958,0.890763997906855
637,9.3205690063769e-06,1.0,0.6144488453865051,0.890763997906855
638,9.27160908759106e-06,1.0,0.6161695718765259,0.890763997906855
639,9.226906513504218e-06,1.0,0.6172002553939819,0.890763997906855
640,9.180074812320527e-06,1.0,0.617384135723114,0.890763997906855
641,9.141759619524237e-06,1.0,0.6180456876754761,0.890763997906855
642,9.10025028133532e-06,1.0,0.6180659532546997,0.890763997906855
643,9.064061487151776e-06,1.0,0.619085431098938,0.890763997906855
644,9.019358913064934e-06,1.0,0.6188705563545227,0.890763997906855
645,8.972528121375944e-06,1.0,0.6195130944252014,0.890763997906855
646,8.944855835579801e-06,1.0,0.6196146607398987,0.890763997906855
647,8.90441060619196e-06,1.0,0.6201467514038086,0.890763997906855
648,8.859707122610416e-06,1.0,0.6201651692390442,0.890763997906855
649,8.826712473819498e-06,1.0,0.620703399181366,0.890763997906855
650,8.780945790931582e-06,1.0,0.620829164981842,0.890763997906855
651,8.750080269237515e-06,1.0,0.621252179145813,0.890763997906855
652,8.708570021553896e-06,1.0,0.6214640736579895,0.890763997906855
653,8.672382136865053e-06,1.0,0.6217408776283264,0.890763997906855
654,8.629808689875063e-06,1.0,0.6219002604484558,0.890763997906855
655,8.59574993228307e-06,1.0,0.6222707033157349,0.890763997906855
656,8.552111466997303e-06,1.0,0.6225680112838745,0.890763997906855
657,8.521245035808533e-06,1.0,0.622837483882904,0.890763997906855
658,8.475478352920618e-06,1.0,0.6230447888374329,0.890763997906855
659,8.4424837041297e-06,1.0,0.6234469413757324,0.890763997906855
660,8.402038474741857e-06,1.0,0.6233829855918884,0.890763997906855
661,8.377558515348937e-06,1.0,0.6240937113761902,0.890763997906855
662,8.334983249369543e-06,1.0,0.6241589784622192,0.890763997906855
663,8.296668966067955e-06,1.0,0.6241821646690369,0.890763997906855
664,8.263674317277037e-06,1.0,0.6246139407157898,0.890763997906855
665,8.229614650190342e-06,1.0,0.6248649954795837,0.890763997906855
666,8.199812327802647e-06,1.0,0.6246646642684937,0.890763997906855
667,8.159367098414805e-06,1.0,0.6258773803710938,0.890763997906855
668,8.117856850731187e-06,1.0,0.625794529914856,0.890763997906855
669,8.095506018435117e-06,1.0,0.625983715057373,0.890763997906855
670,8.046546099649277e-06,1.0,0.6260625123977661,0.890763997906855
671,8.007164979062509e-06,1.0,0.62635338306427,0.890763997906855
672,7.963527423271444e-06,1.0,0.6266880035400391,0.890763997906855
673,7.930532774480525e-06,1.0,0.626533567905426,0.890763997906855
674,7.899666343291756e-06,1.0,0.626671314239502,0.890763997906855
675,7.862413440307137e-06,1.0,0.6273004412651062,0.890763997906855
676,7.83154882810777e-06,1.0,0.6272726655006409,0.890763997906855
677,7.797489161021076e-06,1.0,0.6274758577346802,0.890763997906855
678,7.765558621031232e-06,1.0,0.627564013004303,0.890763997906855
679,7.725114301138092e-06,1.0,0.628207266330719,0.890763997906855
680,7.697440196352545e-06,1.0,0.6279162168502808,0.890763997906855
681,7.672960236959625e-06,1.0,0.6287137866020203,0.890763997906855
682,7.632515007571783e-06,1.0,0.628433883190155,0.890763997906855
683,7.609099156979937e-06,1.0,0.6292487382888794,0.890763997906855
684,7.568653472844744e-06,1.0,0.6289348602294922,0.890763997906855
685,7.536723842349602e-06,1.0,0.6297538876533508,0.890763997906855
686,7.5069219747092575e-06,1.0,0.6295562386512756,0.890763997906855
687,7.477119652321562e-06,1.0,0.6302210688591003,0.890763997906855
688,7.43880309528322e-06,1.0,0.6303537487983704,0.890763997906855
689,7.413259027089225e-06,1.0,0.6298627257347107,0.890763997906855
690,7.372812888206681e-06,1.0,0.6308742165565491,0.890763997906855
691,7.33875504010939e-06,1.0,0.6311815977096558,0.890763997906855
692,7.3068245001195464e-06,1.0,0.6316133141517639,0.890763997906855
693,7.277022177731851e-06,1.0,0.631469190120697,0.890763997906855
694,7.2387056206935085e-06,1.0,0.6318406462669373,0.890763997906855
695,7.216354333650088e-06,1.0,0.632146954536438,0.890763997906855
696,7.1791023401601706e-06,1.0,0.6330751180648804,0.890763997906855
697,7.151429144869326e-06,1.0,0.6328790783882141,0.890763997906855
698,7.1184340413310565e-06,1.0,0.6337614059448242,0.890763997906855
699,7.084374374244362e-06,1.0,0.6353499293327332,0.890763997906855
700,6.979003956075758e-06,1.0,0.6390045881271362,0.890763997906855
701,6.8938561526010744e-06,1.0,0.6363059878349304,0.890763997906855
702,6.814029347879114e-06,1.0,0.639710009098053,0.890763997906855
703,6.78422793498612e-06,1.0,0.6393153071403503,0.890763997906855
704,6.707595275656786e-06,1.0,0.6405576467514038,0.890763997906855
705,6.876826773805078e-06,1.0,0.6318989396095276,0.890763997906855
706,6.871504865557654e-06,1.0,0.6346927881240845,0.890763997906855
707,6.755490630894201e-06,1.0,0.6376577615737915,0.890763997906855
708,6.635218142037047e-06,1.0,0.6388207077980042,0.890763997906855
709,6.6256397985853255e-06,1.0,0.6389667391777039,0.890763997906855
710,6.587322332052281e-06,1.0,0.6408564448356628,0.890763997906855
711,6.570293862750987e-06,1.0,0.6398270726203918,0.890763997906855
712,6.523462161567295e-06,1.0,0.6412991285324097,0.890763997906855
713,6.452150955738034e-06,1.0,0.6406177878379822,0.890763997906855
714,6.586258677998558e-06,1.0,0.6364918351173401,0.890763997906855
715,6.489402494480601e-06,1.0,0.6367191076278687,0.890763997906855
716,6.439378466893686e-06,1.0,0.6384572386741638,0.890763997906855
717,6.4085115809575655e-06,1.0,0.641205906867981,0.890763997906855
718,6.3850961851130705e-06,1.0,0.6396798491477966,0.890763997906855
719,6.346779173327377e-06,1.0,0.6409912109375,0.890763997906855
720,6.318041414488107e-06,1.0,0.6406354308128357,0.890763997906855
721,6.286111329245614e-06,1.0,0.6416870951652527,0.890763997906855
722,6.266953278100118e-06,1.0,0.6427293419837952,0.890763997906855
723,6.238215519260848e-06,1.0,0.6427558660507202,0.890763997906855
724,6.212670996319503e-06,1.0,0.6408963203430176,0.890763997906855
725,6.1807409110770095e-06,1.0,0.6398221850395203,0.890763997906855
726,6.178611783980159e-06,1.0,0.6451351046562195,0.88146694575266
727,6.1360378822428174e-06,1.0,0.6444622278213501,0.8933717076574219
728,6.105171905801399e-06,1.0,0.6407912969589233,0.88146694575266
729,6.066854439268354e-06,1.0,0.638612687587738,0.8933717076574219
730,6.074305019865278e-06,1.0,0.653592586517334,0.8875893947322518
731,6.050889624020783e-06,1.0,0.6584629416465759,0.8875893947322518
732,6.013636721036164e-06,1.0,0.653792679309845,0.8875893947322518
733,5.984899416944245e-06,1.0,0.6482656598091125,0.890763997906855
734,5.923167464061407e-06,1.0,0.6453065276145935,0.890763997906855
735,6.0115085034340154e-06,1.0,0.643884539604187,0.890763997906855
736,5.917845555813983e-06,1.0,0.640999436378479,0.890763997906855
737,5.90187983107171e-06,1.0,0.6434720754623413,0.890763997906855
738,5.87739987167879e-06,1.0,0.6455589532852173,0.890763997906855
739,5.846533895237371e-06,1.0,0.6444222331047058,0.890763997906855
740,5.806088211102178e-06,1.0,0.6455825567245483,0.890763997906855
741,5.7390343499719165e-06,1.0,0.6446546912193298,0.890763997906855
742,5.8156679187959526e-06,1.0,0.6438865661621094,0.890763997906855
743,5.728390533477068e-06,1.0,0.6427663564682007,0.890763997906855
744,5.723068625229644e-06,1.0,0.6442366242408752,0.890763997906855
745,5.697524557035649e-06,1.0,0.6458713412284851,0.890763997906855
746,5.668786798196379e-06,1.0,0.64484703540802,0.890763997906855
747,5.596410574071342e-06,1.0,0.6455705761909485,0.890763997906855
748,5.6783660511428025e-06,1.0,0.6431195139884949,0.890763997906855
749,5.6017320275714155e-06,1.0,0.6421760320663452,0.890763997906855
750,5.584702648775419e-06,1.0,0.6430729031562805,0.890763997906855
751,5.55170754523715e-06,1.0,0.6430901885032654,0.890763997906855
752,5.503811735252384e-06,1.0,0.6415804624557495,0.88146694575266
753,5.496360699908109e-06,1.0,0.6582551598548889,0.8875893947322518
754,5.49636115465546e-06,1.0,0.6571859121322632,0.8875893947322518
755,5.435693310573697e-06,1.0,0.6558681726455688,0.8981336124193267
756,5.4207921493798494e-06,1.0,0.6502479910850525,0.890763997906855
757,5.386732937040506e-06,1.0,0.6481727957725525,0.890763997906855
758,5.379282811190933e-06,1.0,0.647405743598938,0.890763997906855
759,5.337772563507315e-06,1.0,0.646885871887207,0.890763997906855
760,5.333514764060965e-06,1.0,0.6457585692405701,0.890763997906855
761,5.287748081173049e-06,1.0,0.6461561322212219,0.890763997906855
762,5.28349073647405e-06,1.0,0.6441696882247925,0.890763997906855
763,5.236659035290359e-06,1.0,0.6444449424743652,0.890763997906855
764,5.235594471741933e-06,1.0,0.6443082094192505,0.890763997906855
765,5.179183517611818e-06,1.0,0.6457746624946594,0.890763997906855
766,5.1834408623108175e-06,1.0,0.6564058065414429,0.8875893947322518
767,5.182376753509743e-06,1.0,0.6574300527572632,0.890763997906855
768,5.142995632922975e-06,1.0,0.6531810760498047,0.890763997906855
769,5.127030362928053e-06,1.0,0.6453679800033569,0.890763997906855
770,5.06423339174944e-06,1.0,0.6435064077377319,0.890763997906855
771,5.144058832229348e-06,1.0,0.6693352460861206,0.8875893947322518
772,5.1025494940404315e-06,1.0,0.6691182255744934,0.8875893947322518
773,5.052525921200868e-06,1.0,0.6631754636764526,0.8875893947322518
774,5.03762476000702e-06,1.0,0.6573672294616699,0.8875893947322518
775,5.028045507060597e-06,1.0,0.6566258072853088,0.890763997906855
776,4.986534804629628e-06,1.0,0.6547698974609375,0.890763997906855
777,4.964184427080909e-06,1.0,0.6525758504867554,0.890763997906855
778,4.940768121741712e-06,1.0,0.6531526446342468,0.890763997906855
779,4.921610070596216e-06,1.0,0.6518344879150391,0.890763997906855
780,4.905644345853943e-06,1.0,0.6532294154167175,0.890763997906855
781,4.875842478213599e-06,1.0,0.6524518132209778,0.890763997906855
782,4.850297955272254e-06,1.0,0.6530131697654724,0.890763997906855
783,4.83646090287948e-06,1.0,0.6536867022514343,0.890763997906855
784,4.810916834685486e-06,1.0,0.6539731621742249,0.890763997906855
785,4.794951564690564e-06,1.0,0.6538534164428711,0.890763997906855
786,4.775793058797717e-06,1.0,0.6549959182739258,0.890763997906855
787,4.761956461152295e-06,1.0,0.6542202234268188,0.890763997906855
788,4.736411938210949e-06,1.0,0.655366063117981,0.890763997906855
789,4.722575795312878e-06,1.0,0.6548214554786682,0.890763997906855
790,4.702352725871606e-06,1.0,0.6550230979919434,0.890763997906855
791,4.687451564677758e-06,1.0,0.6545924544334412,0.890763997906855
792,4.657649242290063e-06,1.0,0.655389666557312,0.890763997906855
793,4.6406198634940665e-06,1.0,0.654950737953186,0.890763997906855
794,4.6203972488001455e-06,1.0,0.655521035194397,0.890763997906855
795,4.603367415256798e-06,1.0,0.6548783183097839,0.890763997906855
796,4.586337581713451e-06,1.0,0.6559454798698425,0.890763997906855
797,4.571436420519603e-06,1.0,0.6551302075386047,0.890763997906855
798,4.554407496470958e-06,1.0,0.6555962562561035,0.890763997906855
799,4.534184427029686e-06,1.0,0.6549537777900696,0.890763997906855
800,4.50651077699149e-06,1.0,0.655539333820343,0.890763997906855
801,4.492674179346068e-06,1.0,0.654435932636261,0.890763997906855
802,4.474580237001646e-06,1.0,0.6542152762413025,0.890763997906855
803,4.4437142605602276e-06,1.0,0.6529207229614258,0.890763997906855
804,4.4149760469736066e-06,1.0,0.6521892547607422,0.890763997906855
805,4.4149760469736066e-06,1.0,0.657213568687439,0.890763997906855
806,4.39581754108076e-06,1.0,0.6548799872398376,0.890763997906855
807,4.364952019386692e-06,1.0,0.6538842916488647,0.890763997906855
808,4.366015673440415e-06,1.0,0.6611114144325256,0.8981336124193267
809,4.337278369348496e-06,1.0,0.6553263664245605,0.890763997906855
810,4.3138620640092995e-06,1.0,0.6544093489646912,0.890763997906855
811,4.318119408708299e-06,1.0,0.6658267378807068,0.8875893947322518
812,4.306411483412376e-06,1.0,0.6625819802284241,0.8981336124193267
813,4.268094926374033e-06,1.0,0.6580032110214233,0.890763997906855
814,4.239357167534763e-06,1.0,0.6529280543327332,0.890763997906855
815,4.2659662540245336e-06,1.0,0.6644958257675171,0.8981336124193267
816,4.2414858398842625e-06,1.0,0.6603859066963196,0.890763997906855
817,4.218069989292417e-06,1.0,0.6583312749862671,0.890763997906855
818,4.170174179307651e-06,1.0,0.6531631350517273,0.890763997906855
819,4.25212920163176e-06,1.0,0.6707162261009216,0.8981336124193267
820,4.238292149238987e-06,1.0,0.6712899208068848,0.8981336124193267
821,4.197847374598496e-06,1.0,0.6700655817985535,0.8981336124193267
822,4.1691096157592256e-06,1.0,0.6642604470252991,0.8875893947322518
823,4.162723598710727e-06,1.0,0.6652799248695374,0.890763997906855
824,4.105248535779538e-06,1.0,0.6608809232711792,0.8981336124193267
825,4.093540155736264e-06,1.0,0.6598660349845886,0.890763997906855
826,4.074382104590768e-06,1.0,0.6618797183036804,0.890763997906855
827,4.0477730181009974e-06,1.0,0.6613043546676636,0.890763997906855
828,4.0360650928050745e-06,1.0,0.6600305438041687,0.890763997906855
829,4.009456006315304e-06,1.0,0.6597866415977478,0.890763997906855
830,3.9871042645245325e-06,1.0,0.6573649644851685,0.890763997906855
831,3.9551737245346885e-06,1.0,0.6585422158241272,0.890763997906855
832,3.960495632782113e-06,1.0,0.6631513833999634,0.890763997906855
833,3.929629656340694e-06,1.0,0.6604083180427551,0.890763997906855
834,3.906213351001497e-06,1.0,0.6599270701408386,0.890763997906855
835,3.9030205698509235e-06,1.0,0.6627100110054016,0.890763997906855
836,3.876411483361153e-06,1.0,0.660042941570282,0.890763997906855
837,3.8700250115653034e-06,1.0,0.6629281044006348,0.890763997906855
838,3.848738288070308e-06,1.0,0.6600459218025208,0.890763997906855
839,3.83596579922596e-06,1.0,0.663004457950592,0.890763997906855
840,3.811485385085689e-06,1.0,0.661164402961731,0.890763997906855
841,3.8093567127361894e-06,1.0,0.6644967794418335,0.890763997906855
842,3.787004970945418e-06,1.0,0.6608234643936157,0.890763997906855
843,3.7795546177221695e-06,1.0,0.665922999382019,0.890763997906855
844,3.761460675377748e-06,1.0,0.6611138582229614,0.890763997906855
845,3.771039700950496e-06,1.0,0.6670675277709961,0.890763997906855
846,3.7497525227081496e-06,1.0,0.6636638641357422,0.890763997906855
847,3.729530135387904e-06,1.0,0.6637638211250305,0.890763997906855
848,3.707178166223457e-06,1.0,0.6624389290809631,0.890763997906855
849,3.724207772393129e-06,1.0,0.6661525368690491,0.890763997906855
850,3.694405677379109e-06,1.0,0.6667441129684448,0.890763997906855
851,3.6805690797336865e-06,1.0,0.6620690226554871,0.890763997906855
852,3.653960447991267e-06,1.0,0.6678052544593811,0.890763997906855
853,3.6614110285881907e-06,1.0,0.665959894657135,0.890763997906855
854,3.6411879591469187e-06,1.0,0.6701217293739319,0.8981336124193267
855,3.6081928556086496e-06,1.0,0.6639100909233093,0.890763997906855
856,3.594356257963227e-06,1.0,0.6690763235092163,0.8981336124193267
857,3.5794550967693795e-06,1.0,0.6645952463150024,0.890763997906855
858,3.5560392461775336e-06,1.0,0.6673458814620972,0.890763997906855
859,3.5358166314836126e-06,1.0,0.6659537553787231,0.890763997906855
860,3.51772223439184e-06,1.0,0.6670440435409546,0.890763997906855
861,3.510271881168592e-06,1.0,0.6663929224014282,0.890763997906855
862,3.4943063837999944e-06,1.0,0.6674879789352417,0.890763997906855
863,3.476212441455573e-06,1.0,0.6661645174026489,0.890763997906855
864,3.4772767776303226e-06,1.0,0.6683231592178345,0.890763997906855
865,3.4570537081890507e-06,1.0,0.6663067936897278,0.890763997906855
866,3.449603809713153e-06,1.0,0.6698310971260071,0.890763997906855
867,3.436831320868805e-06,1.0,0.6663098931312561,0.890763997906855
868,3.4336376302235294e-06,1.0,0.6712690591812134,0.890763997906855
869,3.416608251427533e-06,1.0,0.6684107780456543,0.890763997906855
870,3.4017070902336854e-06,1.0,0.6689627766609192,0.890763997906855
871,3.3857418202387635e-06,1.0,0.667999267578125,0.890763997906855
872,3.3846774840640137e-06,1.0,0.6701418161392212,0.890763997906855
873,3.370840659044916e-06,1.0,0.6704460382461548,0.890763997906855
874,3.3527467167004943e-06,1.0,0.6692325472831726,0.890763997906855
875,3.333587983433972e-06,1.0,0.6694338917732239,0.890763997906855
876,3.335716883157147e-06,1.0,0.6717426180839539,0.890763997906855
877,3.3101721328421263e-06,1.0,0.6728352904319763,0.890763997906855
878,3.2995287710946286e-06,1.0,0.6685277819633484,0.890763997906855
879,3.278241365478607e-06,1.0,0.6735160946846008,0.890763997906855
880,3.277177029303857e-06,1.0,0.6706363558769226,0.890763997906855
881,3.2537614060856868e-06,1.0,0.6725984215736389,0.890763997906855
882,3.23566723636759e-06,1.0,0.6708064079284668,0.890763997906855
883,3.221830411348492e-06,1.0,0.6725994348526001,0.890763997906855
884,3.2122511584020685e-06,1.0,0.6726085543632507,0.890763997906855
885,3.199478896931396e-06,1.0,0.6717557907104492,0.890763997906855
886,3.185642071912298e-06,1.0,0.672488808631897,0.890763997906855
887,3.1760628189658746e-06,1.0,0.6729194521903992,0.890763997906855
888,3.1771273825143e-06,1.0,0.6728668212890625,0.890763997906855
889,3.153711077175103e-06,1.0,0.6746910214424133,0.890763997906855
890,3.1483893963013543e-06,1.0,0.6723431944847107,0.890763997906855
891,3.1334882351075066e-06,1.0,0.6744076013565063,0.890763997906855
892,3.130295681330608e-06,1.0,0.673636257648468,0.890763997906855
893,3.1079439395398367e-06,1.0,0.676936149597168,0.890763997906855
894,3.0973003504186636e-06,1.0,0.6732460856437683,0.890763997906855
895,3.0728199362783926e-06,1.0,0.6753421425819397,0.890763997906855
896,3.0728199362783926e-06,1.0,0.6746641993522644,0.890763997906855
897,3.0525973215844715e-06,1.0,0.6755084991455078,0.890763997906855
898,3.043018068638048e-06,1.0,0.6748465299606323,0.890763997906855
899,3.025988235094701e-06,1.0,0.6756052374839783,0.890763997906855
900,3.0217306630220264e-06,1.0,0.6759390234947205,0.890763997906855
901,2.997250476255431e-06,1.0,0.676148533821106,0.890763997906855
902,2.9983148124301806e-06,1.0,0.6758207678794861,0.890763997906855
903,2.970641162391985e-06,1.0,0.6764994859695435,0.890763997906855
904,2.974898961838335e-06,1.0,0.6760364174842834,0.890763997906855
905,2.9578691282949876e-06,1.0,0.6779089570045471,0.890763997906855
906,2.94190363092639e-06,1.0,0.6761187314987183,0.890763997906855
907,2.9323241506062914e-06,1.0,0.6781306862831116,0.890763997906855
908,2.9238094612082932e-06,1.0,0.6768746376037598,0.890763997906855
909,2.901457946791197e-06,1.0,0.6776415109634399,0.890763997906855
910,2.8961362659174483e-06,1.0,0.6774093508720398,0.890763997906855
911,2.8833637770731e-06,1.0,0.6785659790039062,0.890763997906855
912,2.8801709959225263e-06,1.0,0.6780632138252258,0.890763997906855
913,2.8684626158792526e-06,1.0,0.6780184507369995,0.890763997906855
914,2.8524973458843306e-06,1.0,0.6782113909721375,0.890763997906855
915,2.8439826564863324e-06,1.0,0.6793563961982727,0.890763997906855
916,2.8375964120641584e-06,1.0,0.678695559501648,0.890763997906855
917,2.821630914695561e-06,1.0,0.6794022917747498,0.890763997906855
918,2.8152448976470623e-06,1.0,0.6784436106681824,0.890763997906855
919,2.799279400278465e-06,1.0,0.6806306838989258,0.890763997906855
920,2.7939574920310406e-06,1.0,0.6794038414955139,0.890763997906855
921,2.783314130283543e-06,1.0,0.6808363795280457,0.890763997906855
922,2.7705414140655193e-06,1.0,0.6794392466545105,0.890763997906855
923,2.7545761440705974e-06,1.0,0.6818442344665527,0.890763997906855
924,2.7428682187746745e-06,1.0,0.6802237629890442,0.890763997906855
925,2.731160066105076e-06,1.0,0.6812930107116699,0.890763997906855
926,2.7247740490565775e-06,1.0,0.6808415055274963,0.890763997906855
927,2.7109376787848305e-06,1.0,0.6820438504219055,0.890763997906855
928,2.7002936349163065e-06,1.0,0.6813467144966125,0.890763997906855
929,2.688585936994059e-06,1.0,0.6821643114089966,0.890763997906855
930,2.682199692571885e-06,1.0,0.6811307072639465,0.890763997906855
931,2.6662341952032875e-06,1.0,0.6828202605247498,0.890763997906855
932,2.661976623130613e-06,1.0,0.681730329990387,0.890763997906855
933,2.6460111257620156e-06,1.0,0.6826496720314026,0.890763997906855
934,2.6406894448882667e-06,1.0,0.6822870373725891,0.890763997906855
935,2.6300458557670936e-06,1.0,0.6835448145866394,0.890763997906855
936,2.615144694573246e-06,1.0,0.6831183433532715,0.890763997906855
937,2.6076943413499976e-06,1.0,0.6835547685623169,0.890763997906855
938,2.5959864160540747e-06,1.0,0.6830996870994568,0.890763997906855
939,2.5885360628308263e-06,1.0,0.683957576751709,0.890763997906855
940,2.5789565825107275e-06,1.0,0.6832613348960876,0.890763997906855
941,2.5661845484137302e-06,1.0,0.684583842754364,0.890763997906855
942,2.5597980766178807e-06,1.0,0.683732807636261,0.890763997906855
943,2.541704134273459e-06,1.0,0.6845064163208008,0.890763997906855
944,2.541704134273459e-06,1.0,0.6839825510978699,0.890763997906855
945,2.5214810648321873e-06,1.0,0.6852456331253052,0.890763997906855
946,2.5129661480605137e-06,1.0,0.6844719648361206,0.890763997906855
947,2.50445123128884e-06,1.0,0.6853546500205994,0.890763997906855
948,2.495936087143491e-06,1.0,0.6844998598098755,0.890763997906855
949,2.4842283892212436e-06,1.0,0.6860222816467285,0.890763997906855
950,2.477842372172745e-06,1.0,0.6849972009658813,0.890763997906855
951,2.468262891852646e-06,1.0,0.6858925223350525,0.890763997906855
952,2.4544262942072237e-06,1.0,0.685513973236084,0.890763997906855
953,2.4469757136103e-06,1.0,0.6867491006851196,0.890763997906855
954,2.4437827050860506e-06,1.0,0.6861675977706909,0.890763997906855
955,2.431010443615378e-06,1.0,0.6869128346443176,0.890763997906855
956,2.4214311906689545e-06,1.0,0.6861203908920288,0.890763997906855
957,2.410787374174106e-06,1.0,0.6874823570251465,0.890763997906855
958,2.403336793577182e-06,1.0,0.6862262487411499,0.890763997906855
959,2.400143785052933e-06,1.0,0.6878503561019897,0.890763997906855
960,2.3884360871306853e-06,1.0,0.6870254278182983,0.890763997906855
961,2.3756635982863372e-06,1.0,0.6882398724555969,0.890763997906855
962,2.3735349259368377e-06,1.0,0.6874851584434509,0.890763997906855
963,2.35969810091774e-06,1.0,0.6883573532104492,0.890763997906855
964,2.3543761926703155e-06,1.0,0.6877536177635193,0.890763997906855
965,2.3479899482481414e-06,1.0,0.688886821269989,0.890763997906855
966,2.3320246782532195e-06,1.0,0.6882144808769226,0.890763997906855
967,2.320316980330972e-06,1.0,0.6890377998352051,0.890763997906855
968,2.308608600287698e-06,1.0,0.6883882284164429,0.890763997906855
969,2.30115824706445e-06,1.0,0.6894669532775879,0.890763997906855
970,2.2883857582201017e-06,1.0,0.6889351606369019,0.890763997906855
971,2.283064077346353e-06,1.0,0.6898142695426941,0.890763997906855
972,2.2777421690989286e-06,1.0,0.6892076730728149,0.890763997906855
973,2.2670985799777554e-06,1.0,0.6901760101318359,0.890763997906855
974,2.2607123355555814e-06,1.0,0.6895291209220886,0.890763997906855
975,2.2436822746385587e-06,1.0,0.6904999613761902,0.890763997906855
976,2.23836059376481e-06,1.0,0.6897168755531311,0.890763997906855
977,2.2330386855173856e-06,1.0,0.6909670829772949,0.890763997906855
978,2.2266524410952115e-06,1.0,0.6902971863746643,0.890763997906855
979,2.2149449705466395e-06,1.0,0.6914647221565247,0.890763997906855
980,2.2085587261244655e-06,1.0,0.6906799674034119,0.890763997906855
981,2.203236817877041e-06,1.0,0.691852867603302,0.890763997906855
982,2.1915288925811183e-06,1.0,0.6913289427757263,0.890763997906855
983,2.17982073991152e-06,1.0,0.6922748684883118,0.890763997906855
984,2.1723703866882715e-06,1.0,0.6917030215263367,0.890763997906855
985,2.1670484784408472e-06,1.0,0.692453920841217,0.890763997906855
986,2.156404889319674e-06,1.0,0.6920287013053894,0.890763997906855
987,2.1500186448975e-06,1.0,0.6928519010543823,0.890763997906855
988,2.136181819878402e-06,1.0,0.6923771500587463,0.890763997906855
989,2.1319242478057276e-06,1.0,0.6931561231613159,0.890763997906855
990,2.126602566931979e-06,1.0,0.6930070519447327,0.890763997906855
991,2.1159589778108057e-06,1.0,0.6937922835350037,0.890763997906855
992,2.1106370695633814e-06,1.0,0.6935139298439026,0.890763997906855
993,2.101057816616958e-06,1.0,0.694465160369873,0.890763997906855
994,2.0936074633937096e-06,1.0,0.6942147016525269,0.890763997906855
995,2.0808349745493615e-06,1.0,0.6945676803588867,0.890763997906855
996,2.078706302199862e-06,1.0,0.6947593092918396,0.890763997906855
997,2.0669981495302636e-06,1.0,0.6954320669174194,0.890763997906855
998,2.0616764686565148e-06,1.0,0.6948565244674683,0.890763997906855
999,2.053161551884841e-06,1.0,0.6957467794418335,0.890763997906855
