,loss,recall,val_loss,val_recall
0,0.561869204044342,0.5275007730364873,0.5985182523727417,0.38690476190476186
1,0.3558032810688019,0.8281179138321996,0.5095938444137573,0.6313481161695448
2,0.2719053328037262,0.8672850958565245,0.37005192041397095,0.8581959706959708
3,0.2343570441007614,0.9067975675118533,0.32995668053627014,0.8523853130995988
4,0.19729045033454895,0.9214285714285714,0.3287573456764221,0.8636904761904762
5,0.21161054074764252,0.9238636363636364,0.3864997923374176,0.8482142857142857
6,0.17972472310066223,0.927721088435374,0.6083249449729919,0.8095270800627944
7,0.13460569083690643,0.9642857142857143,0.288398414850235,0.8909804481233053
8,0.1099405437707901,0.9458874458874459,0.328730046749115,0.8831632653061224
9,0.06650061160326004,1.0,0.2763619124889374,0.9050960943818086
10,0.07441030442714691,0.9880952380952381,0.2501419186592102,0.9192735835592979
11,0.0534747913479805,1.0,0.7830883860588074,0.7612640335854621
12,0.05155596137046814,1.0,0.4079512059688568,0.8496315192743763
13,0.05040167644619942,0.9761904761904762,0.26540106534957886,0.8950680272108844
14,0.06586536765098572,0.9696969696969697,0.2748491168022156,0.9299319727891157
15,0.041226573288440704,1.0,0.3585200905799866,0.8879251700680273
16,0.03881217911839485,1.0,0.36254677176475525,0.8738662131519275
17,0.0210264902561903,1.0,0.4611035883426666,0.8966545359402502
18,0.02446931041777134,1.0,0.3147483468055725,0.92987012987013
19,0.019365448504686356,1.0,0.33032605051994324,0.9190476190476191
20,0.0067978366278111935,1.0,0.4917958080768585,0.9003341896199039
21,0.0076566725037992,1.0,0.32097792625427246,0.92987012987013
22,0.005134773440659046,1.0,0.29923489689826965,0.9247680890538034
23,0.0033472490031272173,1.0,0.32980355620384216,0.9336116264687693
24,0.003344434779137373,1.0,0.3226649761199951,0.9336116264687693
25,0.002540130401030183,1.0,0.31826886534690857,0.9247680890538034
26,0.0021816936787217855,1.0,0.32645201683044434,0.9247680890538034
27,0.0019459764007478952,1.0,0.3382250666618347,0.9247680890538034
28,0.0017666667699813843,1.0,0.3461352288722992,0.9247680890538034
29,0.0016460231272503734,1.0,0.3489232659339905,0.9247680890538034
30,0.0015445520402863622,1.0,0.34990599751472473,0.9247680890538034
31,0.0014533739304170012,1.0,0.35135263204574585,0.9247680890538034
32,0.001373462611809373,1.0,0.35369810461997986,0.9247680890538034
33,0.0013023939682170749,1.0,0.35645145177841187,0.9247680890538034
34,0.0012389541370794177,1.0,0.3591252267360687,0.9247680890538034
35,0.0011815698817372322,1.0,0.3616091310977936,0.9247680890538034
36,0.0011287832166999578,1.0,0.3640822470188141,0.9247680890538034
37,0.0010798927396535873,1.0,0.3667266070842743,0.9247680890538034
38,0.0010346128838136792,1.0,0.36929017305374146,0.9247680890538034
39,0.0009925877675414085,1.0,0.37162038683891296,0.9247680890538034
40,0.000953490030951798,1.0,0.37363940477371216,0.9247680890538034
41,0.000917055644094944,1.0,0.37538647651672363,0.9247680890538034
42,0.0008829358266666532,1.0,0.37692180275917053,0.9247680890538034
43,0.000850887387059629,1.0,0.37834885716438293,0.9247680890538034
44,0.0008207186474464834,1.0,0.37981924414634705,0.9247680890538034
45,0.0007923045195639133,1.0,0.3812418580055237,0.9247680890538034
46,0.0007655008812434971,1.0,0.38263994455337524,0.9247680890538034
47,0.0007401676848530769,1.0,0.3840107023715973,0.9247680890538034
48,0.0007161979447118938,1.0,0.3854171931743622,0.9247680890538034
49,0.000693444162607193,1.0,0.3867970108985901,0.9247680890538034
50,0.000671815883833915,1.0,0.38800695538520813,0.9247680890538034
51,0.0006512516411021352,1.0,0.38915228843688965,0.9247680890538034
52,0.0006316708750091493,1.0,0.390396386384964,0.9247680890538034
53,0.0006130259134806693,1.0,0.39164331555366516,0.9247680890538034
54,0.000595217919908464,1.0,0.3928125202655792,0.9247680890538034
55,0.0005782342632301152,1.0,0.39393648505210876,0.9247680890538034
56,0.0005619963048957288,1.0,0.394959032535553,0.9247680890538034
57,0.000546474358998239,1.0,0.39592090249061584,0.9247680890538034
58,0.0005316206952556968,1.0,0.39684996008872986,0.9247680890538034
59,0.0005173864774405956,1.0,0.3978841006755829,0.9247680890538034
60,0.0005037440569140017,1.0,0.3989897072315216,0.9247680890538034
61,0.0004906509420834482,1.0,0.4000878632068634,0.9247680890538034
62,0.00047807744704186916,1.0,0.4011698365211487,0.9247680890538034
63,0.00046605331590399146,1.0,0.4021624028682709,0.9247680890538034
64,0.0004544957191683352,1.0,0.40320754051208496,0.9247680890538034
65,0.00044338771840557456,1.0,0.4042474627494812,0.9247680890538034
66,0.00043268673471175134,1.0,0.40516477823257446,0.9247680890538034
67,0.00042235763976350427,1.0,0.4060879349708557,0.9247680890538034
68,0.00041243890882469714,1.0,0.4069593846797943,0.9247680890538034
69,0.00040288473246619105,1.0,0.4077904522418976,0.9247680890538034
70,0.0003936525317840278,1.0,0.4085507392883301,0.9247680890538034
71,0.0003847360785584897,1.0,0.4093119502067566,0.9247680890538034
72,0.0003761161642614752,1.0,0.4101315438747406,0.9247680890538034
73,0.00036781097878701985,1.0,0.4109928607940674,0.9247680890538034
74,0.00035980125539936125,1.0,0.41182711720466614,0.9247680890538034
75,0.00035207331529818475,1.0,0.41263502836227417,0.9247680890538034
76,0.00034458452137187123,1.0,0.4134667217731476,0.9247680890538034
77,0.00033734875614754856,1.0,0.41430214047431946,0.9247680890538034
78,0.0003303405246697366,1.0,0.41511884331703186,0.9247680890538034
79,0.00032356721931137145,1.0,0.4158205986022949,0.9247680890538034
80,0.0003169980482198298,1.0,0.4164985716342926,0.9247680890538034
81,0.00031061176559887826,1.0,0.4172312319278717,0.9247680890538034
82,0.00030444873846136034,1.0,0.41796383261680603,0.9247680890538034
83,0.00029847610858269036,1.0,0.4186970889568329,0.9247680890538034
84,0.0002926778106484562,1.0,0.419457346200943,0.9247680890538034
85,0.000287070928607136,1.0,0.4201796054840088,0.9247680890538034
86,0.00028162356466054916,1.0,0.42087793350219727,0.9247680890538034
87,0.00027633144054561853,1.0,0.42156338691711426,0.9247680890538034
88,0.00027118599973618984,1.0,0.4222342073917389,0.9247680890538034
89,0.0002662022307049483,1.0,0.4228750169277191,0.9247680890538034
90,0.00026135033112950623,1.0,0.42351648211479187,0.9247680890538034
91,0.00025663242558948696,1.0,0.42418473958969116,0.9247680890538034
92,0.0002520474372431636,1.0,0.42485126852989197,0.9247680890538034
93,0.000247590069193393,1.0,0.4254608154296875,0.9247680890538034
94,0.00024324223340954632,1.0,0.42603591084480286,0.9165429808286952
95,0.00023902623797766864,1.0,0.42664018273353577,0.9165429808286952
96,0.00023491344472859055,1.0,0.42720434069633484,0.9165429808286952
97,0.0002308984549017623,1.0,0.42773160338401794,0.9165429808286952
98,0.00022698772954754531,1.0,0.4282858073711395,0.9165429808286952
99,0.00022317588445730507,1.0,0.4288179278373718,0.9165429808286952
100,0.00021946188644506037,1.0,0.42945775389671326,0.9165429808286952
101,0.00021583936177194118,1.0,0.4300318658351898,0.9165429808286952
102,0.0002123136364389211,1.0,0.43052536249160767,0.9165429808286952
103,0.0002088782930513844,1.0,0.431019127368927,0.9165429808286952
104,0.00020552058413159102,1.0,0.43155449628829956,0.9165429808286952
105,0.0002022448170464486,1.0,0.43208786845207214,0.9165429808286952
106,0.00019905835506506264,1.0,0.43265673518180847,0.9165429808286952
107,0.00019593040633480996,1.0,0.4332320988178253,0.9165429808286952
108,0.0001928769052028656,1.0,0.43377283215522766,0.9165429808286952
109,0.00018989785166922957,1.0,0.4342644512653351,0.9165429808286952
110,0.0001869826519396156,1.0,0.4347846806049347,0.9165429808286952
111,0.00018414827354718,1.0,0.4353333115577698,0.9165429808286952
112,0.00018136067956220359,1.0,0.4358981251716614,0.9165429808286952
113,0.0001786369102774188,1.0,0.43643471598625183,0.9165429808286952
114,0.00017597060650587082,1.0,0.43694305419921875,0.9165429808286952
115,0.0001733617391437292,1.0,0.43738943338394165,0.9165429808286952
116,0.0001708241325104609,1.0,0.43784502148628235,0.9165429808286952
117,0.00016833546396810561,1.0,0.43830153346061707,0.9165429808286952
118,0.0001659095287322998,1.0,0.4387771189212799,0.9165429808286952
119,0.00016353682440239936,1.0,0.4392503798007965,0.9165429808286952
120,0.00016120876534841955,1.0,0.43975186347961426,0.9165429808286952
121,0.000158942406415008,1.0,0.44025740027427673,0.9165429808286952
122,0.00015671647270210087,1.0,0.44071003794670105,0.9165429808286952
123,0.00015453630476258695,1.0,0.4411829113960266,0.9165429808286952
124,0.00015240612265188247,1.0,0.44162052869796753,0.9165429808286952
125,0.0001503078528912738,1.0,0.44205835461616516,0.9165429808286952
126,0.00014825852122157812,1.0,0.44247475266456604,0.9165429808286952
127,0.00014626023767050356,1.0,0.4428562521934509,0.9165429808286952
128,0.0001442992070224136,1.0,0.44326600432395935,0.9165429808286952
129,0.00014235945127438754,1.0,0.44372957944869995,0.9165429808286952
130,0.00014048565935809165,1.0,0.44419947266578674,0.9165429808286952
131,0.00013863523781765252,1.0,0.4446272850036621,0.9165429808286952
132,0.00013681782002095133,1.0,0.44503751397132874,0.9165429808286952
133,0.00013504084199666977,1.0,0.4454803168773651,0.9165429808286952
134,0.0001332989486400038,1.0,0.4458950459957123,0.9165429808286952
135,0.00013159432273823768,1.0,0.44627639651298523,0.9165429808286952
136,0.00012991625408176333,1.0,0.4466743767261505,0.9165429808286952
137,0.00012827225145883858,1.0,0.4470924437046051,0.9165429808286952
138,0.00012666441034525633,1.0,0.4474335312843323,0.9165429808286952
139,0.00012507785868365318,1.0,0.4477860629558563,0.9165429808286952
140,0.0001235242816619575,1.0,0.448215514421463,0.9165429808286952
141,0.00012199517368571833,1.0,0.4486536681652069,0.9165429808286952
142,0.00012050544319208711,1.0,0.44909587502479553,0.9165429808286952
143,0.0001190348484669812,1.0,0.44955673813819885,0.9165429808286952
144,0.00011758661275962368,1.0,0.44997379183769226,0.9165429808286952
145,0.00011617028212640435,1.0,0.45039454102516174,0.9165429808286952
146,0.00011477735824882984,1.0,0.4507931172847748,0.9165429808286952
147,0.00011340039054630324,1.0,0.4511678218841553,0.9165429808286952
148,0.00011205748160136864,1.0,0.45154914259910583,0.9165429808286952
149,0.000110734770714771,1.0,0.45194464921951294,0.9165429808286952
150,0.00010943227971438318,1.0,0.4523143470287323,0.9165429808286952
151,0.00010815639689099044,1.0,0.45268693566322327,0.9165429808286952
152,0.00010690605267882347,1.0,0.4530477225780487,0.9165429808286952
153,0.00010566739365458488,1.0,0.45344898104667664,0.9165429808286952
154,0.00010445640509715304,1.0,0.453817754983902,0.9165429808286952
155,0.00010326137999072671,1.0,0.454172819852829,0.9165429808286952
156,0.00010209402535110712,1.0,0.4544961750507355,0.9165429808286952
157,0.00010094687604578212,1.0,0.4548175036907196,0.9165429808286952
158,9.981568291550502e-05,1.0,0.4551651179790497,0.9165429808286952
159,9.869832138065249e-05,1.0,0.45557284355163574,0.9165429808286952
160,9.760757529875264e-05,1.0,0.45595675706863403,0.9165429808286952
161,9.652214066591114e-05,1.0,0.4562867283821106,0.9165429808286952
162,9.546543878968805e-05,1.0,0.4566194713115692,0.9165429808286952
163,9.44225539569743e-05,1.0,0.4569771885871887,0.9165429808286952
164,9.339670941699296e-05,1.0,0.4573102593421936,0.9165429808286952
165,9.239000792149454e-05,1.0,0.4576230049133301,0.9165429808286952
166,9.139183384831995e-05,1.0,0.4579455852508545,0.9165429808286952
167,9.040960139827803e-05,1.0,0.45830971002578735,0.9165429808286952
168,8.944227738538757e-05,1.0,0.45863208174705505,0.9165429808286952
169,8.849940786603838e-05,1.0,0.45893028378486633,0.9165429808286952
170,8.756294118938968e-05,1.0,0.45928755402565,0.9165429808286952
171,8.663924381835386e-05,1.0,0.45964235067367554,0.9165429808286952
172,8.572723891120404e-05,1.0,0.45998868346214294,0.9165429808286952
173,8.484077261528e-05,1.0,0.4603481888771057,0.9165429808286952
174,8.39575077407062e-05,1.0,0.46068575978279114,0.9165429808286952
175,8.309871918754652e-05,1.0,0.4609767496585846,0.9165429808286952
176,8.223352779168636e-05,1.0,0.46131300926208496,0.9165429808286952
177,8.139601413859054e-05,1.0,0.4616435170173645,0.9165429808286952
178,8.056913793552667e-05,1.0,0.46195125579833984,0.9165429808286952
179,7.974758773343638e-05,1.0,0.4622475206851959,0.9165429808286952
180,7.894199370639399e-05,1.0,0.4625343382358551,0.9165429808286952
181,7.814385025994852e-05,1.0,0.46284741163253784,0.9165429808286952
182,7.735740655334666e-05,1.0,0.4631367623806,0.9165429808286952
183,7.658905815333128e-05,1.0,0.463457316160202,0.9165429808286952
184,7.582070247735828e-05,1.0,0.4637877345085144,0.9165429808286952
185,7.507363625336438e-05,1.0,0.46411970257759094,0.9165429808286952
186,7.433294376824051e-05,1.0,0.4644011855125427,0.9165429808286952
187,7.359652227023616e-05,1.0,0.4646955132484436,0.9165429808286952
188,7.288136839633808e-05,1.0,0.4650290608406067,0.9165429808286952
189,7.21789983799681e-05,1.0,0.4653491675853729,0.9165429808286952
190,7.147875294322148e-05,1.0,0.46565383672714233,0.9165429808286952
191,7.079339411575347e-05,1.0,0.46595141291618347,0.9165429808286952
192,7.011655543465167e-05,1.0,0.4662526249885559,0.9165429808286952
193,6.944077904336154e-05,1.0,0.4665257930755615,0.9165429808286952
194,6.878948624944314e-05,1.0,0.46679964661598206,0.9165429808286952
195,6.812966603320092e-05,1.0,0.4670926630496979,0.9165429808286952
196,6.749432941433042e-05,1.0,0.46737179160118103,0.9165429808286952
197,6.685686093987897e-05,1.0,0.4676370322704315,0.9165429808286952
198,6.623002991545945e-05,1.0,0.467911034822464,0.9165429808286952
199,6.561598274856806e-05,1.0,0.4681989252567291,0.9165429808286952
200,6.50072397547774e-05,1.0,0.4685181975364685,0.9165429808286952
201,6.440489232772961e-05,1.0,0.4688235819339752,0.9165429808286952
202,6.380466948030517e-05,1.0,0.46909299492836,0.9165429808286952
203,6.321934051811695e-05,1.0,0.4693511128425598,0.9165429808286952
204,6.265210686251521e-05,1.0,0.46960559487342834,0.9165429808286952
205,6.208061677170917e-05,1.0,0.4698770344257355,0.9165429808286952
206,6.151657726150006e-05,1.0,0.47013697028160095,0.9165429808286952
207,6.095572098274715e-05,1.0,0.470412015914917,0.9165429808286952
208,6.040337757440284e-05,1.0,0.4706903100013733,0.9165429808286952
209,5.985849566059187e-05,1.0,0.47096624970436096,0.9165429808286952
210,5.932531348662451e-05,1.0,0.47127991914749146,0.9165429808286952
211,5.879745367565192e-05,1.0,0.4715976119041443,0.9165429808286952
212,5.827171844430268e-05,1.0,0.47189733386039734,0.9165429808286952
213,5.7756627938942984e-05,1.0,0.47217780351638794,0.9165429808286952
214,5.7255365391029045e-05,1.0,0.4724845886230469,0.9165429808286952
215,5.674985368386842e-05,1.0,0.47277307510375977,0.9165429808286952
216,5.6251792557304725e-05,1.0,0.47306790947914124,0.9165429808286952
217,5.5749467719579116e-05,1.0,0.47333869338035583,0.9165429808286952
218,5.526736640604213e-05,1.0,0.47359150648117065,0.9165429808286952
219,5.4786323744338006e-05,1.0,0.47383373975753784,0.9165429808286952
220,5.431592580862343e-05,1.0,0.47408393025398254,0.9165429808286952
221,5.3846597438678145e-05,1.0,0.47436264157295227,0.9165429808286952
222,5.338470873539336e-05,1.0,0.47463303804397583,0.9165429808286952
223,5.293239883030765e-05,1.0,0.4748987555503845,0.9165429808286952
224,5.248009256320074e-05,1.0,0.47516074776649475,0.9165429808286952
225,5.203310865908861e-05,1.0,0.4754156470298767,0.9165429808286952
226,5.158717976883054e-05,1.0,0.47568508982658386,0.9165429808286952
227,5.1150844228686765e-05,1.0,0.47595930099487305,0.9165429808286952
228,5.0723010645015165e-05,1.0,0.4762093126773834,0.9165429808286952
229,5.0297305278945714e-05,1.0,0.4764648377895355,0.9165429808286952
230,4.9874801334226504e-05,1.0,0.47671857476234436,0.9165429808286952
231,4.946293120156042e-05,1.0,0.47697144746780396,0.9165429808286952
232,4.905531750409864e-05,1.0,0.4772503674030304,0.9165429808286952
233,4.865409209742211e-05,1.0,0.477549284696579,0.9165429808286952
234,4.8252870328724384e-05,1.0,0.4778171181678772,0.9165429808286952
235,4.7856960009085014e-05,1.0,0.47808048129081726,0.9165429808286952
236,4.746318518300541e-05,1.0,0.4783245921134949,0.9165429808286952
237,4.7066216211533174e-05,1.0,0.4785776138305664,0.9165429808286952
238,4.668733890866861e-05,1.0,0.4788423478603363,0.9165429808286952
239,4.63095166196581e-05,1.0,0.47910770773887634,0.9165429808286952
240,4.5933837100164965e-05,1.0,0.479380339384079,0.9165429808286952
241,4.556879139272496e-05,1.0,0.47964242100715637,0.9165429808286952
242,4.5203749323263764e-05,1.0,0.47989997267723083,0.9165429808286952
243,4.4837634050054476e-05,1.0,0.4801478385925293,0.9165429808286952
244,4.448430263437331e-05,1.0,0.48039573431015015,0.9165429808286952
245,4.41277697973419e-05,1.0,0.4806298613548279,0.9165429808286952
246,4.377762525109574e-05,1.0,0.4808633029460907,0.9165429808286952
247,4.343386535765603e-05,1.0,0.4810895323753357,0.9165429808286952
248,4.3097556044813246e-05,1.0,0.48131063580513,0.9165429808286952
249,4.276230902178213e-05,1.0,0.4815177619457245,0.9165429808286952
250,4.241748320055194e-05,1.0,0.48173531889915466,0.9165429808286952
251,4.209074904792942e-05,1.0,0.48197904229164124,0.9165429808286952
252,4.1766146750887856e-05,1.0,0.48222270607948303,0.9165429808286952
253,4.144047852605581e-05,1.0,0.4824429452419281,0.9165429808286952
254,4.111693488084711e-05,1.0,0.4826395511627197,0.9165429808286952
255,4.0809358324622735e-05,1.0,0.4828513264656067,0.9165429808286952
256,4.048794653499499e-05,1.0,0.4830906391143799,0.9165429808286952
257,4.018675463157706e-05,1.0,0.48331204056739807,0.9165429808286952
258,3.987705349572934e-05,1.0,0.48352864384651184,0.9165429808286952
259,3.956841101171449e-05,1.0,0.4837470054626465,0.9165429808286952
260,3.9269350963877514e-05,1.0,0.4839796721935272,0.9165429808286952
261,3.8979862438282e-05,1.0,0.4842188060283661,0.9165429808286952
262,3.8676545955240726e-05,1.0,0.48444435000419617,0.9165429808286952
263,3.839025157503784e-05,1.0,0.48468250036239624,0.9110484753341898
264,3.8105023122625425e-05,1.0,0.4848918914794922,0.9110484753341898
265,3.7818728742422536e-05,1.0,0.48507335782051086,0.9110484753341898
266,3.752605334739201e-05,1.0,0.48527035117149353,0.9110484753341898
267,3.724720954778604e-05,1.0,0.4854636788368225,0.9110484753341898
268,3.69672998203896e-05,1.0,0.48567458987236023,0.9110484753341898
269,3.6696972529171035e-05,1.0,0.48588892817497253,0.9110484753341898
270,3.641919101937674e-05,1.0,0.4861088693141937,0.9110484753341898
271,3.6150991945760325e-05,1.0,0.48633235692977905,0.9110484753341898
272,3.58955621777568e-05,1.0,0.4865496754646301,0.9110484753341898
273,3.5633744118968025e-05,1.0,0.48675546050071716,0.9110484753341898
274,3.536554504535161e-05,1.0,0.4869443476200104,0.9110484753341898
275,3.510585884214379e-05,1.0,0.4871477782726288,0.9110484753341898
276,3.4855747799156234e-05,1.0,0.4873514175415039,0.9110484753341898
277,3.4603515814524144e-05,1.0,0.48753538727760315,0.9110484753341898
278,3.435021062614396e-05,1.0,0.48774221539497375,0.9110484753341898
279,3.4103293728549033e-05,1.0,0.4879516661167145,0.9110484753341898
280,3.386063690413721e-05,1.0,0.48816919326782227,0.9110484753341898
281,3.361584822414443e-05,1.0,0.4883863031864166,0.9110484753341898
282,3.337425732752308e-05,1.0,0.48859280347824097,0.9110484753341898
283,3.313159686513245e-05,1.0,0.4887893497943878,0.9110484753341898
284,3.289106098236516e-05,1.0,0.4889773428440094,0.9110484753341898
285,3.2664367608958855e-05,1.0,0.4891546368598938,0.9110484753341898
286,3.242596721975133e-05,1.0,0.4893506169319153,0.9110484753341898
287,3.220033613615669e-05,1.0,0.48955222964286804,0.9110484753341898
288,3.1968316761776805e-05,1.0,0.489738404750824,0.9110484753341898
289,3.174907396896742e-05,1.0,0.4899263381958008,0.9110484753341898
290,3.152983117615804e-05,1.0,0.4901387691497803,0.9110484753341898
291,3.131058474536985e-05,1.0,0.4903393089771271,0.9110484753341898
292,3.1089210096979514e-05,1.0,0.49053916335105896,0.9110484753341898
293,3.086570359300822e-05,1.0,0.4907609820365906,0.9110484753341898
294,3.064752309001051e-05,1.0,0.4909760653972626,0.9110484753341898
295,3.043998367502354e-05,1.0,0.4911596179008484,0.9110484753341898
296,3.0231383789214306e-05,1.0,0.49134060740470886,0.9110484753341898
297,3.0014265576028265e-05,1.0,0.49152687191963196,0.9110484753341898
298,2.981417674163822e-05,1.0,0.49171775579452515,0.9110484753341898
299,2.9611957870656624e-05,1.0,0.4919089674949646,0.9110484753341898
300,2.941293132607825e-05,1.0,0.49211153388023376,0.9110484753341898
301,2.9205393730080687e-05,1.0,0.492318719625473,0.9110484753341898
302,2.9010627258685417e-05,1.0,0.49252939224243164,0.9110484753341898
303,2.8811600714107044e-05,1.0,0.4927200675010681,0.9110484753341898
304,2.8607251806533895e-05,1.0,0.49292606115341187,0.9110484753341898
305,2.841993591573555e-05,1.0,0.4931078851222992,0.9110484753341898
306,2.8224105335539207e-05,1.0,0.49327993392944336,0.9110484753341898
307,2.8033591661369428e-05,1.0,0.49345701932907104,0.9110484753341898
308,2.784095522656571e-05,1.0,0.4936562180519104,0.9110484753341898
309,2.765895624179393e-05,1.0,0.4938817322254181,0.9110484753341898
310,2.747164216998499e-05,1.0,0.4940822124481201,0.9110484753341898
311,2.7291771402815357e-05,1.0,0.49426761269569397,0.9110484753341898
312,2.710338776523713e-05,1.0,0.4944530427455902,0.9110484753341898
313,2.692884299904108e-05,1.0,0.49466538429260254,0.9110484753341898
314,2.674471579666715e-05,1.0,0.49488234519958496,0.9110484753341898
315,2.65616545220837e-05,1.0,0.4950968623161316,0.9110484753341898
316,2.639030026330147e-05,1.0,0.4952809810638428,0.9110484753341898
317,2.6215753678116016e-05,1.0,0.49547579884529114,0.9110484753341898
318,2.604440123832319e-05,1.0,0.49563804268836975,0.9110484753341898
319,2.5871982870739885e-05,1.0,0.4957956373691559,0.9110484753341898
320,2.56984967563767e-05,1.0,0.49597981572151184,0.9110484753341898
321,2.5535657186992466e-05,1.0,0.49618980288505554,0.9110484753341898
322,2.5363240638398565e-05,1.0,0.496359258890152,0.9110484753341898
323,2.519933696021326e-05,1.0,0.49654078483581543,0.9110484753341898
324,2.503543146303855e-05,1.0,0.49674272537231445,0.9110484753341898
325,2.4873657821444795e-05,1.0,0.4969231188297272,0.9110484753341898
326,2.4714008759474382e-05,1.0,0.4971035122871399,0.9110484753341898
327,2.4549040972488e-05,1.0,0.4972955584526062,0.9110484753341898
328,2.4396842491114512e-05,1.0,0.497492253780365,0.9110484753341898
329,2.424038939352613e-05,1.0,0.4977115988731384,0.9110484753341898
330,2.4079678041744046e-05,1.0,0.49792176485061646,0.9110484753341898
331,2.3929607777972706e-05,1.0,0.4981216490268707,0.9110484753341898
332,2.377209057158325e-05,1.0,0.49831801652908325,0.9110484753341898
333,2.362415034440346e-05,1.0,0.4985235035419464,0.9110484753341898
334,2.34708895732183e-05,1.0,0.4987087845802307,0.9110484753341898
335,2.331337054783944e-05,1.0,0.498914510011673,0.9110484753341898
336,2.31633002840681e-05,1.0,0.4991086423397064,0.9110484753341898
337,2.3024940674076788e-05,1.0,0.49929577112197876,0.9110484753341898
338,2.2876998627907597e-05,1.0,0.49949923157691956,0.9110484753341898
339,2.273331665492151e-05,1.0,0.49969950318336487,0.9110484753341898
340,2.258324639115017e-05,1.0,0.4998963475227356,0.9110484753341898
341,2.2445949070970528e-05,1.0,0.500055730342865,0.9110484753341898
342,2.2302268916973844e-05,1.0,0.5002250075340271,0.9110484753341898
343,2.2166033886605874e-05,1.0,0.5004234910011292,0.9110484753341898
344,2.202554424002301e-05,1.0,0.5006029605865479,0.9110484753341898
345,2.188611870224122e-05,1.0,0.5007799863815308,0.9110484753341898
346,2.17477554542711e-05,1.0,0.500970721244812,0.9110484753341898
347,2.161577867809683e-05,1.0,0.5011486411094666,0.9110484753341898
348,2.147741906810552e-05,1.0,0.501322865486145,0.9110484753341898
349,2.1341185856726952e-05,1.0,0.5015197396278381,0.9110484753341898
350,2.1209210899542086e-05,1.0,0.5016987919807434,0.9110484753341898
351,2.107723594235722e-05,1.0,0.5019240379333496,0.9110484753341898
352,2.0949515601387247e-05,1.0,0.5021350979804993,0.9110484753341898
353,2.081966886180453e-05,1.0,0.5023029446601868,0.9110484753341898
354,2.0689822122221813e-05,1.0,0.5024673938751221,0.9110484753341898
355,2.0566358216456138e-05,1.0,0.5026708841323853,0.9110484753341898
356,2.0437577404663898e-05,1.0,0.50286465883255,0.9110484753341898
357,2.0314113498898223e-05,1.0,0.5030377507209778,0.9110484753341898
358,2.01927796297241e-05,1.0,0.5032309889793396,0.9110484753341898
359,2.0067191144335084e-05,1.0,0.5034047365188599,0.9110484753341898
360,1.993840851355344e-05,1.0,0.503576397895813,0.9110484753341898
361,1.9816010535578243e-05,1.0,0.5037593245506287,0.9110484753341898
362,1.969467666640412e-05,1.0,0.5039677023887634,0.9110484753341898
363,1.9585053451010026e-05,1.0,0.5041795372962952,0.9110484753341898
364,1.946158954524435e-05,1.0,0.504388153553009,0.9110484753341898
365,1.9347706256667152e-05,1.0,0.5045894980430603,0.9110484753341898
366,1.922956835187506e-05,1.0,0.5047544836997986,0.9110484753341898
367,1.9106106265098788e-05,1.0,0.5049275755882263,0.9110484753341898
368,1.8993287085322663e-05,1.0,0.5051402449607849,0.9110484753341898
369,1.887621147034224e-05,1.0,0.5053518414497375,0.9110484753341898
370,1.876019814517349e-05,1.0,0.5055480599403381,0.9110484753341898
371,1.864844307419844e-05,1.0,0.5057451725006104,0.9110484753341898
372,1.8533495676820166e-05,1.0,0.5059476494789124,0.9110484753341898
373,1.8427064787829295e-05,1.0,0.5061362385749817,0.9110484753341898
374,1.831211739045102e-05,1.0,0.5062817931175232,0.9110484753341898
375,1.8212071154266596e-05,1.0,0.5064441561698914,0.9110484753341898
376,1.8102446119883098e-05,1.0,0.5066341161727905,0.9110484753341898
377,1.7996009773924015e-05,1.0,0.506809651851654,0.9110484753341898
378,1.7882130123325624e-05,1.0,0.5069841146469116,0.9110484753341898
379,1.7779952031560242e-05,1.0,0.5071778893470764,0.9110484753341898
380,1.767139110597782e-05,1.0,0.5073888897895813,0.9110484753341898
381,1.7570278942002915e-05,1.0,0.5075903534889221,0.9110484753341898
382,1.746916677802801e-05,1.0,0.5077635645866394,0.9110484753341898
383,1.736060767143499e-05,1.0,0.5079294443130493,0.9110484753341898
384,1.726055779727176e-05,1.0,0.5081053376197815,0.9110484753341898
385,1.716370570647996e-05,1.0,0.5082678198814392,0.9110484753341898
386,1.7055144780897535e-05,1.0,0.5084444284439087,0.9110484753341898
387,1.6958287233137526e-05,1.0,0.5086184144020081,0.9110484753341898
388,1.68624992511468e-05,1.0,0.5087762475013733,0.9110484753341898
389,1.676777537795715e-05,1.0,0.5089371800422668,0.9110484753341898
390,1.6669853721396066e-05,1.0,0.5090962052345276,0.9110484753341898
391,1.6573001630604267e-05,1.0,0.5092605948448181,0.9110484753341898
392,1.648679062782321e-05,1.0,0.5094533562660217,0.9110484753341898
393,1.6389934899052605e-05,1.0,0.509642481803894,0.9110484753341898
394,1.6292016880470328e-05,1.0,0.5098138451576233,0.9110484753341898
395,1.6198357116081752e-05,1.0,0.5099653601646423,0.9110484753341898
396,1.6105757822515443e-05,1.0,0.5101245045661926,0.9110484753341898
397,1.6008905731723644e-05,1.0,0.5103036761283875,0.9110484753341898
398,1.591950058354996e-05,1.0,0.5104826092720032,0.9110484753341898
399,1.5833289580768906e-05,1.0,0.5106566548347473,0.9110484753341898
400,1.573856388858985e-05,1.0,0.5107995271682739,0.9110484753341898
401,1.5652351066819392e-05,1.0,0.5109522938728333,0.9110484753341898
402,1.5560819520032965e-05,1.0,0.5111285448074341,0.9110484753341898
403,1.5473544408450834e-05,1.0,0.5112870335578918,0.9110484753341898
404,1.5386269296868704e-05,1.0,0.5114644765853882,0.9110484753341898
405,1.5306444765883498e-05,1.0,0.5116521120071411,0.9110484753341898
406,1.5221296962408815e-05,1.0,0.5118052363395691,0.9110484753341898
407,1.5129764506127685e-05,1.0,0.5119705200195312,0.9110484753341898
408,1.503929615864763e-05,1.0,0.5121616125106812,0.9110484753341898
409,1.4955213373468723e-05,1.0,0.5123378038406372,0.9110484753341898
410,1.4873258805891965e-05,1.0,0.5125101804733276,0.9110484753341898
411,1.4790241039008833e-05,1.0,0.5126888155937195,0.9110484753341898
412,1.4708288290421478e-05,1.0,0.5128840208053589,0.9110484753341898
413,1.462207637814572e-05,1.0,0.5130575299263,0.9110484753341898
414,1.4542250028171111e-05,1.0,0.5132235288619995,0.9110484753341898
415,1.4465619642578531e-05,1.0,0.5134009122848511,0.9110484753341898
416,1.4380470929609146e-05,1.0,0.5135874152183533,0.9110484753341898
417,1.4307032870419789e-05,1.0,0.5137473344802856,0.9110484753341898
418,1.4216563613445032e-05,1.0,0.5139020681381226,0.9110484753341898
419,1.4152702533465344e-05,1.0,0.5140897631645203,0.9110484753341898
420,1.4069684766582213e-05,1.0,0.5142646431922913,0.9110484753341898
421,1.3993050743010826e-05,1.0,0.514430820941925,0.9110484753341898
422,1.3920677702117246e-05,1.0,0.5145959258079529,0.9110484753341898
423,1.3836594916938338e-05,1.0,0.5147674679756165,0.9110484753341898
424,1.3759963621851057e-05,1.0,0.5149416327476501,0.9110484753341898
425,1.3684393707080744e-05,1.0,0.5150927305221558,0.9110484753341898
426,1.3615212992590386e-05,1.0,0.5152494311332703,0.9110484753341898
427,1.3539645806304179e-05,1.0,0.5154355764389038,0.9110484753341898
428,1.3469398254528642e-05,1.0,0.5155734419822693,0.9110484753341898
429,1.339063783234451e-05,1.0,0.515733540058136,0.9110484753341898
430,1.3316132935869973e-05,1.0,0.5159187316894531,0.9110484753341898
431,1.3243758075986989e-05,1.0,0.5160637497901917,0.9110484753341898
432,1.3169255907996558e-05,1.0,0.5162343382835388,0.9110484753341898
433,1.3104328900226392e-05,1.0,0.5164004564285278,0.9110484753341898
434,1.3034083167440258e-05,1.0,0.5165519118309021,0.9110484753341898
435,1.2955321835761424e-05,1.0,0.5167351961135864,0.9110484753341898
436,1.2890397556475364e-05,1.0,0.5169116854667664,0.9110484753341898
437,1.28212141135009e-05,1.0,0.5170509219169617,0.9110484753341898
438,1.2747776054311544e-05,1.0,0.5172117948532104,0.9110484753341898
439,1.2688172319030855e-05,1.0,0.5173624753952026,0.9110484753341898
440,1.2612604223249946e-05,1.0,0.5175257921218872,0.9110484753341898
441,1.2547679034469184e-05,1.0,0.5176864862442017,0.9110484753341898
442,1.2482754755183123e-05,1.0,0.5178412199020386,0.9110484753341898
443,1.2414637239999138e-05,1.0,0.5180109143257141,0.9110484753341898
444,1.234226056112675e-05,1.0,0.5182059407234192,0.9110484753341898
445,1.2281593626539689e-05,1.0,0.5183687806129456,0.9110484753341898
446,1.2217734365549404e-05,1.0,0.518513023853302,0.9110484753341898
447,1.2158130630268715e-05,1.0,0.5186814665794373,0.9110484753341898
448,1.209001311508473e-05,1.0,0.5188392400741577,0.9110484753341898
449,1.2030409379804041e-05,1.0,0.5189868807792664,0.9110484753341898
450,1.1961227755818982e-05,1.0,0.5191365480422974,0.9110484753341898
451,1.1902689038834069e-05,1.0,0.5192827582359314,0.9110484753341898
452,1.1835633813461754e-05,1.0,0.5194202065467834,0.9110484753341898
453,1.1776030987675767e-05,1.0,0.5195475816726685,0.9110484753341898
454,1.1713235835486557e-05,1.0,0.5197073221206665,0.9110484753341898
455,1.1660018572001718e-05,1.0,0.5198431611061096,0.9110484753341898
456,1.159402836492518e-05,1.0,0.5199865698814392,0.9110484753341898
457,1.1537618775037117e-05,1.0,0.52012699842453,0.9110484753341898
458,1.1470564459159505e-05,1.0,0.5202874541282654,0.9110484753341898
459,1.141415395977674e-05,1.0,0.5204132199287415,0.9110484753341898
460,1.1352422916388605e-05,1.0,0.5205528140068054,0.9110484753341898
461,1.1299205652903765e-05,1.0,0.5207307934761047,0.9110484753341898
462,1.1233215445827227e-05,1.0,0.520900547504425,0.9110484753341898
463,1.1174676728842314e-05,1.0,0.521067202091217,0.9110484753341898
464,1.1123590411443729e-05,1.0,0.521223783493042,0.9110484753341898
465,1.1066114893765189e-05,1.0,0.5213750004768372,0.9110484753341898
466,1.1007576176780276e-05,1.0,0.5215168595314026,0.9110484753341898
467,1.0947971532004885e-05,1.0,0.5216429233551025,0.9110484753341898
468,1.0895819286815822e-05,1.0,0.5217762589454651,0.9110484753341898
469,1.0839408787433058e-05,1.0,0.5219486951828003,0.9110484753341898
470,1.077980505215237e-05,1.0,0.5221104025840759,0.9110484753341898
471,1.072658778866753e-05,1.0,0.5222452878952026,0.9110484753341898
472,1.0675498742784839e-05,1.0,0.5224019289016724,0.9110484753341898
473,1.0611639481794555e-05,1.0,0.5225571990013123,0.9110484753341898
474,1.056161545420764e-05,1.0,0.5227033495903015,0.9110484753341898
475,1.0509461390029173e-05,1.0,0.5228692293167114,0.9110484753341898
476,1.0460501471243333e-05,1.0,0.5229886770248413,0.9110484753341898
477,1.0400898645457346e-05,1.0,0.5231202840805054,0.9110484753341898
478,1.0350874617870431e-05,1.0,0.5232831239700317,0.9110484753341898
479,1.0296592336089816e-05,1.0,0.523430347442627,0.9110484753341898
480,1.0244439181406051e-05,1.0,0.5235713720321655,0.9110484753341898
481,1.0191221917921212e-05,1.0,0.5237130522727966,0.9110484753341898
482,1.0141198799828999e-05,1.0,0.5238643884658813,0.9110484753341898
483,1.0093302080349531e-05,1.0,0.5240095257759094,0.9110484753341898
484,1.0041148925665766e-05,1.0,0.5241506695747375,0.9110484753341898
485,9.991125807573553e-06,1.0,0.5243075489997864,0.9110484753341898
486,9.94003585219616e-06,1.0,0.5244404077529907,0.9110484753341898
487,9.883625352813397e-06,1.0,0.5245802998542786,0.9110484753341898
488,9.843181942414958e-06,1.0,0.5247287750244141,0.9110484753341898
489,9.78889875113964e-06,1.0,0.5248854160308838,0.9110484753341898
490,9.747390322445426e-06,1.0,0.5250029563903809,0.9110484753341898
491,9.692043022369035e-06,1.0,0.5251291990280151,0.9110484753341898
492,9.643083103583194e-06,1.0,0.5252635478973389,0.9110484753341898
493,9.596252311894204e-06,1.0,0.5253933668136597,0.9110484753341898
494,9.555807082506362e-06,1.0,0.5255081057548523,0.9110484753341898
495,9.505782145424746e-06,1.0,0.5256494283676147,0.9110484753341898
496,9.460016372031532e-06,1.0,0.525769829750061,0.9110484753341898
497,9.411056453245692e-06,1.0,0.525887668132782,0.9110484753341898
498,9.363159733766224e-06,1.0,0.5260283946990967,0.9110484753341898
499,9.319522177975159e-06,1.0,0.5261388421058655,0.9110484753341898
500,9.270561349694617e-06,1.0,0.526218593120575,0.9110484753341898
501,9.22586059459718e-06,1.0,0.5263547301292419,0.9110484753341898
502,9.175834748020861e-06,1.0,0.5265012979507446,0.9110484753341898
503,9.133260391536169e-06,1.0,0.5266068577766418,0.9110484753341898
504,9.091751053347252e-06,1.0,0.5267353057861328,0.9110484753341898
505,9.051306733454112e-06,1.0,0.5268533825874329,0.9110484753341898
506,9.006603249872569e-06,1.0,0.5269573330879211,0.9110484753341898
507,8.957643331086729e-06,1.0,0.5270707011222839,0.9110484753341898
508,8.918263119994663e-06,1.0,0.5271754860877991,0.9110484753341898
509,8.870367310009897e-06,1.0,0.5273247957229614,0.9110484753341898
510,8.826727935229428e-06,1.0,0.5274530649185181,0.9110484753341898
511,8.786281796346884e-06,1.0,0.5275620222091675,0.9110484753341898
512,8.750094821152743e-06,1.0,0.5276893377304077,0.9110484753341898
513,8.702199920662679e-06,1.0,0.5278141498565674,0.9110484753341898
514,8.656432328280061e-06,1.0,0.5279520750045776,0.9110484753341898
515,8.61598709889222e-06,1.0,0.5280901789665222,0.9110484753341898
516,8.574477760703303e-06,1.0,0.5282066464424133,0.9110484753341898
517,8.53616074891761e-06,1.0,0.5283344984054565,0.9110484753341898
518,8.493586392432917e-06,1.0,0.5284565091133118,0.9110484753341898
519,8.449948836641852e-06,1.0,0.5285782217979431,0.9110484753341898
520,8.406309461861383e-06,1.0,0.5287132263183594,0.9110484753341898
521,8.369058377866168e-06,1.0,0.5288602709770203,0.9110484753341898
522,8.330742275575176e-06,1.0,0.5290048718452454,0.9110484753341898
523,8.293490282085259e-06,1.0,0.5291369557380676,0.9110484753341898
524,8.24772178020794e-06,1.0,0.5292908549308777,0.9110484753341898
525,8.207277460314799e-06,1.0,0.5294151902198792,0.9110484753341898
526,8.16363808553433e-06,1.0,0.5295530557632446,0.9110484753341898
527,8.134900781442411e-06,1.0,0.5296968817710876,0.9110484753341898
528,8.098712896753568e-06,1.0,0.5298364162445068,0.9110484753341898
529,8.054010322666727e-06,1.0,0.5299960374832153,0.9110484753341898
530,8.012500074983109e-06,1.0,0.5301575660705566,0.9110484753341898
531,7.97950542619219e-06,1.0,0.5302994251251221,0.9110484753341898
532,7.940124305605423e-06,1.0,0.5304242372512817,0.9110484753341898
533,7.900744094513357e-06,1.0,0.5305575728416443,0.9110484753341898
534,7.856040610931814e-06,1.0,0.530669093132019,0.9110484753341898
535,7.82198094384512e-06,1.0,0.5307947993278503,0.9110484753341898
536,7.783664841554128e-06,1.0,0.5309401750564575,0.9110484753341898
537,7.74428372096736e-06,1.0,0.5310842394828796,0.9110484753341898
538,7.71554641687544e-06,1.0,0.5312144160270691,0.9110484753341898
539,7.677230314584449e-06,1.0,0.5313509702682495,0.9110484753341898
540,7.63997741159983e-06,1.0,0.5315120220184326,0.9110484753341898
541,7.608046871609986e-06,1.0,0.5316512584686279,0.9110484753341898
542,7.568666205770569e-06,1.0,0.5317709445953369,0.9110484753341898
543,7.527155958086951e-06,1.0,0.5318949818611145,0.9110484753341898
544,7.4909685281454585e-06,1.0,0.5320364832878113,0.9110484753341898
545,7.456909315806115e-06,1.0,0.532191276550293,0.9110484753341898
546,7.42710699341842e-06,1.0,0.5323255062103271,0.9110484753341898
547,7.39624056222965e-06,1.0,0.5324736833572388,0.9110484753341898
548,7.35366756998701e-06,1.0,0.5326526165008545,0.9110484753341898
549,7.32067201170139e-06,1.0,0.532805323600769,0.9110484753341898
550,7.288741016964195e-06,1.0,0.5328988432884216,0.9110484753341898
551,7.255746368173277e-06,1.0,0.533014178276062,0.9110484753341898
552,7.2174298111349344e-06,1.0,0.53315669298172,0.9110484753341898
553,7.188692052295664e-06,1.0,0.5333150029182434,0.9110484753341898
554,7.154633294703672e-06,1.0,0.5334442257881165,0.9110484753341898
555,7.116316282917978e-06,1.0,0.5335865616798401,0.9110484753341898
556,7.090771305229282e-06,1.0,0.5337317585945129,0.9110484753341898
557,7.054583420540439e-06,1.0,0.5338682532310486,0.9110484753341898
558,7.017331427050522e-06,1.0,0.5340086221694946,0.9110484753341898
559,6.987529104662826e-06,1.0,0.5341567397117615,0.9110484753341898
560,6.961985036468832e-06,1.0,0.5342711210250854,0.9110484753341898
561,6.925797151779989e-06,1.0,0.5344029664993286,0.9110484753341898
562,6.89280204824172e-06,1.0,0.5345568060874939,0.9110484753341898
563,6.8640642894024495e-06,1.0,0.5346918702125549,0.9110484753341898
564,6.830004622315755e-06,1.0,0.5348453521728516,0.9110484753341898
565,6.801266863476485e-06,1.0,0.534989595413208,0.9110484753341898
566,6.767208105884492e-06,1.0,0.5351037383079529,0.9110484753341898
567,6.731020221195649e-06,1.0,0.5352445840835571,0.9110484753341898
568,6.700154244754231e-06,1.0,0.5354009866714478,0.9110484753341898
569,6.6714164859149605e-06,1.0,0.5355386137962341,0.9110484753341898
570,6.643742835876765e-06,1.0,0.5356703400611877,0.9110484753341898
571,6.615005077037495e-06,1.0,0.5357953906059265,0.9110484753341898
572,6.5788176470960025e-06,1.0,0.53593909740448,0.9110484753341898
573,6.556466814799933e-06,1.0,0.5360679626464844,0.9110484753341898
574,6.520278020616388e-06,1.0,0.5362095832824707,0.9110484753341898
575,6.488347025879193e-06,1.0,0.5363382697105408,0.9110484753341898
576,6.4617379393894225e-06,1.0,0.5364692807197571,0.9110484753341898
577,6.428743745345855e-06,1.0,0.5365971922874451,0.9110484753341898
578,6.4095847847056575e-06,1.0,0.5367138981819153,0.9110484753341898
579,6.375525572366314e-06,1.0,0.5368162393569946,0.9110484753341898
580,6.342531378322747e-06,1.0,0.5369392037391663,0.9110484753341898
581,6.311664492386626e-06,1.0,0.5370575189590454,0.9110484753341898
582,6.288249096542131e-06,1.0,0.5371759533882141,0.9110484753341898
583,6.2531248659070116e-06,1.0,0.5373080372810364,0.9110484753341898
584,6.229709015315166e-06,1.0,0.5374252200126648,0.9110484753341898
585,6.205228601174895e-06,1.0,0.5375383496284485,0.9110484753341898
586,6.176490842335625e-06,1.0,0.5376511812210083,0.9110484753341898
587,6.147753992991056e-06,1.0,0.5377835035324097,0.9110484753341898
588,6.113694780651713e-06,1.0,0.5379267334938049,0.9110484753341898
589,6.094535820011515e-06,1.0,0.5380294919013977,0.9110484753341898
590,6.066862169973319e-06,1.0,0.538133442401886,0.9110484753341898
591,6.040253992978251e-06,1.0,0.5382656455039978,0.9110484753341898
592,6.006194780638907e-06,1.0,0.5383862853050232,0.9110484753341898
593,5.985971711197635e-06,1.0,0.5384774804115295,0.9110484753341898
594,5.950848844804568e-06,1.0,0.5386026501655579,0.9110484753341898
595,5.925303867115872e-06,1.0,0.5387302041053772,0.9110484753341898
596,5.900823907722952e-06,1.0,0.5388602614402771,0.9110484753341898
597,5.87847216593218e-06,1.0,0.5389638543128967,0.9110484753341898
598,5.847605734743411e-06,1.0,0.5390786528587341,0.9110484753341898
599,5.822061211802065e-06,1.0,0.5392063856124878,0.9110484753341898
600,5.79225888941437e-06,1.0,0.5393449664115906,0.9110484753341898
601,5.768842584075173e-06,1.0,0.5394532680511475,0.9110484753341898
602,5.739041625929531e-06,1.0,0.5395787954330444,0.9110484753341898
603,5.720947228837758e-06,1.0,0.5397006273269653,0.9110484753341898
604,5.6900817071436904e-06,1.0,0.5398311018943787,0.9110484753341898
605,5.662408057105495e-06,1.0,0.5399670600891113,0.9110484753341898
606,5.638991751766298e-06,1.0,0.5401008129119873,0.9110484753341898
607,5.618769591819728e-06,1.0,0.5402163863182068,0.9110484753341898
608,5.592160050582606e-06,1.0,0.5403560996055603,0.9110484753341898
609,5.565550964092836e-06,1.0,0.5404720902442932,0.9110484753341898
610,5.542135568248341e-06,1.0,0.5405572056770325,0.9110484753341898
611,5.51978428120492e-06,1.0,0.5406866073608398,0.9110484753341898
612,5.4889173952688e-06,1.0,0.5408214926719666,0.9110484753341898
613,5.463373327074805e-06,1.0,0.5409082770347595,0.9110484753341898
614,5.443150257633533e-06,1.0,0.5410146117210388,0.9110484753341898
615,5.420799425337464e-06,1.0,0.5411284565925598,0.9110484753341898
616,5.396319011197193e-06,1.0,0.5412245392799377,0.9110484753341898
617,5.370774033508496e-06,1.0,0.5413332581520081,0.9110484753341898
618,5.34948685526615e-06,1.0,0.5414518713951111,0.9110484753341898
619,5.323942332324805e-06,1.0,0.541556715965271,0.9110484753341898
620,5.297333245835034e-06,1.0,0.541654646396637,0.9110484753341898
621,5.271788722893689e-06,1.0,0.5417901277542114,0.9110484753341898
622,5.253694780549267e-06,1.0,0.5419066548347473,0.9110484753341898
623,5.2345362746564206e-06,1.0,0.542013943195343,0.9110484753341898
624,5.2068635341129266e-06,1.0,0.542127251625061,0.9110484753341898
625,5.184511792322155e-06,1.0,0.5422219634056091,0.9110484753341898
626,5.167481958778808e-06,1.0,0.5423017740249634,0.9110484753341898
627,5.1408724175416864e-06,1.0,0.5424332022666931,0.9110484753341898
628,5.115328349347692e-06,1.0,0.5425779819488525,0.9110484753341898
629,5.089783371658996e-06,1.0,0.5426713228225708,0.9110484753341898
630,5.0706253205135e-06,1.0,0.5427879691123962,0.9110484753341898
631,5.048273578722728e-06,1.0,0.542918860912323,0.9110484753341898
632,5.031244654674083e-06,1.0,0.5430675148963928,0.9110484753341898
633,5.0088929128833115e-06,1.0,0.5431787371635437,0.9110484753341898
634,4.989734406990465e-06,1.0,0.5432718992233276,0.9110484753341898
635,4.966318101651268e-06,1.0,0.543413519859314,0.9110484753341898
636,4.939709469908848e-06,1.0,0.5435322523117065,0.9110484753341898
637,4.9162940740643535e-06,1.0,0.5436602234840393,0.9110484753341898
638,4.900328349322081e-06,1.0,0.5437692403793335,0.9110484753341898
639,4.877976607531309e-06,1.0,0.5438810586929321,0.9110484753341898
640,4.8556253204878885e-06,1.0,0.5439997315406799,0.9110484753341898
641,4.8311449063476175e-06,1.0,0.5441284775733948,0.9110484753341898
642,4.811986400454771e-06,1.0,0.5442456007003784,0.9110484753341898
643,4.787506441061851e-06,1.0,0.5443624258041382,0.9110484753341898
644,4.767283371620579e-06,1.0,0.5445002913475037,0.9110484753341898
645,4.749188974528806e-06,1.0,0.5446057915687561,0.9110484753341898
646,4.7257731239369605e-06,1.0,0.5446974635124207,0.9110484753341898
647,4.706614618044114e-06,1.0,0.5448402762413025,0.9110484753341898
648,4.690649348049192e-06,1.0,0.5449710488319397,0.9110484753341898
649,4.669362624554196e-06,1.0,0.5450960993766785,0.9110484753341898
650,4.645946319215e-06,1.0,0.5451957583427429,0.9110484753341898
651,4.622530013875803e-06,1.0,0.5452964901924133,0.9110484753341898
652,4.602307399181882e-06,1.0,0.5453982949256897,0.9110484753341898
653,4.587406692735385e-06,1.0,0.545495331287384,0.9110484753341898
654,4.55973349744454e-06,1.0,0.5456048846244812,0.9110484753341898
655,4.543767772702267e-06,1.0,0.5457221865653992,0.9110484753341898
656,4.522481049207272e-06,1.0,0.5458343029022217,0.9110484753341898
657,4.5118372327124234e-06,1.0,0.5459263324737549,0.9110484753341898
658,4.490550054470077e-06,1.0,0.5460478067398071,0.9110484753341898
659,4.469263330975082e-06,1.0,0.5461636781692505,0.9110484753341898
660,4.452233497431735e-06,1.0,0.5462753772735596,0.9110484753341898
661,4.428817192092538e-06,1.0,0.5463723540306091,0.9110484753341898
662,4.412852376844967e-06,1.0,0.5464683175086975,0.9110484753341898
663,4.39156474385527e-06,1.0,0.5465933680534363,0.9110484753341898
664,4.364955657365499e-06,1.0,0.5467249155044556,0.9110484753341898
665,4.348989932623226e-06,1.0,0.5468664169311523,0.9110484753341898
666,4.329832336225081e-06,1.0,0.5469785928726196,0.9110484753341898
667,4.309609266783809e-06,1.0,0.5470489263534546,0.9110484753341898
668,4.295772214391036e-06,1.0,0.547163188457489,0.9110484753341898
669,4.2776782720466144e-06,1.0,0.5472696423530579,0.9110484753341898
670,4.263841674401192e-06,1.0,0.5473442077636719,0.9110484753341898
671,4.250004622008419e-06,1.0,0.547470211982727,0.9110484753341898
672,4.230846570862923e-06,1.0,0.547602117061615,0.9110484753341898
673,4.206366156722652e-06,1.0,0.5477078557014465,0.9110484753341898
674,4.190401341475081e-06,1.0,0.5478349924087524,0.9110484753341898
675,4.1691137084853835e-06,1.0,0.5479633212089539,0.9110484753341898
676,4.155277110839961e-06,1.0,0.5480825901031494,0.9110484753341898
677,4.133989932597615e-06,1.0,0.5481929183006287,0.9110484753341898
678,4.114831426704768e-06,1.0,0.5482996702194214,0.9110484753341898
679,4.103123501408845e-06,1.0,0.5484394431114197,0.9110484753341898
680,4.080771759618074e-06,1.0,0.5485600829124451,0.9110484753341898
681,4.058420472574653e-06,1.0,0.5486613512039185,0.9110484753341898
682,4.045647983730305e-06,1.0,0.5487670302391052,0.9110484753341898
683,4.028618150186958e-06,1.0,0.5489024519920349,0.9110484753341898
684,4.010524207842536e-06,1.0,0.5490227937698364,0.9110484753341898
685,4.002009063697187e-06,1.0,0.5491275787353516,0.9110484753341898
686,3.983915121352766e-06,1.0,0.5492562055587769,0.9110484753341898
687,3.961563834309345e-06,1.0,0.549407422542572,0.9110484753341898
688,3.945598109567072e-06,1.0,0.5495523810386658,0.9110484753341898
689,3.92963283957215e-06,1.0,0.5496919751167297,0.9110484753341898
690,3.909409770130878e-06,1.0,0.5498188734054565,0.9110484753341898
691,3.893444500135956e-06,1.0,0.5499289631843567,0.9110484753341898
692,3.878543338942109e-06,1.0,0.5500586032867432,0.9110484753341898
693,3.850870143651264e-06,1.0,0.5502089858055115,0.9110484753341898
694,3.839162218355341e-06,1.0,0.5503450036048889,0.9110484753341898
695,3.826389729510993e-06,1.0,0.5504687428474426,0.9110484753341898
696,3.8104244595160708e-06,1.0,0.5506076216697693,0.9110484753341898
697,3.7912661809968995e-06,1.0,0.5507188439369202,0.9110484753341898
698,3.7753004562546266e-06,1.0,0.5507918000221252,0.9110484753341898
699,3.7625284221576294e-06,1.0,0.550918459892273,0.9110484753341898
700,3.7391125715657836e-06,1.0,0.5510624051094055,0.9110484753341898
701,3.73059765479411e-06,1.0,0.5511749386787415,0.9110484753341898
702,3.7199538382992614e-06,1.0,0.5512851476669312,0.9110484753341898
703,3.69653776033374e-06,1.0,0.5514063835144043,0.9110484753341898
704,3.6880228435620666e-06,1.0,0.5515440106391907,0.9110484753341898
705,3.6741860185429687e-06,1.0,0.5516781210899353,0.9110484753341898
706,3.6571566397469724e-06,1.0,0.5518022775650024,0.9110484753341898
707,3.637998361227801e-06,1.0,0.5519235730171204,0.9110484753341898
708,3.6262902085582027e-06,1.0,0.5519991517066956,0.9110484753341898
709,3.6060671391169308e-06,1.0,0.5520983338356018,0.9110484753341898
710,3.591165977923083e-06,1.0,0.552243173122406,0.9110484753341898
711,3.5847799608745845e-06,1.0,0.552370548248291,0.9110484753341898
712,3.5656216823554132e-06,1.0,0.5524863600730896,0.9110484753341898
713,3.5517848573363153e-06,1.0,0.5526110529899597,0.9110484753341898
714,3.531562015268719e-06,1.0,0.5527277588844299,0.9110484753341898
715,3.514531954351696e-06,1.0,0.5528050661087036,0.9110484753341898
716,3.498566684356774e-06,1.0,0.5529157519340515,0.9110484753341898
717,3.487923095235601e-06,1.0,0.5530582070350647,0.9110484753341898
718,3.469828925517504e-06,1.0,0.5531852841377258,0.9110484753341898
719,3.4591855637700064e-06,1.0,0.5532974600791931,0.9110484753341898
720,3.4442844025761588e-06,1.0,0.5534238219261169,0.9110484753341898
721,3.4325767046539113e-06,1.0,0.5535730719566345,0.9110484753341898
722,3.4187398796348134e-06,1.0,0.5536659955978394,0.9110484753341898
723,3.4006457099167164e-06,1.0,0.5537662506103516,0.9110484753341898
724,3.3857445487228688e-06,1.0,0.5539111495018005,0.9110484753341898
725,3.3740363960532704e-06,1.0,0.5540295243263245,0.9110484753341898
726,3.362328698131023e-06,1.0,0.5541779398918152,0.9110484753341898
727,3.3474275369371753e-06,1.0,0.5543240904808044,0.9110484753341898
728,3.3335907119180774e-06,1.0,0.5544372200965881,0.9110484753341898
729,3.3197538868989795e-06,1.0,0.5545323491096497,0.9110484753341898
730,3.3016601719282335e-06,1.0,0.5546285510063171,0.9110484753341898
731,3.291016355433385e-06,1.0,0.55475914478302,0.9110484753341898
732,3.271857849540538e-06,1.0,0.554905354976654,0.9110484753341898
733,3.2686646136426134e-06,1.0,0.5549866557121277,0.9110484753341898
734,3.249506335123442e-06,1.0,0.5551074147224426,0.9110484753341898
735,3.23460540130327e-06,1.0,0.5552428364753723,0.9110484753341898
736,3.220768576284172e-06,1.0,0.5553569197654724,0.9110484753341898
737,3.1994811706681503e-06,1.0,0.5554615259170532,0.9110484753341898
738,3.1877732453722274e-06,1.0,0.5555678606033325,0.9110484753341898
739,3.176065092702629e-06,1.0,0.5556821227073669,0.9110484753341898
740,3.163293058605632e-06,1.0,0.5557623505592346,0.9110484753341898
741,3.1569068141834578e-06,1.0,0.5558696389198303,0.9110484753341898
742,3.14200565298961e-06,1.0,0.5560024380683899,0.9110484753341898
743,3.1334907362179365e-06,1.0,0.5561375021934509,0.9110484753341898
744,3.1153965664998395e-06,1.0,0.5562627911567688,0.9110484753341898
745,3.1079459859029157e-06,1.0,0.5563578009605408,0.9110484753341898
746,3.093044824709068e-06,1.0,0.5564680695533752,0.9110484753341898
747,3.0813371267868206e-06,1.0,0.5565817356109619,0.9110484753341898
748,3.069629428864573e-06,1.0,0.5566950440406799,0.9110484753341898
749,3.0547282676707255e-06,1.0,0.5568038821220398,0.9110484753341898
750,3.0387625429284526e-06,1.0,0.5569429993629456,0.9110484753341898
751,3.02599028145778e-06,1.0,0.5571073293685913,0.9110484753341898
752,3.0110893476376077e-06,1.0,0.5572417378425598,0.9110484753341898
753,3.000445531142759e-06,1.0,0.5573307275772095,0.9110484753341898
754,2.9887376058468362e-06,1.0,0.5574464201927185,0.9110484753341898
755,2.9770296805509133e-06,1.0,0.5575720071792603,0.9110484753341898
756,2.959999847007566e-06,1.0,0.5576913952827454,0.9110484753341898
757,2.9525492664106423e-06,1.0,0.5577821135520935,0.9110484753341898
758,2.9450986858137185e-06,1.0,0.5578801035881042,0.9110484753341898
759,2.9291334158187965e-06,1.0,0.5580211281776428,0.9110484753341898
760,2.919554162872373e-06,1.0,0.5581631064414978,0.9110484753341898
761,2.904653229052201e-06,1.0,0.5582758784294128,0.9110484753341898
762,2.8950739761057775e-06,1.0,0.5583588480949402,0.9110484753341898
763,2.8812371510866797e-06,1.0,0.5584697127342224,0.9110484753341898
764,2.8684646622423315e-06,1.0,0.5586382746696472,0.9110484753341898
765,2.856756964320084e-06,1.0,0.5587614178657532,0.9110484753341898
766,2.8461131478252355e-06,1.0,0.5588327646255493,0.9110484753341898
767,2.836533894878812e-06,1.0,0.5589615702629089,0.9110484753341898
768,2.819504061335465e-06,1.0,0.5591495037078857,0.9110484753341898
769,2.807796136039542e-06,1.0,0.5592823624610901,0.9110484753341898
770,2.7928949748456944e-06,1.0,0.5593785047531128,0.9110484753341898
771,2.7811870495497715e-06,1.0,0.5594848394393921,0.9110484753341898
772,2.7705434604285983e-06,1.0,0.5596328973770142,0.9110484753341898
773,2.7620285436569247e-06,1.0,0.5597729086875916,0.9110484753341898
774,2.748191718637827e-06,1.0,0.5598844289779663,0.9110484753341898
775,2.740741138040903e-06,1.0,0.5599690079689026,0.9110484753341898
776,2.724775868045981e-06,1.0,0.5600879788398743,0.9110484753341898
777,2.714132278924808e-06,1.0,0.5602449178695679,0.9110484753341898
778,2.706681698327884e-06,1.0,0.5603627562522888,0.9110484753341898
779,2.6896520921582123e-06,1.0,0.5604625940322876,0.9110484753341898
780,2.676879603313864e-06,1.0,0.5605589747428894,0.9110484753341898
781,2.6683646865421906e-06,1.0,0.5606873035430908,0.9110484753341898
782,2.6609141059452668e-06,1.0,0.5608286261558533,0.9110484753341898
783,2.6481416171009187e-06,1.0,0.5609447360038757,0.9110484753341898
784,2.6385623641544953e-06,1.0,0.5610476732254028,0.9110484753341898
785,2.625789875310147e-06,1.0,0.5612154006958008,0.9110484753341898
786,2.6204681944363983e-06,1.0,0.5613759160041809,0.9110484753341898
787,2.6087602691404754e-06,1.0,0.5614694356918335,0.9110484753341898
788,2.5938591079466278e-06,1.0,0.5615454316139221,0.9110484753341898
789,2.58428008237388e-06,1.0,0.5616046190261841,0.9110484753341898
790,2.5715075935295317e-06,1.0,0.561707615852356,0.9110484753341898
791,2.562992676757858e-06,1.0,0.5618615746498108,0.9110484753341898
792,2.5555420961609343e-06,1.0,0.5619704723358154,0.9110484753341898
793,2.540641162340762e-06,1.0,0.5620444416999817,0.9110484753341898
794,2.5353194814670132e-06,1.0,0.562127411365509,0.9110484753341898
795,2.523611328797415e-06,1.0,0.5622649788856506,0.9110484753341898
796,2.5150964120257413e-06,1.0,0.5623900294303894,0.9110484753341898
797,2.5044525955308927e-06,1.0,0.5624699592590332,0.9110484753341898
798,2.4938090064097196e-06,1.0,0.5625683665275574,0.9110484753341898
799,2.483165644662222e-06,1.0,0.5626890659332275,0.9110484753341898
800,2.4714574919926235e-06,1.0,0.562807023525238,0.9110484753341898
801,2.46294257522095e-06,1.0,0.5629564523696899,0.9110484753341898
802,2.4533633222745266e-06,1.0,0.563083827495575,0.9110484753341898
803,2.4405908334301785e-06,1.0,0.5631647109985352,0.9110484753341898
804,2.4342045890080044e-06,1.0,0.5632522702217102,0.9110484753341898
805,2.419303655187832e-06,1.0,0.5633905529975891,0.9110484753341898
806,2.412917410765658e-06,1.0,0.5635418891906738,0.9110484753341898
807,2.4033381578192348e-06,1.0,0.5636276602745056,0.9110484753341898
808,2.391630232523312e-06,1.0,0.563687264919281,0.9110484753341898
809,2.383115088377963e-06,1.0,0.5637526512145996,0.9110484753341898
810,2.375664507781039e-06,1.0,0.5638350248336792,0.9110484753341898
811,2.3628924736840418e-06,1.0,0.5639494061470032,0.9110484753341898
812,2.3533132207376184e-06,1.0,0.5641165375709534,0.9110484753341898
813,2.347991312490194e-06,1.0,0.5642561912536621,0.9110484753341898
814,2.3384120595437707e-06,1.0,0.5643583536148071,0.9110484753341898
815,2.328832579223672e-06,1.0,0.5644767880439758,0.9110484753341898
816,2.3171248813014245e-06,1.0,0.5645908117294312,0.9110484753341898
817,2.3107386368792504e-06,1.0,0.5647366642951965,0.9110484753341898
818,2.2926444671611534e-06,1.0,0.5648415684700012,0.9110484753341898
819,2.2862582227389794e-06,1.0,0.5649295449256897,0.9110484753341898
820,2.2766787424188806e-06,1.0,0.565053403377533,0.9110484753341898
821,2.268163825647207e-06,1.0,0.5651809573173523,0.9110484753341898
822,2.2553915641765343e-06,1.0,0.5653504729270935,0.9110484753341898
823,2.2468764200311853e-06,1.0,0.5655329823493958,0.9110484753341898
824,2.2415547391574364e-06,1.0,0.5656340718269348,0.9110484753341898
825,2.236232830910012e-06,1.0,0.5656859874725342,0.9110484753341898
826,2.2277183688856894e-06,1.0,0.5657652616500854,0.9110484753341898
827,2.2160104435897665e-06,1.0,0.5658950209617615,0.9110484753341898
828,2.211752871517092e-06,1.0,0.5660514235496521,0.9110484753341898
829,2.205366627094918e-06,1.0,0.5661509037017822,0.9110484753341898
830,2.197916046497994e-06,1.0,0.5662378072738647,0.9110484753341898
831,2.1894011297263205e-06,1.0,0.5663474202156067,0.9110484753341898
832,2.1766286408819724e-06,1.0,0.5664574503898621,0.9110484753341898
833,2.1606633708870504e-06,1.0,0.566573977470398,0.9110484753341898
834,2.151084117940627e-06,1.0,0.5667099356651306,0.9110484753341898
835,2.1425692011689534e-06,1.0,0.5668226480484009,0.9110484753341898
836,2.13405428439728e-06,1.0,0.5669000744819641,0.9110484753341898
837,2.1297967123246053e-06,1.0,0.5669887065887451,0.9110484753341898
838,2.120217459378182e-06,1.0,0.5671181082725525,0.9110484753341898
839,2.108509534082259e-06,1.0,0.5672502517700195,0.9110484753341898
840,2.1063808617327595e-06,1.0,0.5673720836639404,0.9110484753341898
841,2.094672709063161e-06,1.0,0.5674795508384705,0.9110484753341898
842,2.085093456116738e-06,1.0,0.5675864815711975,0.9110484753341898
843,2.0829647837672383e-06,1.0,0.5676982998847961,0.9110484753341898
844,2.0680636225733906e-06,1.0,0.5678146481513977,0.9110484753341898
845,2.0563554699037923e-06,1.0,0.5679211616516113,0.9110484753341898
846,2.0542267975542927e-06,1.0,0.5680568814277649,0.9110484753341898
847,2.0393258637341205e-06,1.0,0.5681563019752502,0.9110484753341898
848,2.0340039554866962e-06,1.0,0.5682756900787354,0.9110484753341898
849,2.0297463834140217e-06,1.0,0.5684110522270203,0.9110484753341898
850,2.0254890387150226e-06,1.0,0.5685407519340515,0.9110484753341898
851,2.01271677724435e-06,1.0,0.5686370134353638,0.9110484753341898
852,2.003137296924251e-06,1.0,0.568767249584198,0.9110484753341898
853,1.998879952225252e-06,1.0,0.5689119100570679,0.9110484753341898
854,1.9903650354535785e-06,1.0,0.5690436363220215,0.9110484753341898
855,1.9850433545798296e-06,1.0,0.5691696405410767,0.9110484753341898
856,1.976528437808156e-06,1.0,0.5692755579948425,0.9110484753341898
857,1.9680135210364824e-06,1.0,0.5693826079368591,0.9110484753341898
858,1.9563055957405595e-06,1.0,0.5695343017578125,0.9110484753341898
859,1.952048023667885e-06,1.0,0.5696598887443542,0.9110484753341898
860,1.9435331068962114e-06,1.0,0.5697668790817261,0.9110484753341898
861,1.9371468624740373e-06,1.0,0.5698781609535217,0.9110484753341898
862,1.9328895177750383e-06,1.0,0.5699892640113831,0.9110484753341898
863,1.9286319457023637e-06,1.0,0.5701113343238831,0.9110484753341898
864,1.914795120683266e-06,1.0,0.5701866149902344,0.9110484753341898
865,1.9062802039115923e-06,1.0,0.5702798962593079,0.9110484753341898
866,1.8977654008267564e-06,1.0,0.5704024434089661,0.9110484753341898
867,1.8881862615671707e-06,1.0,0.5704885125160217,0.9110484753341898
868,1.8818000171449967e-06,1.0,0.5705742239952087,0.9110484753341898
869,1.8711563143369858e-06,1.0,0.5706908106803894,0.9110484753341898
870,1.8679631921258988e-06,1.0,0.5708189010620117,0.9110484753341898
871,1.8562552668299759e-06,1.0,0.5709117650985718,0.9110484753341898
872,1.8466760138835525e-06,1.0,0.5710285902023315,0.9110484753341898
873,1.8381609834250412e-06,1.0,0.5711774826049805,0.9110484753341898
874,1.8360323110755417e-06,1.0,0.5713056921958923,0.9110484753341898
875,1.827517394303868e-06,1.0,0.5714162588119507,0.9110484753341898
876,1.8232598222311935e-06,1.0,0.5715203881263733,0.9110484753341898
877,1.8158092416342697e-06,1.0,0.5716180801391602,0.9110484753341898
878,1.8051656525130966e-06,1.0,0.5717467069625854,0.9110484753341898
879,1.7934574998434982e-06,1.0,0.5718905329704285,0.9110484753341898
880,1.7892000414576614e-06,1.0,0.5720748901367188,0.9110484753341898
881,1.7849425830718246e-06,1.0,0.572194516658783,0.9110484753341898
882,1.7785566797101637e-06,1.0,0.5722861886024475,0.9110484753341898
883,1.77110609911324e-06,1.0,0.5724137425422668,0.9110484753341898
884,1.7668486407274031e-06,1.0,0.5725263357162476,0.9110484753341898
885,1.7647198546910658e-06,1.0,0.5726566314697266,0.9110484753341898
886,1.757269274094142e-06,1.0,0.5727955102920532,0.9110484753341898
887,1.7487543573224684e-06,1.0,0.5729180574417114,0.9110484753341898
888,1.7434324490750441e-06,1.0,0.5730524063110352,0.9110484753341898
889,1.7285312878811965e-06,1.0,0.5731824636459351,0.9110484753341898
890,1.7232096070074476e-06,1.0,0.5732980966567993,0.9110484753341898
891,1.7210808209711104e-06,1.0,0.5734050869941711,0.9110484753341898
892,1.717887812446861e-06,1.0,0.57353276014328,0.9110484753341898
893,1.7072441096388502e-06,1.0,0.5736625790596008,0.9110484753341898
894,1.7029868786266888e-06,1.0,0.5737781524658203,0.9110484753341898
895,1.689150053607591e-06,1.0,0.5739412903785706,0.9110484753341898
896,1.6816994730106671e-06,1.0,0.5741075873374939,0.9110484753341898
897,1.6763776784500806e-06,1.0,0.5741928815841675,0.9110484753341898
898,1.6721202200642438e-06,1.0,0.5742811560630798,0.9110484753341898
899,1.6667983118168195e-06,1.0,0.5744354128837585,0.9110484753341898
900,1.6572190588703961e-06,1.0,0.5745701789855957,0.9110484753341898
901,1.6582833950451459e-06,1.0,0.5746893882751465,0.9110484753341898
902,1.6476398059239727e-06,1.0,0.5748685002326965,0.9110484753341898
903,1.6338029809048749e-06,1.0,0.5750085115432739,0.9110484753341898
904,1.6284811863442883e-06,1.0,0.5751181840896606,0.9110484753341898
905,1.626352400307951e-06,1.0,0.5751925706863403,0.9110484753341898
906,1.6189018197110272e-06,1.0,0.5752502679824829,0.9110484753341898
907,1.6125156889756909e-06,1.0,0.5753490328788757,0.9110484753341898
908,1.608258230589854e-06,1.0,0.5754766464233398,0.9110484753341898
909,1.60187198616768e-06,1.0,0.5755929350852966,0.9110484753341898
910,1.5880352748354198e-06,1.0,0.575716495513916,0.9110484753341898
911,1.5816491441000835e-06,1.0,0.5758976936340332,0.9110484753341898
912,1.5763272358526592e-06,1.0,0.5760421752929688,0.9110484753341898
913,1.5720697774668224e-06,1.0,0.5761134028434753,0.9110484753341898
914,1.5646191968698986e-06,1.0,0.5761675238609314,0.9110484753341898
915,1.5614260746588116e-06,1.0,0.5763044357299805,0.9110484753341898
916,1.556104280098225e-06,1.0,0.5764655470848083,0.9110484753341898
917,1.5507824855376384e-06,1.0,0.5766140818595886,0.9110484753341898
918,1.5454606909770519e-06,1.0,0.5766975283622742,0.9110484753341898
919,1.538010110380128e-06,1.0,0.5767807960510254,0.9110484753341898
920,1.528430743746867e-06,1.0,0.5769056677818298,0.9110484753341898
921,1.5241732853610301e-06,1.0,0.5770272612571716,0.9110484753341898
922,1.5177871546256938e-06,1.0,0.5771068930625916,0.9110484753341898
923,1.5145940324146068e-06,1.0,0.5772292017936707,0.9110484753341898
924,1.5103366877156077e-06,1.0,0.5773395299911499,0.9110484753341898
925,1.5082079016792704e-06,1.0,0.5774940848350525,0.9110484753341898
926,1.5007574347691843e-06,1.0,0.5776076912879944,0.9110484753341898
927,1.491178181822761e-06,1.0,0.5777053236961365,0.9110484753341898
928,1.4837276012258371e-06,1.0,0.5777928233146667,0.9110484753341898
929,1.48053447901475e-06,1.0,0.5779305696487427,0.9110484753341898
930,1.477341356803663e-06,1.0,0.5780579447746277,0.9110484753341898
931,1.470955112381489e-06,1.0,0.5781317949295044,0.9110484753341898
932,1.4698907762067392e-06,1.0,0.578251838684082,0.9110484753341898
933,1.4635045317845652e-06,1.0,0.5784185528755188,0.9110484753341898
934,1.4549896150128916e-06,1.0,0.5785493850708008,0.9110484753341898
935,1.4486034842775553e-06,1.0,0.57869952917099,0.9110484753341898
936,1.4400885675058817e-06,1.0,0.5788236856460571,0.9110484753341898
937,1.4337023230837076e-06,1.0,0.5790137648582458,0.9110484753341898
938,1.4294448646978708e-06,1.0,0.5791679620742798,0.9110484753341898
939,1.4241230701372842e-06,1.0,0.5792737603187561,0.9110484753341898
940,1.4209299479261972e-06,1.0,0.579369843006134,0.9110484753341898
941,1.4124150311545236e-06,1.0,0.5794883966445923,0.9110484753341898
942,1.4102862451181863e-06,1.0,0.5796141028404236,0.9110484753341898
943,1.4049645642444375e-06,1.0,0.5797610878944397,0.9110484753341898
944,1.3996426559970132e-06,1.0,0.5798572301864624,0.9110484753341898
945,1.3932565252616769e-06,1.0,0.5799440145492554,0.9110484753341898
946,1.382612822453666e-06,1.0,0.5800365805625916,0.9110484753341898
947,1.3751622418567422e-06,1.0,0.5801896452903748,0.9110484753341898
948,1.3709047834709054e-06,1.0,0.5803467035293579,0.9110484753341898
949,1.365582875223481e-06,1.0,0.5804824829101562,0.9110484753341898
950,1.362389753012394e-06,1.0,0.580596387386322,0.9110484753341898
951,1.3613254168376443e-06,1.0,0.5806916356086731,0.9110484753341898
952,1.3528105000659707e-06,1.0,0.5808194875717163,0.9110484753341898
953,1.348553041680134e-06,1.0,0.5810557007789612,0.9110484753341898
954,1.3421667972579598e-06,1.0,0.5812481641769409,0.9110484753341898
955,1.3368452300710487e-06,1.0,0.5813494324684143,0.9110484753341898
956,1.3240727412267006e-06,1.0,0.5814914107322693,0.9110484753341898
957,1.3240727412267006e-06,1.0,0.5816325545310974,0.9110484753341898
958,1.3176866104913643e-06,1.0,0.5817614793777466,0.9110484753341898
959,1.3134291521055275e-06,1.0,0.5818915963172913,0.9110484753341898
960,1.3113003660691902e-06,1.0,0.5820338129997253,0.9110484753341898
961,1.3102360298944404e-06,1.0,0.5821784734725952,0.9110484753341898
962,1.3038497854722664e-06,1.0,0.5823326110839844,0.9110484753341898
963,1.2985279909116798e-06,1.0,0.5824866890907288,0.9110484753341898
964,1.291077410314756e-06,1.0,0.5826374292373657,0.9110484753341898
965,1.2889486242784187e-06,1.0,0.5827473402023315,0.9110484753341898
966,1.2814980436814949e-06,1.0,0.5828563570976257,0.9110484753341898
967,1.274047463084571e-06,1.0,0.5829892158508301,0.9110484753341898
968,1.2687256685239845e-06,1.0,0.5830872654914856,0.9110484753341898
969,1.2665968824876472e-06,1.0,0.583204448223114,0.9110484753341898
970,1.2623394241018104e-06,1.0,0.5833835601806641,0.9110484753341898
971,1.2580819657159736e-06,1.0,0.58355712890625,0.9110484753341898
972,1.2538246210169746e-06,1.0,0.5836883783340454,0.9110484753341898
973,1.2506314988058875e-06,1.0,0.5838274955749512,0.9110484753341898
974,1.2453095905584632e-06,1.0,0.5839433073997498,0.9110484753341898
975,1.2399877959978767e-06,1.0,0.5840337872505188,0.9110484753341898
976,1.2357303376120399e-06,1.0,0.5842050313949585,0.9110484753341898
977,1.2261509709787788e-06,1.0,0.5844011902809143,0.9110484753341898
978,1.2144430456828559e-06,1.0,0.5845635533332825,0.9110484753341898
979,1.2123143733333563e-06,1.0,0.584675669670105,0.9110484753341898
980,1.206992465085932e-06,1.0,0.5848219990730286,0.9110484753341898
981,1.203799342874845e-06,1.0,0.5849965810775757,0.9110484753341898
982,1.1984775483142585e-06,1.0,0.5851156115531921,0.9110484753341898
983,1.1942200899284217e-06,1.0,0.5852127075195312,0.9110484753341898
984,1.1920913038920844e-06,1.0,0.5853012800216675,0.9110484753341898
985,1.1899626315425849e-06,1.0,0.5853851437568665,0.9110484753341898
986,1.1867695093314978e-06,1.0,0.5854561924934387,0.9110484753341898
987,1.1846407232951606e-06,1.0,0.585564136505127,0.9110484753341898
988,1.175061584035575e-06,1.0,0.5856930613517761,0.9110484753341898
989,1.1665466672639013e-06,1.0,0.5857967138290405,0.9110484753341898
990,1.1601604228417273e-06,1.0,0.5858849287033081,0.9110484753341898
991,1.15803163680539e-06,1.0,0.586013913154602,0.9110484753341898
992,1.1527098422448034e-06,1.0,0.5861496925354004,0.9110484753341898
993,1.1516455060700537e-06,1.0,0.5863036513328552,0.9110484753341898
994,1.1505810562084662e-06,1.0,0.5864623188972473,0.9110484753341898
995,1.1473879339973792e-06,1.0,0.5866004824638367,0.9110484753341898
996,1.1420661394367926e-06,1.0,0.5867612957954407,0.9110484753341898
997,1.1356798950146185e-06,1.0,0.5869162678718567,0.9110484753341898
998,1.133551222665119e-06,1.0,0.587095320224762,0.9110484753341898
999,1.1250361922066077e-06,1.0,0.5872535109519958,0.9110484753341898
