,loss,recall,val_loss,val_recall
0,0.595137894153595,0.5119897959183674,0.6588106155395508,0.44940476190476186
1,0.4455430209636688,0.7412664716236145,0.6250254511833191,0.8047095761381475
2,0.37540945410728455,0.8646603396603396,0.5492202639579773,0.8228896103896103
3,0.32640451192855835,0.870856524427953,0.43922844529151917,0.8288832199546484
4,0.29268914461135864,0.870856524427953,0.41790857911109924,0.8422619047619045
5,0.25948959589004517,0.9083900226757369,0.3459722697734833,0.8574546485260771
6,0.2398139238357544,0.9185941043083901,0.3631012737751007,0.8720238095238095
7,0.21407338976860046,0.9159863945578232,0.3237265944480896,0.8553004535147393
8,0.20690712332725525,0.9367346938775512,0.35280612111091614,0.8720238095238095
9,0.18323002755641937,0.9333333333333333,0.30732616782188416,0.8613945578231293
10,0.18091018497943878,0.9523809523809524,0.3704524040222168,0.8660714285714285
11,0.15849199891090393,0.9435064935064935,0.2943272888660431,0.8697845804988662
12,0.1671462208032608,0.9387445887445888,0.3609605133533478,0.8898809523809524
13,0.17543722689151764,0.9084415584415584,0.31236472725868225,0.8845238095238095
14,0.1810334026813507,0.9196969696969698,0.8905175924301147,0.687316651602366
15,0.15648455917835236,0.9523809523809524,0.33453840017318726,0.8852504638218923
16,0.13074158132076263,0.9523809523809524,0.30708417296409607,0.8984539270253556
17,0.11101161688566208,0.9523809523809524,0.4881349205970764,0.8048340548340548
18,0.09609689563512802,0.9642857142857143,0.3190787434577942,0.8829648526077097
19,0.08177219331264496,0.9577922077922078,0.41648969054222107,0.8779761904761905
20,0.06980331242084503,0.9642857142857143,0.31293728947639465,0.8771541950113378
21,0.07141267508268356,0.9642857142857143,0.3841240108013153,0.8793934240362811
22,0.06660203635692596,0.9761904761904762,0.3652487099170685,0.8695827981542268
23,0.09094025194644928,0.9642857142857143,0.9601046442985535,0.7499999999999999
24,0.08554942905902863,0.9642857142857143,1.343858003616333,0.6178571428571428
25,0.07382650673389435,0.9696969696969697,0.35597100853919983,0.8639860139860139
26,0.05240112543106079,0.9642857142857143,0.7953216433525085,0.7888888888888889
27,0.03884080424904823,1.0,0.3964908719062805,0.8946428571428571
28,0.028309587389230728,1.0,0.3622690737247467,0.8829648526077097
29,0.020793607458472252,1.0,0.3529721200466156,0.8889172335600907
30,0.01790938898921013,1.0,0.33076348900794983,0.8879251700680273
31,0.0135721480473876,1.0,0.34602686762809753,0.8879251700680273
32,0.01214549783617258,1.0,0.3492136001586914,0.895578231292517
33,0.010185162536799908,1.0,0.3532043397426605,0.895578231292517
34,0.008974871598184109,1.0,0.35562363266944885,0.9074829931972789
35,0.008030371740460396,1.0,0.36467766761779785,0.9074829931972789
36,0.007211754564195871,1.0,0.3680664002895355,0.9074829931972789
37,0.006552503909915686,1.0,0.37152644991874695,0.9074829931972789
38,0.0060000293888151646,1.0,0.37531787157058716,0.8986394557823129
39,0.005505811423063278,1.0,0.3789946734905243,0.8986394557823129
40,0.0050834110006690025,1.0,0.380319207906723,0.8986394557823129
41,0.004709823988378048,1.0,0.383486807346344,0.8986394557823129
42,0.004380881320685148,1.0,0.3861503005027771,0.8986394557823129
43,0.004091172944754362,1.0,0.3889753222465515,0.8986394557823129
44,0.003826741361990571,1.0,0.39085623621940613,0.8986394557823129
45,0.003589303931221366,1.0,0.39327630400657654,0.8986394557823129
46,0.003374385181814432,1.0,0.39545372128486633,0.8986394557823129
47,0.0031804367899894714,1.0,0.39707210659980774,0.8986394557823129
48,0.0030029353220015764,1.0,0.39854493737220764,0.8986394557823129
49,0.002838828833773732,1.0,0.4015214443206787,0.8986394557823129
50,0.0026893713511526585,1.0,0.40459468960762024,0.8986394557823129
51,0.0025546220131218433,1.0,0.4067019522190094,0.8986394557823129
52,0.002424771199002862,1.0,0.4077166020870209,0.8986394557823129
53,0.002313304226845503,1.0,0.4111843705177307,0.8986394557823129
54,0.0022024072241038084,1.0,0.4169303774833679,0.8986394557823129
55,0.002104952232912183,1.0,0.4220636785030365,0.8931449502878074
56,0.002012233017012477,1.0,0.4236105978488922,0.8986394557823129
57,0.0019274541409686208,1.0,0.41804924607276917,0.8986394557823129
58,0.0018474400276318192,1.0,0.417277991771698,0.8986394557823129
59,0.001773703028447926,1.0,0.41754359006881714,0.8986394557823129
60,0.0017030638409778476,1.0,0.4190899431705475,0.8986394557823129
61,0.0016380561282858253,1.0,0.4203152060508728,0.8986394557823129
62,0.0015758053632453084,1.0,0.4212360978126526,0.8986394557823129
63,0.0015184603398665786,1.0,0.4223845303058624,0.8986394557823129
64,0.0014623870374634862,1.0,0.425015389919281,0.8986394557823129
65,0.0014117377577349544,1.0,0.42864081263542175,0.8986394557823129
66,0.0013622314436361194,1.0,0.43077415227890015,0.8986394557823129
67,0.0013158166548237205,1.0,0.4300028383731842,0.8986394557823129
68,0.0012720656814053655,1.0,0.4291044771671295,0.8986394557823129
69,0.0012303838739171624,1.0,0.4299183189868927,0.9074829931972789
70,0.001190355746075511,1.0,0.43156203627586365,0.8986394557823129
71,0.0011521076085045934,1.0,0.4310210049152374,0.9074829931972789
72,0.0011166960466653109,1.0,0.4304554760456085,0.9074829931972789
73,0.0010819745948538184,1.0,0.43108171224594116,0.9074829931972789
74,0.0010489739943295717,1.0,0.43290188908576965,0.9074829931972789
75,0.0010177616495639086,1.0,0.43443647027015686,0.9074829931972789
76,0.0009881737641990185,1.0,0.4364214539527893,0.9074829931972789
77,0.0009598858305253088,1.0,0.43755507469177246,0.9074829931972789
78,0.0009326862054876983,1.0,0.4377855360507965,0.9074829931972789
79,0.0009069581865333021,1.0,0.43810099363327026,0.9074829931972789
80,0.0008820038056001067,1.0,0.4379208981990814,0.9074829931972789
81,0.0008587738266214728,1.0,0.43937715888023376,0.9074829931972789
82,0.0008356760954484344,1.0,0.44018957018852234,0.9074829931972789
83,0.0008141317521221936,1.0,0.4409351348876953,0.9074829931972789
84,0.000793259241618216,1.0,0.44169116020202637,0.9074829931972789
85,0.0007728580967523158,1.0,0.44326233863830566,0.9074829931972789
86,0.0007538895006291568,1.0,0.44392088055610657,0.9074829931972789
87,0.000734978704713285,1.0,0.44501250982284546,0.9074829931972789
88,0.0007171574397943914,1.0,0.4465845227241516,0.9074829931972789
89,0.0006998103926889598,1.0,0.44766169786453247,0.9074829931972789
90,0.0006831168429926038,1.0,0.44797447323799133,0.9074829931972789
91,0.0006671823211945593,1.0,0.45036858320236206,0.9074829931972789
92,0.0006516151479445398,1.0,0.4533655047416687,0.9074829931972789
93,0.0006364168948493898,1.0,0.45288601517677307,0.9074829931972789
94,0.0006222500232979655,1.0,0.4521271586418152,0.9074829931972789
95,0.0006079325103200972,1.0,0.45265501737594604,0.9074829931972789
96,0.0005947817116975784,1.0,0.4576304852962494,0.8931449502878074
97,0.0005813381867483258,1.0,0.46443381905555725,0.8931449502878074
98,0.0005690465914085507,1.0,0.46421918272972107,0.8931449502878074
99,0.0005566069157794118,1.0,0.4573630392551422,0.9074829931972789
100,0.000544787326361984,1.0,0.45543739199638367,0.9074829931972789
101,0.0005334052257239819,1.0,0.4567117691040039,0.9074829931972789
102,0.0005221761530265212,1.0,0.45809370279312134,0.9074829931972789
103,0.000511458667460829,1.0,0.46052834391593933,0.9074829931972789
104,0.0005010344320908189,1.0,0.46029990911483765,0.9074829931972789
105,0.000490834703668952,1.0,0.4582443833351135,0.9074829931972789
106,0.00048091792268678546,1.0,0.4573518633842468,0.9074829931972789
107,0.0004713385715149343,1.0,0.4587762653827667,0.9074829931972789
108,0.0004620559047907591,1.0,0.4633954167366028,0.9074829931972789
109,0.00045302038779482245,1.0,0.46687808632850647,0.9019884877027734
110,0.0004443965735845268,1.0,0.4637327492237091,0.9074829931972789
111,0.00043560605263337493,1.0,0.4608277976512909,0.9074829931972789
112,0.00042770677828229964,1.0,0.4624038338661194,0.9074829931972789
113,0.00041949140722863376,1.0,0.4626429080963135,0.9074829931972789
114,0.00041164938011206686,1.0,0.46279802918434143,0.9074829931972789
115,0.00040424749022349715,1.0,0.4625187814235687,0.9074829931972789
116,0.0003968575911130756,1.0,0.4633650481700897,0.9074829931972789
117,0.0003894986875820905,1.0,0.4640132486820221,0.9074829931972789
118,0.0003826979373116046,1.0,0.4649164378643036,0.9074829931972789
119,0.0003757153172045946,1.0,0.46642428636550903,0.9074829931972789
120,0.00036917554098181427,1.0,0.46878737211227417,0.9074829931972789
121,0.00036266384995542467,1.0,0.4699920117855072,0.9019884877027734
122,0.00035656237741932273,1.0,0.47088417410850525,0.9074829931972789
123,0.0003504891355987638,1.0,0.4698623716831207,0.9074829931972789
124,0.0003442676388658583,1.0,0.47324302792549133,0.9019884877027734
125,0.0003384877054486424,1.0,0.4754631221294403,0.9019884877027734
126,0.00033276673639193177,1.0,0.4788656234741211,0.9019884877027734
127,0.0003271634050179273,1.0,0.47853943705558777,0.9019884877027734
128,0.00032201875001192093,1.0,0.474957138299942,0.9019884877027734
129,0.0003168701659888029,1.0,0.4724414348602295,0.9019884877027734
130,0.0003114809805992991,1.0,0.4726334512233734,0.9074829931972789
131,0.0003068425285164267,1.0,0.4702238440513611,0.9074829931972789
132,0.0003019736032001674,1.0,0.4729968011379242,0.9074829931972789
133,0.0002975368406623602,1.0,0.4710922837257385,0.9074829931972789
134,0.00029285618802532554,1.0,0.4726896584033966,0.9074829931972789
135,0.00028833624674007297,1.0,0.4713597595691681,0.9074829931972789
136,0.00028348760679364204,1.0,0.4741055965423584,0.9074829931972789
137,0.0002796694461721927,1.0,0.47309058904647827,0.9074829931972789
138,0.00027504737954586744,1.0,0.47593337297439575,0.9074829931972789
139,0.0002708091924432665,1.0,0.4741203486919403,0.9074829931972789
140,0.00026689618243835866,1.0,0.4767247140407562,0.9074829931972789
141,0.00026315441937185824,1.0,0.47483235597610474,0.9074829931972789
142,0.00025854402338154614,1.0,0.47798821330070496,0.9074829931972789
143,0.0002554796519689262,1.0,0.4750599265098572,0.9019884877027734
144,0.0002509544719941914,1.0,0.47840994596481323,0.9074829931972789
145,0.0002485807635821402,1.0,0.47655534744262695,0.9019884877027734
146,0.00024390807084273547,1.0,0.4811876118183136,0.9074829931972789
147,0.00024250437854789197,1.0,0.47697553038597107,0.9019884877027734
148,0.00023768596292939037,1.0,0.4795384705066681,0.9074829931972789
149,0.00023749349929858,1.0,0.47886696457862854,0.9019884877027734
150,0.00023261562455445528,1.0,0.48540812730789185,0.9019884877027734
151,0.0002333700394956395,1.0,0.4835461676120758,0.9019884877027734
152,0.00022853026166558266,1.0,0.4840713143348694,0.9074829931972789
153,0.0002275056904181838,1.0,0.4824344217777252,0.9019884877027734
154,0.000224577946937643,1.0,0.479926198720932,0.9074829931972789
155,0.00022083174553699791,1.0,0.4849368929862976,0.9019884877027734
156,0.00022222781262826174,1.0,0.4854965806007385,0.9019884877027734
157,0.00021614138677250594,1.0,0.47949883341789246,0.9019884877027734
158,0.00021119216398801655,1.0,0.4848775267601013,0.9074829931972789
159,0.0002064709842670709,1.0,0.4836617410182953,0.9019884877027734
160,0.00020335661247372627,1.0,0.48362216353416443,0.9074829931972789
161,0.0002021418622462079,1.0,0.48140257596969604,0.9019884877027734
162,0.00019877773593179882,1.0,0.48317012190818787,0.9074829931972789
163,0.00019703339785337448,1.0,0.48353075981140137,0.9019884877027734
164,0.00019431355758570135,1.0,0.48527124524116516,0.9074829931972789
165,0.0001927246048580855,1.0,0.4852530062198639,0.9019884877027734
166,0.00019046964007429779,1.0,0.48594823479652405,0.9074829931972789
167,0.00018846263992600143,1.0,0.49003028869628906,0.9019884877027734
168,0.00018674817692954093,1.0,0.48617488145828247,0.9019884877027734
169,0.0001818699383875355,1.0,0.48931995034217834,0.9019884877027734
170,0.00018217650358565152,1.0,0.4894823729991913,0.9019884877027734
171,0.0001785269269021228,1.0,0.48831987380981445,0.9019884877027734
172,0.0001808827364584431,1.0,0.4894803464412689,0.9019884877027734
173,0.00017117585230153054,1.0,0.4876745045185089,0.9019884877027734
174,0.00016867663362063468,1.0,0.4930628836154938,0.9019884877027734
175,0.0001644565782044083,1.0,0.49259111285209656,0.9019884877027734
176,0.00016179241356439888,1.0,0.49302560091018677,0.9019884877027734
177,0.000159875737153925,1.0,0.48996779322624207,0.9019884877027734
178,0.0001577453367644921,1.0,0.4924685060977936,0.9019884877027734
179,0.000155848654685542,1.0,0.49174684286117554,0.9019884877027734
180,0.00015292428724933416,1.0,0.4951501786708832,0.9019884877027734
181,0.00015221399371512234,1.0,0.4927348494529724,0.9019884877027734
182,0.00014914922940079123,1.0,0.49210911989212036,0.9019884877027734
183,0.00014809423009864986,1.0,0.49221664667129517,0.9019884877027734
184,0.00014549960906151682,1.0,0.49443885684013367,0.9019884877027734
185,0.00014402976376004517,1.0,0.4935433268547058,0.9019884877027734
186,0.0001419094915036112,1.0,0.49381476640701294,0.9019884877027734
187,0.0001405046641593799,1.0,0.4914589822292328,0.9019884877027734
188,0.00013850883988197893,1.0,0.49324798583984375,0.9019884877027734
189,0.0001371466350974515,1.0,0.494522362947464,0.9019884877027734
190,0.00013517832849174738,1.0,0.49858662486076355,0.9019884877027734
191,0.00013419269816949964,1.0,0.495304137468338,0.9019884877027734
192,0.00013215435319580138,1.0,0.4963536560535431,0.9019884877027734
193,0.00013088787090964615,1.0,0.49489182233810425,0.9019884877027734
194,0.00012947172217536718,1.0,0.4978260397911072,0.9019884877027734
195,0.00012829569459427148,1.0,0.49472013115882874,0.9019884877027734
196,0.000126181825180538,1.0,0.49776679277420044,0.9019884877027734
197,0.00012525990314316005,1.0,0.4973418414592743,0.9019884877027734
198,0.00012354702630545944,1.0,0.4991500973701477,0.9019884877027734
199,0.00012223586963955313,1.0,0.49632230401039124,0.9019884877027734
200,0.00012056554987793788,1.0,0.4985935688018799,0.9019884877027734
201,0.00011952780914725736,1.0,0.49735838174819946,0.9019884877027734
202,0.00011795748287113383,1.0,0.4991942346096039,0.9019884877027734
203,0.00011738036846509203,1.0,0.4945079982280731,0.9019884877027734
204,0.00011525994341354817,1.0,0.4953975975513458,0.9019884877027734
205,0.00011413716856623068,1.0,0.4943663477897644,0.9019884877027734
206,0.00011283380445092916,1.0,0.4960758686065674,0.9019884877027734
207,0.00011162167356815189,1.0,0.49777159094810486,0.9019884877027734
208,0.00011067785817431286,1.0,0.5002411007881165,0.9019884877027734
209,0.00011036062642233446,1.0,0.49936380982398987,0.9019884877027734
210,0.0001081653535948135,1.0,0.4981940686702728,0.9019884877027734
211,0.00010702592408051714,1.0,0.501798152923584,0.9019884877027734
212,0.00010617875523166731,1.0,0.5013452172279358,0.8968864468864469
213,0.00010488706175237894,1.0,0.5084612965583801,0.9019884877027734
214,0.00010541565279709175,1.0,0.5112598538398743,0.8968864468864469
215,0.000107188468973618,1.0,0.4988510012626648,0.9019884877027734
216,0.00010307908087270334,1.0,0.5073654055595398,0.9019884877027734
217,0.00010374920384492725,1.0,0.5039972066879272,0.9019884877027734
218,0.0001016038513625972,1.0,0.4963000416755676,0.8968864468864469
219,0.00010052517609437928,1.0,0.5111109614372253,0.9074829931972789
220,0.00010194470814894885,1.0,0.5000634789466858,0.8968864468864469
221,9.872573718894273e-05,1.0,0.5060495138168335,0.9074829931972789
222,9.680250514065847e-05,1.0,0.5005118250846863,0.9019884877027734
223,9.535031131235883e-05,1.0,0.5050808191299438,0.9074829931972789
224,9.41198886721395e-05,1.0,0.5039647817611694,0.8968864468864469
225,9.454788960283622e-05,1.0,0.5114928483963013,0.9019884877027734
226,9.473350655753165e-05,1.0,0.5003305673599243,0.8968864468864469
227,9.092339314520359e-05,1.0,0.5055416226387024,0.9074829931972789
228,9.072000830201432e-05,1.0,0.5020298361778259,0.9019884877027734
229,8.944958244683221e-05,1.0,0.5055848360061646,0.9019884877027734
230,9.056669659912586e-05,1.0,0.5150521993637085,0.9019884877027734
231,9.662879165261984e-05,1.0,0.4961024224758148,0.9019884877027734
232,9.736697393236682e-05,1.0,0.5150433778762817,0.9019884877027734
233,0.00010976049088640139,1.0,0.5047616362571716,0.8968864468864469
234,0.00010846334771485999,1.0,0.49317678809165955,0.9019884877027734
235,0.00010320398723706603,1.0,0.5039981007575989,0.9019884877027734
236,0.00010228998871752992,1.0,0.5073145031929016,0.9019884877027734
237,0.00010064699017675593,1.0,0.5039911866188049,0.9019884877027734
238,9.812513599172235e-05,1.0,0.5076352953910828,0.9019884877027734
239,9.658640919951722e-05,1.0,0.508179783821106,0.9019884877027734
240,9.488806972512975e-05,1.0,0.5048274397850037,0.9019884877027734
241,9.270557347917929e-05,1.0,0.5060093402862549,0.9019884877027734
242,9.049214713741094e-05,1.0,0.507392942905426,0.9019884877027734
243,8.765403617871925e-05,1.0,0.5047604441642761,0.9019884877027734
244,8.420185622526333e-05,1.0,0.5071187615394592,0.9074829931972789
245,8.04304945631884e-05,1.0,0.5062621831893921,0.9019884877027734
246,7.859602192183957e-05,1.0,0.5053046345710754,0.9074829931972789
247,7.64995493227616e-05,1.0,0.5058413147926331,0.9019884877027734
248,7.602373079862446e-05,1.0,0.5117955803871155,0.9019884877027734
249,7.542115781689063e-05,1.0,0.5037156939506531,0.8968864468864469
250,7.438070315402001e-05,1.0,0.5131002068519592,0.9074829931972789
251,7.348564395215362e-05,1.0,0.5103381276130676,0.8968864468864469
252,7.29844396119006e-05,1.0,0.5132189393043518,0.9019884877027734
253,7.205742440419272e-05,1.0,0.5099623799324036,0.8968864468864469
254,7.247366011142731e-05,1.0,0.521051824092865,0.895578231292517
255,7.330621156143025e-05,1.0,0.5029818415641785,0.8968864468864469
256,7.140731031540781e-05,1.0,0.5152093768119812,0.895578231292517
257,7.02270699548535e-05,1.0,0.5236557722091675,0.8968864468864469
258,7.50391191104427e-05,1.0,0.5095409154891968,0.9019884877027734
259,7.179338717833161e-05,1.0,0.5150459408760071,0.9019884877027734
260,7.325893238885328e-05,1.0,0.5064305067062378,0.9019884877027734
261,7.21638643881306e-05,1.0,0.5205222964286804,0.9019884877027734
262,7.712375372648239e-05,1.0,0.5174618363380432,0.8968864468864469
263,7.555396587122232e-05,1.0,0.5108820199966431,0.9019884877027734
264,6.932768155820668e-05,1.0,0.5159205794334412,0.9019884877027734
265,6.746445433236659e-05,1.0,0.5170897245407104,0.9019884877027734
266,6.586061499547213e-05,1.0,0.5118721127510071,0.9019884877027734
267,6.402811413863674e-05,1.0,0.5166285634040833,0.9019884877027734
268,6.324471178231761e-05,1.0,0.5171693563461304,0.8968864468864469
269,6.309897435130551e-05,1.0,0.5147276520729065,0.9019884877027734
270,6.191327702254057e-05,1.0,0.5132285356521606,0.8968864468864469
271,6.14835080341436e-05,1.0,0.5152943730354309,0.9019884877027734
272,6.134836439741775e-05,1.0,0.5175324082374573,0.8968864468864469
273,6.461209704866633e-05,1.0,0.5116339921951294,0.9019884877027734
274,6.299780943663791e-05,1.0,0.5220245718955994,0.9019884877027734
275,7.093867316143587e-05,1.0,0.5096526145935059,0.8968864468864469
276,6.989266694290563e-05,1.0,0.5057521462440491,0.9019884877027734
277,6.321911496343091e-05,1.0,0.5184261202812195,0.9019884877027734
278,6.057449718355201e-05,1.0,0.5311557054519653,0.8968864468864469
279,6.550711987074465e-05,1.0,0.5102532505989075,0.8968864468864469
280,6.302531255641952e-05,1.0,0.5202411413192749,0.9019884877027734
281,6.447361374739558e-05,1.0,0.5156046748161316,0.8968864468864469
282,6.22856750851497e-05,1.0,0.5150906443595886,0.9074829931972789
283,5.850740126334131e-05,1.0,0.5135172605514526,0.8968864468864469
284,5.917938324273564e-05,1.0,0.5209078788757324,0.9074829931972789
285,5.649532613460906e-05,1.0,0.5166160464286804,0.8968864468864469
286,5.571634028456174e-05,1.0,0.5238085985183716,0.9019884877027734
287,5.548413173528388e-05,1.0,0.5161908268928528,0.8968864468864469
288,5.548005719901994e-05,1.0,0.5236915946006775,0.9074829931972789
289,5.420287561719306e-05,1.0,0.518052875995636,0.8968864468864469
290,5.4271080443868414e-05,1.0,0.5221636891365051,0.9019884877027734
291,5.356856490834616e-05,1.0,0.5139519572257996,0.8968864468864469
292,5.4196538258111104e-05,1.0,0.5232164263725281,0.9074829931972789
293,5.358230555430055e-05,1.0,0.5159024000167847,0.8968864468864469
294,5.3399413445731625e-05,1.0,0.5218766331672668,0.9074829931972789
295,5.2455321565503255e-05,1.0,0.5151664614677429,0.8968864468864469
296,5.2373485232237726e-05,1.0,0.5210886597633362,0.9019884877027734
297,5.1283677748870105e-05,1.0,0.5185419917106628,0.8968864468864469
298,5.129328928887844e-05,1.0,0.5212520956993103,0.9019884877027734
299,5.065145523985848e-05,1.0,0.5152690410614014,0.8968864468864469
300,5.053662971477024e-05,1.0,0.5241277813911438,0.895578231292517
301,5.0145958084613085e-05,1.0,0.5193538665771484,0.8968864468864469
302,4.957561395713128e-05,1.0,0.5201032161712646,0.9019884877027734
303,4.830275065614842e-05,1.0,0.5192535519599915,0.8968864468864469
304,4.8151683586183935e-05,1.0,0.5250275731086731,0.9019884877027734
305,4.822617120225914e-05,1.0,0.5281262397766113,0.8968864468864469
306,4.8966885515255854e-05,1.0,0.5215255618095398,0.9019884877027734
307,4.6200828364817426e-05,1.0,0.5237847566604614,0.8968864468864469
308,4.681605059886351e-05,1.0,0.5298219323158264,0.9019884877027734
309,4.67394020233769e-05,1.0,0.527885377407074,0.8968864468864469
310,4.7053305024746805e-05,1.0,0.5317162871360779,0.8900837257980115
311,4.716273906524293e-05,1.0,0.5172446370124817,0.8968864468864469
312,4.6917080908315256e-05,1.0,0.5219191908836365,0.9019884877027734
313,4.567296855384484e-05,1.0,0.5320621728897095,0.8968864468864469
314,4.5318582124309614e-05,1.0,0.5250512361526489,0.9019884877027734
315,4.414470822666772e-05,1.0,0.5215731859207153,0.8968864468864469
316,4.5433502236846834e-05,1.0,0.5307165384292603,0.9019884877027734
317,4.628473470802419e-05,1.0,0.5256986618041992,0.8968864468864469
318,4.61752679257188e-05,1.0,0.5228021740913391,0.9019884877027734
319,4.492368680075742e-05,1.0,0.5357970595359802,0.8968864468864469
320,4.404148057801649e-05,1.0,0.5235964059829712,0.9019884877027734
321,4.300377258914523e-05,1.0,0.5326675772666931,0.8968864468864469
322,4.2134364775847644e-05,1.0,0.5222938656806946,0.8968864468864469
323,4.096045086043887e-05,1.0,0.531754195690155,0.8968864468864469
324,4.035063102492131e-05,1.0,0.5319290161132812,0.8968864468864469
325,4.08178566431161e-05,1.0,0.5229618549346924,0.8968864468864469
326,3.998664396931417e-05,1.0,0.530556857585907,0.9019884877027734
327,4.018878098577261e-05,1.0,0.5253974199295044,0.8968864468864469
328,4.067949339514598e-05,1.0,0.5250120162963867,0.9019884877027734
329,4.0023831388680264e-05,1.0,0.527195394039154,0.8968864468864469
330,3.889467188855633e-05,1.0,0.5256676077842712,0.8968864468864469
331,3.96758878196124e-05,1.0,0.5309651494026184,0.8968864468864469
332,4.3086660298286006e-05,1.0,0.5223110914230347,0.8968864468864469
333,4.204059951007366e-05,1.0,0.538553774356842,0.9019884877027734
334,4.88463047076948e-05,1.0,0.5259019732475281,0.8968864468864469
335,4.7303274186560884e-05,1.0,0.5159202218055725,0.9074829931972789
336,4.1973533370764926e-05,1.0,0.5333573222160339,0.8968864468864469
337,3.939592352253385e-05,1.0,0.5457030534744263,0.9019884877027734
338,3.9617149013793096e-05,1.0,0.5306036472320557,0.8968864468864469
339,3.964173447457142e-05,1.0,0.5276082754135132,0.9019884877027734
340,3.7176891055423766e-05,1.0,0.5335253477096558,0.8968864468864469
341,3.6611800169339404e-05,1.0,0.5357393026351929,0.8968864468864469
342,3.6457473470363766e-05,1.0,0.5350831151008606,0.8968864468864469
343,3.692042446346022e-05,1.0,0.53480464220047,0.895578231292517
344,3.5988061426905915e-05,1.0,0.5270245671272278,0.8968864468864469
345,3.693741746246815e-05,1.0,0.5351349711418152,0.9019884877027734
346,3.787917739828117e-05,1.0,0.5265928506851196,0.8968864468864469
347,3.596895476221107e-05,1.0,0.5309230089187622,0.9019884877027734
348,3.5708224459085613e-05,1.0,0.5420563220977783,0.8968864468864469
349,3.7141766370041296e-05,1.0,0.5218793153762817,0.9019884877027734
350,3.602963624871336e-05,1.0,0.5448046922683716,0.8968864468864469
351,4.1938346839742735e-05,1.0,0.5275038480758667,0.8968864468864469
352,4.05814171244856e-05,1.0,0.5280773043632507,0.9019884877027734
353,3.595405723899603e-05,1.0,0.5345876812934875,0.8968864468864469
354,3.55858173861634e-05,1.0,0.5374954342842102,0.8968864468864469
355,3.524735802784562e-05,1.0,0.5385851263999939,0.8968864468864469
356,3.512918556225486e-05,1.0,0.5309327244758606,0.8968864468864469
357,3.3124109904747456e-05,1.0,0.5493781566619873,0.8968864468864469
358,3.2894244213821366e-05,1.0,0.5332352519035339,0.8968864468864469
359,3.2146021112566814e-05,1.0,0.5337633490562439,0.8968864468864469
360,3.1459589081350714e-05,1.0,0.5377516150474548,0.8968864468864469
361,3.154153091600165e-05,1.0,0.5331792235374451,0.8968864468864469
362,3.1143474188866094e-05,1.0,0.5364062786102295,0.8968864468864469
363,3.090932295890525e-05,1.0,0.5353671908378601,0.8968864468864469
364,3.1356339604826644e-05,1.0,0.5319444537162781,0.9019884877027734
365,3.056659988942556e-05,1.0,0.5338661074638367,0.8968864468864469
366,3.024734542123042e-05,1.0,0.5402927994728088,0.8968864468864469
367,3.0697538022650406e-05,1.0,0.5336953401565552,0.8968864468864469
368,3.090397876803763e-05,1.0,0.5404039621353149,0.8849816849816851
369,3.02611351798987e-05,1.0,0.5313369035720825,0.8968864468864469
370,3.14467579300981e-05,1.0,0.5380933880805969,0.9019884877027734
371,3.381774149602279e-05,1.0,0.521542489528656,0.8968864468864469
372,3.305915015516803e-05,1.0,0.5379987955093384,0.9019884877027734
373,3.658067362266593e-05,1.0,0.5396498441696167,0.8968864468864469
374,3.622307485784404e-05,1.0,0.5327573418617249,0.9019884877027734
375,3.811279748333618e-05,1.0,0.5361368060112,0.8968864468864469
376,3.783324427786283e-05,1.0,0.5544835925102234,0.895578231292517
377,3.8865407987032086e-05,1.0,0.5411173105239868,0.8968864468864469
378,3.9905356970848516e-05,1.0,0.5392473340034485,0.8968864468864469
379,3.681779344333336e-05,1.0,0.5368109941482544,0.8968864468864469
380,3.775774530367926e-05,1.0,0.5424520373344421,0.8968864468864469
381,3.272273897891864e-05,1.0,0.5390603542327881,0.8968864468864469
382,3.264829865656793e-05,1.0,0.5426877737045288,0.8968864468864469
383,3.1544663215754554e-05,1.0,0.5380417108535767,0.9019884877027734
384,3.180639396305196e-05,1.0,0.5541324019432068,0.8968864468864469
385,3.418833512114361e-05,1.0,0.5401408076286316,0.8968864468864469
386,3.267277861596085e-05,1.0,0.5285390615463257,0.9019884877027734
387,2.9044658731436357e-05,1.0,0.5484735369682312,0.9019884877027734
388,2.8074004148948006e-05,1.0,0.5534979701042175,0.8968864468864469
389,2.7778163712355308e-05,1.0,0.5453972816467285,0.9019884877027734
390,2.808573299262207e-05,1.0,0.5301834940910339,0.8968864468864469
391,2.761104224191513e-05,1.0,0.5509560108184814,0.8968864468864469
392,3.104121788055636e-05,1.0,0.5326792597770691,0.8968864468864469
393,2.9578881367342547e-05,1.0,0.5403385758399963,0.8900837257980115
394,2.7032003345084377e-05,1.0,0.5400111079216003,0.8968864468864469
395,2.805908843583893e-05,1.0,0.5459173917770386,0.8968864468864469
396,2.7573745683184825e-05,1.0,0.5414038300514221,0.8968864468864469
397,2.7689757189364173e-05,1.0,0.5459056496620178,0.8968864468864469
398,2.8640051823458634e-05,1.0,0.5425787568092346,0.8968864468864469
399,2.9997090678079985e-05,1.0,0.5465990900993347,0.8968864468864469
400,3.2088279112940654e-05,1.0,0.5446575284004211,0.8968864468864469
401,3.14934404741507e-05,1.0,0.5507301688194275,0.895578231292517
402,2.9323351554921828e-05,1.0,0.5405527353286743,0.8968864468864469
403,2.9238271963549778e-05,1.0,0.5368832349777222,0.8968864468864469
404,2.7554564439924434e-05,1.0,0.552761435508728,0.8968864468864469
405,2.968742228404153e-05,1.0,0.5518248677253723,0.8968864468864469
406,2.6130559490411542e-05,1.0,0.5414155721664429,0.8968864468864469
407,2.515249616408255e-05,1.0,0.5388855934143066,0.9019884877027734
408,2.400730772933457e-05,1.0,0.548117995262146,0.9019884877027734
409,2.4240376660600305e-05,1.0,0.5542024374008179,0.8968864468864469
410,2.4116894564940594e-05,1.0,0.5452004075050354,0.8968864468864469
411,2.4733146346989088e-05,1.0,0.5480157732963562,0.8968864468864469
412,2.5396138880751096e-05,1.0,0.5430262684822083,0.8968864468864469
413,2.6094363420270383e-05,1.0,0.5522426962852478,0.8968864468864469
414,2.682228478079196e-05,1.0,0.5413587093353271,0.8968864468864469
415,2.7337428036844358e-05,1.0,0.5494624972343445,0.8968864468864469
416,2.658384619280696e-05,1.0,0.5368891954421997,0.8968864468864469
417,2.7923835659748875e-05,1.0,0.5433715581893921,0.8968864468864469
418,2.624650915095117e-05,1.0,0.5420112609863281,0.9019884877027734
419,2.657219192769844e-05,1.0,0.5448300242424011,0.8968864468864469
420,2.5395142074557953e-05,1.0,0.5437179803848267,0.9019884877027734
421,2.404450424364768e-05,1.0,0.5484877228736877,0.8968864468864469
422,2.2820588128524832e-05,1.0,0.5513542294502258,0.9019884877027734
423,2.299086372659076e-05,1.0,0.5564370155334473,0.8968864468864469
424,2.459266033838503e-05,1.0,0.5388251543045044,0.9019884877027734
425,2.3298431187868118e-05,1.0,0.5508764982223511,0.8968864468864469
426,2.3457034330931492e-05,1.0,0.549574613571167,0.8968864468864469
427,2.3046186470310204e-05,1.0,0.55659419298172,0.8968864468864469
428,2.5686751541798003e-05,1.0,0.5498186349868774,0.8968864468864469
429,2.389125802437775e-05,1.0,0.5415542721748352,0.8968864468864469
430,2.129329186573159e-05,1.0,0.5615946650505066,0.8968864468864469
431,2.1417808966361918e-05,1.0,0.5623096823692322,0.8968864468864469
432,2.106872489093803e-05,1.0,0.5531973838806152,0.8968864468864469
433,2.0443962057470344e-05,1.0,0.5518999695777893,0.8968864468864469
434,2.027154368988704e-05,1.0,0.553582489490509,0.8968864468864469
435,2.0250246961950324e-05,1.0,0.5492092967033386,0.8968864468864469
436,2.020342981268186e-05,1.0,0.5532941222190857,0.8968864468864469
437,2.0214050891809165e-05,1.0,0.5490670204162598,0.8968864468864469
438,2.0503561245277524e-05,1.0,0.5556492209434509,0.8968864468864469
439,2.1243216906441376e-05,1.0,0.5466057658195496,0.8968864468864469
440,2.1680674763047136e-05,1.0,0.5597949624061584,0.8968864468864469
441,2.2848153093946166e-05,1.0,0.547947347164154,0.8968864468864469
442,2.3255819542100653e-05,1.0,0.5562916994094849,0.9019884877027734
443,2.3058853912516497e-05,1.0,0.5446223616600037,0.8968864468864469
444,2.430624772387091e-05,1.0,0.5510590672492981,0.8968864468864469
445,2.3549493562313728e-05,1.0,0.5476423501968384,0.8968864468864469
446,2.4290280634886585e-05,1.0,0.5525565147399902,0.8968864468864469
447,2.2087191609898582e-05,1.0,0.5584716796875,0.9019884877027734
448,2.1844554794370197e-05,1.0,0.5578359365463257,0.8968864468864469
449,2.0075685824849643e-05,1.0,0.5580286383628845,0.9019884877027734
450,1.9591430827858858e-05,1.0,0.5583158135414124,0.8968864468864469
451,1.8741046005743556e-05,1.0,0.5610073804855347,0.8968864468864469
452,1.8569686289993115e-05,1.0,0.5579339265823364,0.8968864468864469
453,1.825145045586396e-05,1.0,0.5579932928085327,0.8968864468864469
454,1.8305732737644576e-05,1.0,0.5555234551429749,0.8968864468864469
455,1.8019423805526458e-05,1.0,0.5564829707145691,0.8968864468864469
456,1.8107764844899066e-05,1.0,0.5569217801094055,0.8968864468864469
457,1.8004519006353803e-05,1.0,0.5547236800193787,0.8968864468864469
458,1.8284439647686668e-05,1.0,0.5590037703514099,0.8968864468864469
459,1.8489834474166855e-05,1.0,0.5520191788673401,0.8968864468864469
460,1.8959213775815442e-05,1.0,0.5604389905929565,0.8968864468864469
461,1.9509423509589396e-05,1.0,0.5502406358718872,0.8968864468864469
462,1.983938636840321e-05,1.0,0.5589266419410706,0.8968864468864469
463,1.9587099814089015e-05,1.0,0.5503799319267273,0.8968864468864469
464,2.037366539298091e-05,1.0,0.5587708353996277,0.8968864468864469
465,1.964245348062832e-05,1.0,0.5512216687202454,0.8968864468864469
466,2.0261901227058843e-05,1.0,0.5571717023849487,0.8968864468864469
467,1.8784630810841918e-05,1.0,0.5562158823013306,0.8968864468864469
468,1.9086917745880783e-05,1.0,0.5555775761604309,0.8968864468864469
469,1.769478876667563e-05,1.0,0.5603684186935425,0.8968864468864469
470,1.766605601005722e-05,1.0,0.5604824423789978,0.8968864468864469
471,1.7232876416528597e-05,1.0,0.5651963353157043,0.8968864468864469
472,1.7453194232075475e-05,1.0,0.5552588105201721,0.8968864468864469
473,1.7068969100364484e-05,1.0,0.5662067532539368,0.8968864468864469
474,1.7638387362239882e-05,1.0,0.5546578764915466,0.8968864468864469
475,1.770649032550864e-05,1.0,0.5637101531028748,0.8968864468864469
476,1.9355135009391233e-05,1.0,0.55601567029953,0.8968864468864469
477,1.776077078829985e-05,1.0,0.5574343800544739,0.8968864468864469
478,1.784700361895375e-05,1.0,0.5557323098182678,0.8968864468864469
479,1.6954023521975614e-05,1.0,0.568756639957428,0.8968864468864469
480,1.8554765119915828e-05,1.0,0.5566014647483826,0.8968864468864469
481,1.7189226127811708e-05,1.0,0.5564084053039551,0.8968864468864469
482,1.6700709238648415e-05,1.0,0.5605980157852173,0.8968864468864469
483,1.6792242604424246e-05,1.0,0.5730996131896973,0.8968864468864469
484,1.8843196812667884e-05,1.0,0.5542083978652954,0.8968864468864469
485,1.7725642464938574e-05,1.0,0.5498178005218506,0.8968864468864469
486,1.5592744603054598e-05,1.0,0.5714993476867676,0.8968864468864469
487,1.5756657376186922e-05,1.0,0.5723304748535156,0.8968864468864469
488,1.5553376215393655e-05,1.0,0.5608249306678772,0.8968864468864469
489,1.5012689800641965e-05,1.0,0.5638489723205566,0.8968864468864469
490,1.4812593690294307e-05,1.0,0.562359631061554,0.8968864468864469
491,1.4741282029717695e-05,1.0,0.5637811422348022,0.8968864468864469
492,1.4692326658405364e-05,1.0,0.5620430111885071,0.8968864468864469
493,1.4518834177579265e-05,1.0,0.5629318356513977,0.8968864468864469
494,1.4530545740853995e-05,1.0,0.5641668438911438,0.8968864468864469
495,1.4479453056992497e-05,1.0,0.5593462586402893,0.8968864468864469
496,1.4490101420960855e-05,1.0,0.5643820762634277,0.8968864468864469
497,1.4484768144029658e-05,1.0,0.5605403184890747,0.8968864468864469
498,1.4636975720350165e-05,1.0,0.5658189654350281,0.8968864468864469
499,1.4754034964425955e-05,1.0,0.5593045949935913,0.8968864468864469
500,1.5079732293088455e-05,1.0,0.5672178268432617,0.8968864468864469
501,1.54000663314946e-05,1.0,0.5566887259483337,0.8968864468864469
502,1.613979293324519e-05,1.0,0.567842423915863,0.8968864468864469
503,1.6813453839858994e-05,1.0,0.5568634271621704,0.8968864468864469
504,1.7557453247718513e-05,1.0,0.5649741291999817,0.8968864468864469
505,1.623128446226474e-05,1.0,0.5510693788528442,0.8968864468864469
506,1.7438249415135942e-05,1.0,0.5571972727775574,0.9019884877027734
507,1.621427873033099e-05,1.0,0.5545474290847778,0.8968864468864469
508,1.6728332411730662e-05,1.0,0.5577219724655151,0.8968864468864469
509,1.550224442325998e-05,1.0,0.5770619511604309,0.8900837257980115
510,1.5424559023813345e-05,1.0,0.5758814811706543,0.8968864468864469
511,1.5078646356414538e-05,1.0,0.5788608193397522,0.8968864468864469
512,1.5939702279865742e-05,1.0,0.567306399345398,0.8968864468864469
513,1.4628443750552833e-05,1.0,0.5663192868232727,0.8968864468864469
514,1.437089031242067e-05,1.0,0.5641189813613892,0.8968864468864469
515,1.3543902241508476e-05,1.0,0.5708717107772827,0.8968864468864469
516,1.374080511595821e-05,1.0,0.5655180215835571,0.8968864468864469
517,1.336934928986011e-05,1.0,0.5746092796325684,0.8968864468864469
518,1.3946219041827135e-05,1.0,0.5589288473129272,0.8968864468864469
519,1.3798273357679136e-05,1.0,0.5793884992599487,0.8968864468864469
520,1.6019524991861545e-05,1.0,0.5587292313575745,0.8968864468864469
521,1.4608219316869508e-05,1.0,0.5543428659439087,0.8968864468864469
522,1.3120288713253103e-05,1.0,0.5759859085083008,0.8968864468864469
523,1.3476847016136162e-05,1.0,0.5822299718856812,0.8968864468864469
524,1.4111191376287024e-05,1.0,0.557343602180481,0.8968864468864469
525,1.3836579455528408e-05,1.0,0.5760183334350586,0.8968864468864469
526,1.5674671885790303e-05,1.0,0.5647989511489868,0.8968864468864469
527,1.436874117644038e-05,1.0,0.555865466594696,0.8900837257980115
528,1.2713717296719551e-05,1.0,0.578140377998352,0.8968864468864469
529,1.269349468202563e-05,1.0,0.57627934217453,0.8968864468864469
530,1.2330557183304336e-05,1.0,0.5729575753211975,0.8968864468864469
531,1.2057018466293812e-05,1.0,0.570147693157196,0.8968864468864469
532,1.1882468243129551e-05,1.0,0.5722160935401917,0.8968864468864469
533,1.1824992725451011e-05,1.0,0.5729060769081116,0.8968864468864469
534,1.1781355169659946e-05,1.0,0.5686930418014526,0.8968864468864469
535,1.1634476322797127e-05,1.0,0.5708917379379272,0.8968864468864469
536,1.158657960331766e-05,1.0,0.5707477331161499,0.8968864468864469
537,1.1516332961036824e-05,1.0,0.5715670585632324,0.8968864468864469
538,1.1458859262347687e-05,1.0,0.5723856687545776,0.8968864468864469
539,1.1396062291169073e-05,1.0,0.571615993976593,0.8968864468864469
540,1.1321557394694537e-05,1.0,0.5708613991737366,0.8968864468864469
541,1.1260890460107476e-05,1.0,0.5707665085792542,0.8968864468864469
542,1.1210866432520561e-05,1.0,0.5713782906532288,0.8968864468864469
543,1.1155520951433573e-05,1.0,0.5711880326271057,0.8968864468864469
544,1.1094852197857108e-05,1.0,0.5710822939872742,0.8968864468864469
545,1.1032056136173196e-05,1.0,0.5701695680618286,0.8968864468864469
546,1.0979904800478835e-05,1.0,0.5711683034896851,0.8968864468864469
547,1.093732953449944e-05,1.0,0.5719659924507141,0.8968864468864469
548,1.0901142559305299e-05,1.0,0.5717126727104187,0.8968864468864469
549,1.081280061043799e-05,1.0,0.5708320140838623,0.8968864468864469
550,1.0773421308840625e-05,1.0,0.5721754431724548,0.8968864468864469
551,1.0719138117565308e-05,1.0,0.5721506476402283,0.8968864468864469
552,1.0699981430661865e-05,1.0,0.5737558007240295,0.8968864468864469
553,1.064037496689707e-05,1.0,0.5716579556465149,0.8968864468864469
554,1.0590353667794261e-05,1.0,0.5706233382225037,0.8968864468864469
555,1.0511591426620726e-05,1.0,0.571031928062439,0.8968864468864469
556,1.0489240594324656e-05,1.0,0.573064386844635,0.8968864468864469
557,1.0433893294248264e-05,1.0,0.573280394077301,0.8968864468864469
558,1.0433893294248264e-05,1.0,0.5722654461860657,0.8968864468864469
559,1.0345552254875656e-05,1.0,0.5701978802680969,0.8968864468864469
560,1.0320009096176364e-05,1.0,0.5700815916061401,0.8968864468864469
561,1.0235925401502755e-05,1.0,0.5710649490356445,0.8968864468864469
562,1.0262533578497823e-05,1.0,0.5739416480064392,0.8968864468864469
563,1.0194415153819136e-05,1.0,0.5718369483947754,0.8968864468864469
564,1.0278497938998044e-05,1.0,0.570954442024231,0.8968864468864469
565,1.020718536892673e-05,1.0,0.5706291794776917,0.8968864468864469
566,1.0251888852508273e-05,1.0,0.5689621567726135,0.8968864468864469
567,1.0072014447359834e-05,1.0,0.5739802718162537,0.8968864468864469
568,1.0078400919155683e-05,1.0,0.5711446404457092,0.8968864468864469
569,9.945359124685638e-06,1.0,0.5733817219734192,0.8968864468864469
570,9.980481081584003e-06,1.0,0.5721063613891602,0.8968864468864469
571,9.854887139226776e-06,1.0,0.5733805298805237,0.8968864468864469
572,9.907041203405242e-06,1.0,0.572070300579071,0.8968864468864469
573,9.794220204639714e-06,1.0,0.5730433464050293,0.8968864468864469
574,9.867659173323773e-06,1.0,0.5734913945198059,0.8968864468864469
575,9.765482900547795e-06,1.0,0.57490473985672,0.8968864468864469
576,9.877237062028144e-06,1.0,0.5728822350502014,0.8968864468864469
577,9.780381333257537e-06,1.0,0.5738689303398132,0.8968864468864469
578,9.99750591290649e-06,1.0,0.5702451467514038,0.8968864468864469
579,9.911293091136031e-06,1.0,0.5733413696289062,0.8968864468864469
580,1.0029435543401632e-05,1.0,0.5695844888687134,0.8968864468864469
581,9.938964467437472e-06,1.0,0.5763393640518188,0.8968864468864469
582,1.012096709018806e-05,1.0,0.5683040022850037,0.8968864468864469
583,1.0110320545209106e-05,1.0,0.5740808248519897,0.8968864468864469
584,1.0328511052648537e-05,1.0,0.5687167048454285,0.8968864468864469
585,1.0390234820079058e-05,1.0,0.5731340050697327,0.8968864468864469
586,1.0790433407237288e-05,1.0,0.5713605880737305,0.8968864468864469
587,1.112675090553239e-05,1.0,0.5766483545303345,0.8968864468864469
588,1.3257535101729445e-05,1.0,0.5855117440223694,0.8968864468864469
589,1.3451148333842866e-05,1.0,0.543960452079773,0.8968864468864469
590,1.4133487638900988e-05,1.0,0.576004683971405,0.9019884877027734
591,1.1906909094250295e-05,1.0,0.5783630609512329,0.8968864468864469
592,1.3938699339632876e-05,1.0,0.5684760808944702,0.9019884877027734
593,1.4048318917048164e-05,1.0,0.5676471590995789,0.8968864468864469
594,1.24507832879317e-05,1.0,0.5671635866165161,0.8968864468864469
595,1.1238533261348493e-05,1.0,0.5819767713546753,0.8900837257980115
596,1.0200797078141477e-05,1.0,0.5896276235580444,0.8968864468864469
597,9.748446245794185e-06,1.0,0.5978723764419556,0.8968864468864469
598,9.880430297926068e-06,1.0,0.5936112999916077,0.8968864468864469
599,9.550479262543377e-06,1.0,0.5767345428466797,0.8968864468864469
600,9.809115908865351e-06,1.0,0.5777958035469055,0.8968864468864469
601,9.629233318264596e-06,1.0,0.5796424150466919,0.8968864468864469
602,1.0162475518882275e-05,1.0,0.5854660868644714,0.8968864468864469
603,9.415301974513568e-06,1.0,0.5787119269371033,0.8968864468864469
604,9.851687536865938e-06,1.0,0.5800526738166809,0.8968864468864469
605,9.173699254461098e-06,1.0,0.5821965932846069,0.8968864468864469
606,9.780375876289327e-06,1.0,0.5842138528823853,0.8968864468864469
607,9.25565018405905e-06,1.0,0.5802383422851562,0.8968864468864469
608,9.992174454964697e-06,1.0,0.5810055732727051,0.8968864468864469
609,9.334408787253778e-06,1.0,0.5800405144691467,0.8968864468864469
610,9.917670467984863e-06,1.0,0.5765191912651062,0.8968864468864469
611,9.205624337482732e-06,1.0,0.5815691947937012,0.8968864468864469
612,9.763340131030418e-06,1.0,0.5809239149093628,0.8968864468864469
613,9.071518434211612e-06,1.0,0.5850028991699219,0.8968864468864469
614,9.430202226212714e-06,1.0,0.581252932548523,0.8968864468864469
615,8.813948625174817e-06,1.0,0.5868149399757385,0.8968864468864469
616,9.324833627033513e-06,1.0,0.5870009660720825,0.8968864468864469
617,8.719222023501061e-06,1.0,0.5848795771598816,0.8968864468864469
618,9.113032319874037e-06,1.0,0.5838114619255066,0.8968864468864469
619,8.493580935464706e-06,1.0,0.5840412974357605,0.8968864468864469
620,8.871427780832164e-06,1.0,0.5881381034851074,0.8968864468864469
621,8.345638889295515e-06,1.0,0.5823284983634949,0.8968864468864469
622,8.462719051749445e-06,1.0,0.5880484580993652,0.8968864468864469
623,8.156185685948003e-06,1.0,0.5822048783302307,0.8968864468864469
624,8.463782251055818e-06,1.0,0.5897237658500671,0.8968864468864469
625,8.269003046734724e-06,1.0,0.5827174782752991,0.8968864468864469
626,8.706452717888169e-06,1.0,0.5891275405883789,0.8968864468864469
627,8.486125807394274e-06,1.0,0.5810999274253845,0.8968864468864469
628,8.9076120275422e-06,1.0,0.5875173807144165,0.8968864468864469
629,8.272196282632649e-06,1.0,0.5799462199211121,0.8968864468864469
630,8.463781341561116e-06,1.0,0.5870124697685242,0.8968864468864469
631,7.897548130131327e-06,1.0,0.5839400291442871,0.8968864468864469
632,8.145541869453155e-06,1.0,0.5885189175605774,0.8968864468864469
633,7.864551662351005e-06,1.0,0.5842574238777161,0.8968864468864469
634,8.147667358571198e-06,1.0,0.586577832698822,0.8968864468864469
635,7.985884622030426e-06,1.0,0.58785480260849,0.8968864468864469
636,8.620234439149499e-06,1.0,0.5863855481147766,0.8968864468864469
637,8.44993246573722e-06,1.0,0.5841984152793884,0.8968864468864469
638,9.252452400687616e-06,1.0,0.5836747884750366,0.8968864468864469
639,8.233875632868148e-06,1.0,0.5793643593788147,0.8968864468864469
640,8.134898052958306e-06,1.0,0.5803580284118652,0.8968864468864469
641,7.565472060377942e-06,1.0,0.5867437720298767,0.8968864468864469
642,7.711286343692336e-06,1.0,0.591931939125061,0.8968864468864469
643,7.520767667301698e-06,1.0,0.5883851051330566,0.8968864468864469
644,7.659133189008571e-06,1.0,0.5832169651985168,0.8968864468864469
645,7.3951737249444705e-06,1.0,0.5909075736999512,0.8968864468864469
646,7.702770744799636e-06,1.0,0.5864166021347046,0.8968864468864469
647,7.500543688365724e-06,1.0,0.5919989943504333,0.8968864468864469
648,8.067839189607184e-06,1.0,0.589221179485321,0.8968864468864469
649,7.813457159500103e-06,1.0,0.5878680944442749,0.8968864468864469
650,8.374370736419223e-06,1.0,0.5863227844238281,0.8968864468864469
651,7.467548130080104e-06,1.0,0.5869786143302917,0.8968864468864469
652,7.331315373448888e-06,1.0,0.5854594111442566,0.8968864468864469
653,6.939634204172762e-06,1.0,0.5907636880874634,0.8968864468864469
654,7.004558028711472e-06,1.0,0.5906651616096497,0.8968864468864469
655,6.869385288155172e-06,1.0,0.5921935439109802,0.8968864468864469
656,6.983271305216476e-06,1.0,0.5867981910705566,0.8968864468864469
657,6.818296242272481e-06,1.0,0.5951570868492126,0.8968864468864469
658,7.0354240051528905e-06,1.0,0.5887627601623535,0.8968864468864469
659,6.911958280397812e-06,1.0,0.5928090810775757,0.8968864468864469
660,7.321732937271008e-06,1.0,0.5916232466697693,0.8968864468864469
661,7.343015568039846e-06,1.0,0.593019962310791,0.8968864468864469
662,8.059324500209186e-06,1.0,0.5908504128456116,0.8968864468864469
663,7.339822786889272e-06,1.0,0.585324764251709,0.8968864468864469
664,7.121637736418052e-06,1.0,0.5878690481185913,0.8968864468864469
665,6.607554951187922e-06,1.0,0.5922102928161621,0.8968864468864469
666,6.675673375866609e-06,1.0,0.5968708992004395,0.8968864468864469
667,6.510697858175263e-06,1.0,0.5916756391525269,0.8968864468864469
668,6.651192961726338e-06,1.0,0.5896369218826294,0.8968864468864469
669,6.484089226432843e-06,1.0,0.5952317118644714,0.8968864468864469
670,6.718245913361898e-06,1.0,0.5913025736808777,0.8968864468864469
671,6.5798790274129715e-06,1.0,0.5942683815956116,0.8968864468864469
672,7.067350907163927e-06,1.0,0.5922142863273621,0.8968864468864469
673,7.117371751519386e-06,1.0,0.5946439504623413,0.8968864468864469
674,8.043354682740755e-06,1.0,0.591516375541687,0.8968864468864469
675,7.205712790891994e-06,1.0,0.5853896737098694,0.8968864468864469
676,6.850226327514974e-06,1.0,0.5892482399940491,0.8968864468864469
677,6.3733969000168145e-06,1.0,0.601321280002594,0.8968864468864469
678,6.666091849183431e-06,1.0,0.5999358296394348,0.8968864468864469
679,6.530919108627131e-06,1.0,0.5936660170555115,0.8968864468864469
680,6.807650152040878e-06,1.0,0.5892513990402222,0.8968864468864469
681,6.557526830874849e-06,1.0,0.5986520051956177,0.8968864468864469
682,7.040740911179455e-06,1.0,0.5936861038208008,0.8968864468864469
683,6.7203695834905375e-06,1.0,0.5920581221580505,0.8968864468864469
684,7.118436315067811e-06,1.0,0.5922438502311707,0.8968864468864469
685,6.694825970043894e-06,1.0,0.5958501100540161,0.8968864468864469
686,7.073734195728321e-06,1.0,0.5909003019332886,0.8968864468864469
687,6.913017841725377e-06,1.0,0.5977662205696106,0.8968864468864469
688,7.126950094971107e-06,1.0,0.5901002287864685,0.8968864468864469
689,6.963041414564941e-06,1.0,0.6047601103782654,0.8968864468864469
690,7.313211426662747e-06,1.0,0.5861188769340515,0.8968864468864469
691,7.1216304604604375e-06,1.0,0.6124434471130371,0.8968864468864469
692,8.63406512507936e-06,1.0,0.5933844447135925,0.9053898482469911
693,7.124828243831871e-06,1.0,0.5735601782798767,0.8900837257980115
694,6.385104825312737e-06,1.0,0.6099881529808044,0.8968864468864469
695,6.264831426960882e-06,1.0,0.6068391799926758,0.8968864468864469
696,6.050897809473099e-06,1.0,0.6011852622032166,0.8968864468864469
697,5.889115527679678e-06,1.0,0.5871112942695618,0.8968864468864469
698,5.635799880110426e-06,1.0,0.6071462631225586,0.8968864468864469
699,5.703917395294411e-06,1.0,0.5887896418571472,0.8968864468864469
700,5.637928552459925e-06,1.0,0.5953572392463684,0.8968864468864469
701,5.571937890636036e-06,1.0,0.5885235071182251,0.8968864468864469
702,5.574067017732887e-06,1.0,0.6021013855934143,0.8968864468864469
703,5.530427188205067e-06,1.0,0.5903328061103821,0.8968864468864469
704,5.586839051829884e-06,1.0,0.5964211821556091,0.8968864468864469
705,5.561293164646486e-06,1.0,0.5930716395378113,0.8968864468864469
706,5.817802048113663e-06,1.0,0.599355161190033,0.8968864468864469
707,5.849730769114103e-06,1.0,0.5951389670372009,0.8968864468864469
708,6.2850517679180484e-06,1.0,0.5985810160636902,0.8968864468864469
709,6.008317086525494e-06,1.0,0.5920445322990417,0.8968864468864469
710,6.1424298110068776e-06,1.0,0.5958316922187805,0.8968864468864469
711,5.53361951460829e-06,1.0,0.5942232012748718,0.8968864468864469
712,5.5123337006079964e-06,1.0,0.5987529754638672,0.8968864468864469
713,5.3026551540824585e-06,1.0,0.5946723222732544,0.8968864468864469
714,5.417604825197486e-06,1.0,0.6002338528633118,0.8968864468864469
715,5.333520675776526e-06,1.0,0.5997611284255981,0.8968864468864469
716,5.5634213822486345e-06,1.0,0.5957421660423279,0.8968864468864469
717,5.4612419262412e-06,1.0,0.6004394888877869,0.8968864468864469
718,5.892304216104094e-06,1.0,0.5995424389839172,0.8968864468864469
719,5.78799608774716e-06,1.0,0.5994521379470825,0.8968864468864469
720,6.311658125923714e-06,1.0,0.5980459451675415,0.8968864468864469
721,5.6730468713794835e-06,1.0,0.595979630947113,0.8968864468864469
722,5.569807854044484e-06,1.0,0.5946611166000366,0.8968864468864469
723,5.200476152822375e-06,1.0,0.6044637560844421,0.8968864468864469
724,5.412282462202711e-06,1.0,0.6039142608642578,0.8968864468864469
725,5.264336778054712e-06,1.0,0.6012334823608398,0.8968864468864469
726,5.462306489789626e-06,1.0,0.5961077809333801,0.8968864468864469
727,5.307975243340479e-06,1.0,0.6043989062309265,0.8968864468864469
728,5.511266408575466e-06,1.0,0.5960649847984314,0.8968864468864469
729,5.398444955062587e-06,1.0,0.6072578430175781,0.8968864468864469
730,5.77203172724694e-06,1.0,0.5980967283248901,0.8968864468864469
731,5.676240107277408e-06,1.0,0.6106196641921997,0.8968864468864469
732,6.16264787822729e-06,1.0,0.594380795955658,0.8968864468864469
733,5.889110070711467e-06,1.0,0.6149740219116211,0.8968864468864469
734,6.629898507526377e-06,1.0,0.5881773233413696,0.8968864468864469
735,5.731586952606449e-06,1.0,0.6025129556655884,0.8968864468864469
736,6.162648332974641e-06,1.0,0.5996298789978027,0.9053898482469911
737,5.4740144150855485e-06,1.0,0.6011462807655334,0.8968864468864469
738,6.1360415202216245e-06,1.0,0.5898380875587463,0.8968864468864469
739,5.948713805992156e-06,1.0,0.5894725918769836,0.8900837257980115
740,5.221756964601809e-06,1.0,0.5998644828796387,0.8968864468864469
741,5.5400023484253325e-06,1.0,0.6057348847389221,0.8968864468864469
742,5.351613253878895e-06,1.0,0.5915645956993103,0.8968864468864469
743,5.57512566956575e-06,1.0,0.6050413846969604,0.8968864468864469
744,5.484652319864836e-06,1.0,0.5821928977966309,0.8968864468864469
745,6.041310825821711e-06,1.0,0.5990036129951477,0.8968864468864469
746,5.927417987550143e-06,1.0,0.5871497392654419,0.8968864468864469
747,6.7906107688031625e-06,1.0,0.6030219793319702,0.8968864468864469
748,6.858727374492446e-06,1.0,0.5826449394226074,0.8968864468864469
749,7.38557037038845e-06,1.0,0.5833126306533813,0.8968864468864469
750,6.514948381663999e-06,1.0,0.5887995958328247,0.8968864468864469
751,6.2595017880084924e-06,1.0,0.6142182350158691,0.9053898482469911
752,6.0445081544457935e-06,1.0,0.5924280285835266,0.9019884877027734
753,5.42398856850923e-06,1.0,0.6011812090873718,0.8968864468864469
754,5.2260211305110715e-06,1.0,0.6096981763839722,0.8968864468864469
755,4.9194859457202256e-06,1.0,0.6065932512283325,0.8968864468864469
756,5.01102113048546e-06,1.0,0.6008087396621704,0.8968864468864469
757,4.698099473898765e-06,1.0,0.6086887121200562,0.8968864468864469
758,4.822629307454918e-06,1.0,0.5995451211929321,0.8968864468864469
759,4.656589680962497e-06,1.0,0.611133873462677,0.8968864468864469
760,5.070624411018798e-06,1.0,0.5961552858352661,0.8968864468864469
761,4.804534000868443e-06,1.0,0.6013721823692322,0.8968864468864469
762,4.868396445090184e-06,1.0,0.6011945605278015,0.8968864468864469
763,4.71725707029691e-06,1.0,0.6097545623779297,0.8968864468864469
764,5.098297606309643e-06,1.0,0.6004632711410522,0.8968864468864469
765,4.797082965524169e-06,1.0,0.5979681611061096,0.8968864468864469
766,4.6044360715313815e-06,1.0,0.6063066720962524,0.8968864468864469
767,4.537380846159067e-06,1.0,0.6118834614753723,0.8968864468864469
768,4.7704766075185034e-06,1.0,0.5990238785743713,0.8968864468864469
769,4.587404873745982e-06,1.0,0.6056750416755676,0.8968864468864469
770,4.698099473898765e-06,1.0,0.6016286611557007,0.8968864468864469
771,4.553345661406638e-06,1.0,0.6082077622413635,0.8968864468864469
772,4.887554950983031e-06,1.0,0.6017234921455383,0.8968864468864469
773,4.579954293149058e-06,1.0,0.6007048487663269,0.8968864468864469
774,4.489485036174301e-06,1.0,0.6065597534179688,0.8968864468864469
775,4.367083420220297e-06,1.0,0.6090444922447205,0.8968864468864469
776,4.498000635067001e-06,1.0,0.6034026741981506,0.8968864468864469
777,4.318123046687106e-06,1.0,0.608279287815094,0.8968864468864469
778,4.450103915587533e-06,1.0,0.6017580628395081,0.8968864468864469
779,4.352181804279098e-06,1.0,0.6079521179199219,0.8968864468864469
780,4.5192869038146455e-06,1.0,0.6049924492835999,0.8968864468864469
781,4.301093667891109e-06,1.0,0.6125440001487732,0.8968864468864469
782,4.53312441095477e-06,1.0,0.6026589274406433,0.8968864468864469
783,4.370275291876169e-06,1.0,0.6042018532752991,0.8968864468864469
784,4.373469892016146e-06,1.0,0.6064295768737793,0.8968864468864469
785,4.15314752899576e-06,1.0,0.6169319748878479,0.8968864468864469
786,4.3990153244521935e-06,1.0,0.601829469203949,0.8968864468864469
787,4.295770395401632e-06,1.0,0.6046808958053589,0.8968864468864469
788,4.300029104342684e-06,1.0,0.6053350567817688,0.8968864468864469
789,4.0307463677891064e-06,1.0,0.6181556582450867,0.8968864468864469
790,4.326638645579806e-06,1.0,0.6019867062568665,0.8968864468864469
791,4.190399067738326e-06,1.0,0.6046538352966309,0.8968864468864469
792,4.209558937873226e-06,1.0,0.6065378785133362,0.8968864468864469
793,3.983914666605415e-06,1.0,0.6196298003196716,0.8968864468864469
794,4.267034000804415e-06,1.0,0.603460967540741,0.8968864468864469
795,4.1148300624627154e-06,1.0,0.6055176854133606,0.8968864468864469
796,4.118023753107991e-06,1.0,0.6074451208114624,0.8968864468864469
797,3.916859895980451e-06,1.0,0.6194955110549927,0.8968864468864469
798,4.192529559077229e-06,1.0,0.6043963432312012,0.8968864468864469
799,4.0456461647409014e-06,1.0,0.6060590744018555,0.8968864468864469
800,4.044582510687178e-06,1.0,0.607431948184967,0.8968864468864469
801,3.86577039535041e-06,1.0,0.6187440752983093,0.8968864468864469
802,4.112702299607918e-06,1.0,0.6052916646003723,0.8968864468864469
803,3.992428446508711e-06,1.0,0.6070259809494019,0.8968864468864469
804,3.9860428842075635e-06,1.0,0.6071906685829163,0.8968864468864469
805,3.7955228435748722e-06,1.0,0.6189185976982117,0.8968864468864469
806,4.054162673128303e-06,1.0,0.6055429577827454,0.8968864468864469
807,3.9370816011796705e-06,1.0,0.6075825095176697,0.8968864468864469
808,3.9136666600825265e-06,1.0,0.6083475947380066,0.8968864468864469
809,3.7199529288045596e-06,1.0,0.6207185387611389,0.8968864468864469
810,3.970078068959992e-06,1.0,0.60633385181427,0.8968864468864469
811,3.854061560559785e-06,1.0,0.6087952256202698,0.8968864468864469
812,3.835968072962714e-06,1.0,0.6097410917282104,0.8968864468864469
813,3.6518345041258726e-06,1.0,0.6215551495552063,0.8968864468864469
814,3.90302375308238e-06,1.0,0.6069678664207458,0.8968864468864469
815,3.7721060834883247e-06,1.0,0.6085475087165833,0.8968864468864469
816,3.77636411030835e-06,1.0,0.6090520024299622,0.8968864468864469
817,3.5901011870009825e-06,1.0,0.621524453163147,0.8968864468864469
818,3.837033546005841e-06,1.0,0.6085518002510071,0.8968864468864469
819,3.711437557285535e-06,1.0,0.6090030670166016,0.8968864468864469
820,3.7061165585328126e-06,1.0,0.6105954051017761,0.8968864468864469
821,3.529432660798193e-06,1.0,0.6220741271972656,0.8968864468864469
822,3.7710431115556275e-06,1.0,0.6081739664077759,0.8968864468864469
823,3.6592839478544192e-06,1.0,0.6078276038169861,0.8968864468864469
824,3.6348042158351745e-06,1.0,0.6107984781265259,0.8968864468864469
825,3.475150606391253e-06,1.0,0.6217495799064636,0.8968864468864469
826,3.707181122081238e-06,1.0,0.6078146696090698,0.8968864468864469
827,3.5922296319768066e-06,1.0,0.608538806438446,0.8968864468864469
828,3.5560417472879635e-06,1.0,0.610866904258728,0.8968864468864469
829,3.422996542212786e-06,1.0,0.6220773458480835,0.8968864468864469
830,3.6422554785531247e-06,1.0,0.6080495119094849,0.8968864468864469
831,3.5507193842931883e-06,1.0,0.6088820099830627,0.8968864468864469
832,3.4975018934346735e-06,1.0,0.6110737919807434,0.8968864468864469
833,3.3633930343057727e-06,1.0,0.6224722862243652,0.8968864468864469
834,3.5698790270544123e-06,1.0,0.6083260178565979,0.8968864468864469
835,3.4762142604449764e-06,1.0,0.608481228351593,0.8968864468864469
836,3.416610297790612e-06,1.0,0.6109383702278137,0.8968864468864469
837,3.295273700132384e-06,1.0,0.6221268773078918,0.8968864468864469
838,3.4826014143618522e-06,1.0,0.6087924838066101,0.8968864468864469
839,3.379357849553344e-06,1.0,0.6094997525215149,0.8968864468864469
840,3.337847829243401e-06,1.0,0.6130967140197754,0.8968864468864469
841,3.2197037853620714e-06,1.0,0.6238328814506531,0.8968864468864469
842,3.4134177440137137e-06,1.0,0.6099179983139038,0.8968864468864469
843,3.293144345661858e-06,1.0,0.6102496981620789,0.8968864468864469
844,3.2856939924386097e-06,1.0,0.6141262650489807,0.8968864468864469
845,3.178193537678453e-06,1.0,0.6240192651748657,0.8968864468864469
846,3.3708431601553457e-06,1.0,0.611176073551178,0.8968864468864469
847,3.2612133509246632e-06,1.0,0.6125434637069702,0.8968864468864469
848,3.2399264000559924e-06,1.0,0.6150789856910706,0.8968864468864469
849,3.117525238849339e-06,1.0,0.6252626776695251,0.8968864468864469
850,3.3154969969473314e-06,1.0,0.6125910878181458,0.8968864468864469
851,3.1941585802996997e-06,1.0,0.6135700345039368,0.8968864468864469
852,3.184579782100627e-06,1.0,0.6168816685676575,0.8968864468864469
853,3.0643072932434734e-06,1.0,0.6259064674377441,0.8968864468864469
854,3.269729404564714e-06,1.0,0.6131940484046936,0.8968864468864469
855,3.127104264422087e-06,1.0,0.6146498322486877,0.8968864468864469
856,3.1377480809169356e-06,1.0,0.6179857850074768,0.8968864468864469
857,3.022797045559855e-06,1.0,0.624620258808136,0.8968864468864469
858,3.2133177683135727e-06,1.0,0.6132883429527283,0.8968864468864469
859,3.0792077723162947e-06,1.0,0.6147428750991821,0.8968864468864469
860,3.0973023967817426e-06,1.0,0.6171311140060425,0.8968864468864469
861,3.0025742034922587e-06,1.0,0.6244595646858215,0.8968864468864469
862,3.1728720841783797e-06,1.0,0.6129533052444458,0.8968864468864469
863,3.088787025262718e-06,1.0,0.6151637434959412,0.8968864468864469
864,3.088787025262718e-06,1.0,0.6153788566589355,0.8968864468864469
865,3.0110891202639323e-06,1.0,0.6236327290534973,0.8968864468864469
866,3.2133177683135727e-06,1.0,0.6106810569763184,0.8968864468864469
867,3.1749993922858266e-06,1.0,0.6129024624824524,0.8968864468864469
868,3.146262315567583e-06,1.0,0.6138094067573547,0.8968864468864469
869,3.07495020024362e-06,1.0,0.6254227757453918,0.8968864468864469
870,3.298466481282958e-06,1.0,0.6106435060501099,0.8968864468864469
871,3.2920786452450557e-06,1.0,0.6091172099113464,0.8968864468864469
872,3.171806838508928e-06,1.0,0.6128712892532349,0.8968864468864469
873,3.031311507584178e-06,1.0,0.6277291178703308,0.8968864468864469
874,3.2250256936094956e-06,1.0,0.6127035021781921,0.8968864468864469
875,3.201608478775597e-06,1.0,0.607577919960022,0.8968864468864469
876,3.0334401799336774e-06,1.0,0.6145886182785034,0.8968864468864469
877,2.882301259887754e-06,1.0,0.6300754547119141,0.8968864468864469
878,3.016411255885032e-06,1.0,0.6169633865356445,0.8968864468864469
879,2.9440336675179424e-06,1.0,0.6116111874580383,0.8968864468864469
880,2.8705931072181556e-06,1.0,0.6151009202003479,0.8968864468864469
881,2.7556420718610752e-06,1.0,0.6228708028793335,0.8968864468864469
882,2.8120537081122166e-06,1.0,0.619175136089325,0.8968864468864469
883,2.7471271550894016e-06,1.0,0.6134568452835083,0.8968864468864469
884,2.669428795343265e-06,1.0,0.6189985871315002,0.8968864468864469
885,2.6087600417668e-06,1.0,0.6243814826011658,0.8968864468864469
886,2.6374984827270964e-06,1.0,0.6181722283363342,0.8968864468864469
887,2.57895794675278e-06,1.0,0.6169711351394653,0.8968864468864469
888,2.5725719297042815e-06,1.0,0.6179937124252319,0.8968864468864469
889,2.542770062063937e-06,1.0,0.6272388100624084,0.8968864468864469
890,2.607696160339401e-06,1.0,0.6146926879882812,0.8968864468864469
891,2.5480915155640105e-06,1.0,0.6228817701339722,0.8968864468864469
892,2.6087602691404754e-06,1.0,0.6157750487327576,0.8968864468864469
893,2.568314357631607e-06,1.0,0.6265285611152649,0.8968864468864469
894,2.687522965061362e-06,1.0,0.6148806214332581,0.8968864468864469
895,2.592794317024527e-06,1.0,0.6249304413795471,0.8968864468864469
896,2.675815039765439e-06,1.0,0.617451548576355,0.8968864468864469
897,2.587472408777103e-06,1.0,0.6267882585525513,0.8968864468864469
898,2.72583974947338e-06,1.0,0.6178750991821289,0.8968864468864469
899,2.626853756737546e-06,1.0,0.6238862872123718,0.8968864468864469
900,2.7396763471188024e-06,1.0,0.619788646697998,0.8968864468864469
901,2.6513339435041416e-06,1.0,0.6267423033714294,0.8968864468864469
902,2.8333402042335365e-06,1.0,0.619543194770813,0.8968864468864469
903,2.7694779873854714e-06,1.0,0.6199473738670349,0.8968864468864469
904,2.9216821531008463e-06,1.0,0.6223788261413574,0.8968864468864469
905,2.906780082412297e-06,1.0,0.6211125254631042,0.8968864468864469
906,3.1590345770382555e-06,1.0,0.6240759491920471,0.8968864468864469
907,3.1090082757145865e-06,1.0,0.6113842129707336,0.8968864468864469
908,2.9961863674543565e-06,1.0,0.6136597394943237,0.8968864468864469
909,3.2548246053920593e-06,1.0,0.6126775741577148,0.8968864468864469
910,3.204801714673522e-06,1.0,0.6129639744758606,0.8968864468864469
911,3.1175229651125846e-06,1.0,0.615256130695343,0.8968864468864469
912,2.9610635010612896e-06,1.0,0.6148756742477417,0.8968864468864469
913,2.8248246053408366e-06,1.0,0.6199982762336731,0.8968864468864469
914,2.528932554923813e-06,1.0,0.6267856955528259,0.8968864468864469
915,2.4778432816674467e-06,1.0,0.6299500465393066,0.8968864468864469
916,2.4331402528332546e-06,1.0,0.621455729007721,0.8968864468864469
917,2.4299472443090053e-06,1.0,0.6161104440689087,0.8968864468864469
918,2.2969018118601525e-06,1.0,0.6221882104873657,0.8968864468864469
919,2.3213822260004235e-06,1.0,0.6237804293632507,0.8968864468864469
920,2.2490055471280357e-06,1.0,0.6227921843528748,0.8968864468864469
921,2.285194113937905e-06,1.0,0.6235161423683167,0.8968864468864469
922,2.208559408245492e-06,1.0,0.6237005591392517,0.8968864468864469
923,2.282000650666305e-06,1.0,0.623124897480011,0.8968864468864469
924,2.2192032247403404e-06,1.0,0.625463604927063,0.8968864468864469
925,2.3171244265540736e-06,1.0,0.6246957778930664,0.8968864468864469
926,2.2894510038895532e-06,1.0,0.6286280751228333,0.8968864468864469
927,2.448040731906076e-06,1.0,0.6267120242118835,0.8968864468864469
928,2.4512337404303253e-06,1.0,0.6318166851997375,0.8968864468864469
929,2.700293407542631e-06,1.0,0.6310330629348755,0.8968864468864469
930,2.7300952751829755e-06,1.0,0.6359705328941345,0.8968864468864469
931,3.0323731152748223e-06,1.0,0.6332926154136658,0.8968864468864469
932,2.9493533020286122e-06,1.0,0.6276707649230957,0.8968864468864469
933,2.8588831355591537e-06,1.0,0.621271014213562,0.8968864468864469
934,2.920614861068316e-06,1.0,0.6333505511283875,0.8968864468864469
935,3.575192977223196e-06,1.0,0.6260610818862915,0.8968864468864469
936,4.029666797578102e-06,1.0,0.5897420644760132,0.9053898482469911
937,3.6262838420952903e-06,1.0,0.6025753021240234,0.8900837257980115
938,3.9477076825278345e-06,1.0,0.5986191630363464,0.8968864468864469
939,3.974325409217272e-06,1.0,0.6731883883476257,0.8968864468864469
940,3.537940528985928e-06,1.0,0.6783596277236938,0.8965153893725323
941,3.469825742286048e-06,1.0,0.6242784261703491,0.8968864468864469
942,2.906779627664946e-06,1.0,0.608284592628479,0.8968864468864469
943,2.6257896479364717e-06,1.0,0.6216707229614258,0.8968864468864469
944,2.3479915398638695e-06,1.0,0.6373611092567444,0.8968864468864469
945,2.254327000628109e-06,1.0,0.6381976008415222,0.8968864468864469
946,2.1904656932747457e-06,1.0,0.6292580366134644,0.8968864468864469
947,2.0946729364368366e-06,1.0,0.6308898329734802,0.8968864468864469
948,2.1234106952761067e-06,1.0,0.6273080110549927,0.8968864468864469
949,2.075513975796639e-06,1.0,0.6321321725845337,0.8968864468864469
950,2.097865944961086e-06,1.0,0.6297598481178284,0.8968864468864469
951,2.0276179384381976e-06,1.0,0.6338974237442017,0.8968864468864469
952,2.1021235170337604e-06,1.0,0.6271287202835083,0.8968864468864469
953,2.021231466642348e-06,1.0,0.6310820579528809,0.8968864468864469
954,2.054227024927968e-06,1.0,0.6282016038894653,0.8968864468864469
955,2.0105881048948504e-06,1.0,0.6305307149887085,0.8968864468864469
956,2.078707439068239e-06,1.0,0.627685546875,0.8968864468864469
957,2.0042018604726763e-06,1.0,0.6288682818412781,0.8968864468864469
958,2.0393258637341205e-06,1.0,0.6281229257583618,0.8968864468864469
959,1.981850118681905e-06,1.0,0.6292924880981445,0.8968864468864469
960,2.007395096370601e-06,1.0,0.6299825310707092,0.8968864468864469
961,1.9552410321921343e-06,1.0,0.6293213963508606,0.8968864468864469
962,1.959498604264809e-06,1.0,0.6295849084854126,0.8968864468864469
963,1.9126664483337663e-06,1.0,0.6292000412940979,0.8968864468864469
964,1.9179883565811906e-06,1.0,0.6303419470787048,0.8968864468864469
965,1.8775424450723222e-06,1.0,0.631196916103363,0.8968864468864469
966,1.9030873090741807e-06,1.0,0.6294600367546082,0.8968864468864469
967,1.857319489317888e-06,1.0,0.6304265856742859,0.8968864468864469
968,1.872220877885411e-06,1.0,0.6301676034927368,0.8968864468864469
969,1.8264528307554428e-06,1.0,0.6325381994247437,0.8968864468864469
970,1.841354219322966e-06,1.0,0.6305091977119446,0.8968864468864469
971,1.8062299886878463e-06,1.0,0.6344994306564331,0.8968864468864469
972,1.8392255469734664e-06,1.0,0.6301824450492859,0.8968864468864469
973,1.8051656525130966e-06,1.0,0.6355766654014587,0.8968864468864469
974,1.8360324247623794e-06,1.0,0.6301471590995789,0.8968864468864469
975,1.8019726439888473e-06,1.0,0.6358632445335388,0.8968864468864469
976,1.8360323110755417e-06,1.0,0.6303067803382874,0.8968864468864469
977,1.8009084215009352e-06,1.0,0.6370469331741333,0.8968864468864469
978,1.8626413975653122e-06,1.0,0.6287943720817566,0.8968864468864469
979,1.8083586610373459e-06,1.0,0.6359269022941589,0.8968864468864469
980,1.8583839391794754e-06,1.0,0.6297165155410767,0.8968864468864469
981,1.811551783248433e-06,1.0,0.6357208490371704,0.8968864468864469
982,1.866898855951149e-06,1.0,0.6301042437553406,0.8968864468864469
983,1.8264529444422806e-06,1.0,0.637477457523346,0.8968864468864469
984,1.9062800902247545e-06,1.0,0.6281372308731079,0.8968864468864469
985,1.8786065538733965e-06,1.0,0.6352217793464661,0.8968864468864469
986,1.972270638361806e-06,1.0,0.6295105814933777,0.8968864468864469
987,1.977592319235555e-06,1.0,0.6367778182029724,0.8968864468864469
988,2.156405344067025e-06,1.0,0.6282495260238647,0.8968864468864469
989,2.189399765484268e-06,1.0,0.6252454519271851,0.8968864468864469
990,2.18407853935787e-06,1.0,0.6354326009750366,0.8968864468864469
991,2.2500687464344082e-06,1.0,0.640167236328125,0.8968864468864469
992,2.548090833442984e-06,1.0,0.6203945875167847,0.8968864468864469
993,2.7567036795517197e-06,1.0,0.6170144081115723,0.8849816849816851
994,2.5704414383653784e-06,1.0,0.6269913911819458,0.8968864468864469
995,2.655589923961088e-06,1.0,0.6507070660591125,0.8863422291993721
996,2.743933009696775e-06,1.0,0.6096222996711731,0.8968864468864469
997,2.7875692012457876e-06,1.0,0.631951630115509,0.9053898482469911
998,2.8514334644569317e-06,1.0,0.6332204937934875,0.8968864468864469
999,2.492743305992917e-06,1.0,0.6156888008117676,0.8968864468864469
