,loss,recall,val_loss,val_recall
0,1.0105780363082886,0.5473684210526316,86.83824157714844,0.18
1,145.26055908203125,0.155,17.88786506652832,0.32
2,43.01531219482422,0.345,8.497200965881348,0.18
3,4.536181926727295,0.6761363636363636,10.794029235839844,0.32
4,22.707855224609375,0.345,8.558680534362793,0.32
5,8.106582641601562,0.8670212765957447,1.1787433624267578,0.7337662337662337
6,6.7155680656433105,0.7767857142857143,6.012225151062012,0.18
7,5.769272804260254,0.7214285714285714,1.2846767902374268,0.7890365448504983
8,2.6699843406677246,0.9259259259259259,3.9105424880981445,0.8265306122448979
9,6.940084457397461,0.8791208791208791,3.482334852218628,0.768939393939394
10,3.354438304901123,0.9423076923076923,2.6385204792022705,0.7402376910016979
11,1.6438024044036865,0.9298737727910238,5.164873123168945,0.8011363636363636
12,1.6530202627182007,0.8974688974688975,12.452011108398438,0.6956521739130435
13,0.7264373898506165,0.9088541666666667,23.561092376708984,0.18
14,0.8652902245521545,0.9384191176470589,29.39434051513672,0.18
15,0.2965300679206848,0.9791666666666667,33.72994613647461,0.18
16,0.20122979581356049,0.9859154929577465,36.590545654296875,0.18
17,0.10480844229459763,0.9766245909303413,38.92629623413086,0.18
18,0.006958889774978161,1.0,39.94622039794922,0.18
19,0.0021292746532708406,1.0,39.94590377807617,0.18
20,0.016139855608344078,0.984375,38.98476028442383,0.18
21,0.018245691433548927,0.9696969696969697,37.119266510009766,0.18
22,0.016642842441797256,0.9928571428571429,35.667518615722656,0.18
23,0.00023266156495083123,1.0,33.326534271240234,0.18
24,5.37248415639624e-05,1.0,30.24834442138672,0.6836734693877551
25,3.118963650194928e-05,1.0,26.662710189819336,0.6836734693877551
26,0.00018277745402883738,1.0,22.78289031982422,0.6855670103092784
27,0.0018178189639002085,1.0,19.098520278930664,0.7045454545454546
28,0.0004107257700525224,1.0,16.08251190185547,0.7222222222222222
29,0.0001386982767144218,1.0,13.57569408416748,0.74
30,0.00020203310123179108,1.0,11.442291259765625,0.75
31,0.0003757269587367773,1.0,9.734305381774902,0.7727272727272727
32,0.000596687023062259,1.0,8.434637069702148,0.7950819672131147
33,0.0006833515944890678,1.0,7.340251445770264,0.8050847457627119
34,0.0005916102672927082,1.0,6.356864929199219,0.8157894736842105
35,0.0004555372870527208,1.0,5.524405479431152,0.8272727272727273
36,0.00037535891169682145,1.0,4.813677787780762,0.8529411764705883
37,0.00038059023790992796,1.0,4.3996429443359375,0.8510466988727858
38,0.00047906278632581234,1.0,4.1633124351501465,0.8393939393939394
39,0.0005187930655665696,1.0,3.9567177295684814,0.8393939393939394
40,0.00041528180008754134,1.0,3.7864294052124023,0.8482142857142857
41,0.0003322151897009462,1.0,3.6506242752075195,0.8669950738916257
42,0.00028091095737181604,1.0,3.5414671897888184,0.8770152955766846
43,0.00023997439711820334,1.0,3.4408516883850098,0.8770152955766846
44,0.00020425296679604799,1.0,3.355154275894165,0.8875
45,0.0001739795843604952,1.0,3.282193899154663,0.8875
46,0.00014947557065170258,1.0,3.211578369140625,0.8875
47,0.00013032658898737282,1.0,3.1458709239959717,0.8875
48,0.00011556753452168778,1.0,3.085192918777466,0.8875
49,0.00010422274499433115,1.0,3.029374599456787,0.8875
50,9.537010919302702e-05,1.0,2.97831654548645,0.8675721561969439
51,8.826079283608124e-05,1.0,2.93192982673645,0.8675721561969439
52,8.238341251853853e-05,1.0,2.8916850090026855,0.8792363792363792
53,7.742037269053981e-05,1.0,2.860809326171875,0.8604395604395605
54,7.304972677957267e-05,1.0,2.8397109508514404,0.8511586452762923
55,6.908967770868912e-05,1.0,2.8249597549438477,0.8645409317051108
56,6.54260438750498e-05,1.0,2.816607713699341,0.8645409317051108
57,6.200648931553587e-05,1.0,2.815460681915283,0.8645409317051108
58,5.8775021898327395e-05,1.0,2.8224151134490967,0.8936418887330528
59,5.570542998611927e-05,1.0,2.835705518722534,0.8857142857142857
60,5.2801256970269606e-05,1.0,2.851428747177124,0.8857142857142857
61,5.006844367017038e-05,1.0,2.8676981925964355,0.8857142857142857
62,4.749865547637455e-05,1.0,2.883185863494873,0.8857142857142857
63,4.509310019784607e-05,1.0,2.8972864151000977,0.8857142857142857
64,4.284700844436884e-05,1.0,2.909782648086548,0.8857142857142857
65,4.076397090102546e-05,1.0,2.9209673404693604,0.8857142857142857
66,3.88356602343265e-05,1.0,2.931002140045166,0.8857142857142857
67,3.704900518641807e-05,1.0,2.9400410652160645,0.8857142857142857
68,3.539925455697812e-05,1.0,2.948193311691284,0.8857142857142857
69,3.3872125641210005e-05,1.0,2.955413818359375,0.8857142857142857
70,3.245573316235095e-05,1.0,2.9617607593536377,0.8857142857142857
71,3.114530409220606e-05,1.0,2.967411994934082,0.8857142857142857
72,2.9931330573162995e-05,1.0,2.972449541091919,0.8857142857142857
73,2.8801907319575548e-05,1.0,2.976844072341919,0.8857142857142857
74,2.7760614102589898e-05,1.0,2.9807546138763428,0.8857142857142857
75,2.6787203751155175e-05,1.0,2.9841537475585938,0.8857142857142857
76,2.588287679827772e-05,1.0,2.9870903491973877,0.8857142857142857
77,2.5038101739482954e-05,1.0,2.9896538257598877,0.8857142857142857
78,2.4246926841442473e-05,1.0,2.9919610023498535,0.8778533268576979
79,2.351054899918381e-05,1.0,2.993985414505005,0.8778533268576979
80,2.281824708916247e-05,1.0,2.995758056640625,0.8778533268576979
81,2.2168829673319124e-05,1.0,2.9973158836364746,0.8778533268576979
82,2.1556341380346566e-05,1.0,2.9986748695373535,0.8778533268576979
83,2.0984360162401572e-05,1.0,2.999861478805542,0.8778533268576979
84,2.044335451500956e-05,1.0,3.0008907318115234,0.8778533268576979
85,1.9928556866943836e-05,1.0,3.00176739692688,0.8778533268576979
86,1.944592804647982e-05,1.0,3.0025084018707275,0.8778533268576979
87,1.898831942526158e-05,1.0,3.00313663482666,0.8778533268576979
88,1.855215487012174e-05,1.0,3.0036559104919434,0.8778533268576979
89,1.8143397028325126e-05,1.0,3.004075288772583,0.8778533268576979
90,1.7752512576407753e-05,1.0,3.0044100284576416,0.8778533268576979
91,1.7383072190568782e-05,1.0,3.0046799182891846,0.8778533268576979
92,1.7029125956469215e-05,1.0,3.0048887729644775,0.8778533268576979
93,1.669543416937813e-05,1.0,3.005047559738159,0.8778533268576979
94,1.6373656762880273e-05,1.0,3.0051681995391846,0.8778533268576979
95,1.6067371689132415e-05,1.0,3.0052478313446045,0.8778533268576979
96,1.5776577129145153e-05,1.0,3.0052947998046875,0.8778533268576979
97,1.5498890206799842e-05,1.0,3.005314588546753,0.8778533268576979
98,1.5230737517413218e-05,1.0,3.0053062438964844,0.8778533268576979
99,1.497211451351177e-05,1.0,3.0052788257598877,0.8778533268576979
100,1.4725411347171757e-05,1.0,3.005235433578491,0.8778533268576979
101,1.448943203286035e-05,1.0,3.0051772594451904,0.8778533268576979
102,1.4259411727834959e-05,1.0,3.0051050186157227,0.8778533268576979
103,1.4042499060451519e-05,1.0,3.005021572113037,0.8778533268576979
104,1.3831545402354095e-05,1.0,3.0049240589141846,0.8778533268576979
105,1.3625357496493962e-05,1.0,3.0048205852508545,0.8778533268576979
106,1.3427513295027893e-05,1.0,3.0047054290771484,0.8778533268576979
107,1.3238010069471784e-05,1.0,3.004586696624756,0.8778533268576979
108,1.3055656381766312e-05,1.0,3.0044634342193604,0.8778533268576979
109,1.2876879736722913e-05,1.0,3.004333972930908,0.8778533268576979
110,1.27076382341329e-05,1.0,3.0042033195495605,0.8778533268576979
111,1.254077778867213e-05,1.0,3.0040695667266846,0.8778533268576979
112,1.2379875443002675e-05,1.0,3.0039355754852295,0.8778533268576979
113,1.2223741578054614e-05,1.0,3.003797769546509,0.8778533268576979
114,1.2069990589225199e-05,1.0,3.003657817840576,0.8778533268576979
115,1.1924581485800445e-05,1.0,3.003520965576172,0.8778533268576979
116,1.1777982763305772e-05,1.0,3.0033812522888184,0.8778533268576979
117,1.1638532669167034e-05,1.0,3.003235340118408,0.8778533268576979
118,1.1502658708195668e-05,1.0,3.003094434738159,0.8778533268576979
119,1.1370360880391672e-05,1.0,3.00295090675354,0.8778533268576979
120,1.1241638276260346e-05,1.0,3.0028069019317627,0.8778533268576979
121,1.1116489076812286e-05,1.0,3.0026652812957764,0.8778533268576979
122,1.099134169635363e-05,1.0,3.0025219917297363,0.8778533268576979
123,1.0870960068132263e-05,1.0,3.00237774848938,0.8778533268576979
124,1.0752964044513647e-05,1.0,3.0022366046905518,0.8778533268576979
125,1.063973377313232e-05,1.0,3.002094030380249,0.8778533268576979
126,1.0526504411245696e-05,1.0,3.001953363418579,0.8778533268576979
127,1.041684936353704e-05,1.0,3.001812696456909,0.8778533268576979
128,1.0311962796549778e-05,1.0,3.001673460006714,0.8778533268576979
129,1.0207076229562517e-05,1.0,3.001535654067993,0.8778533268576979
130,1.0102188753080554e-05,1.0,3.001396417617798,0.8778533268576979
131,1.000087650027126e-05,1.0,3.0012590885162354,0.8778533268576979
132,9.901948033075314e-06,1.0,3.00112247467041,0.8778533268576979
133,9.805404260987416e-06,1.0,3.0009844303131104,0.8778533268576979
134,9.71005192695884e-06,1.0,3.000847101211548,0.8778533268576979
135,9.615890121494886e-06,1.0,3.0007128715515137,0.8778533268576979
136,9.525305358693004e-06,1.0,3.000577926635742,0.8778533268576979
137,9.43471968639642e-06,1.0,3.000446081161499,0.8778533268576979
138,9.345325452159159e-06,1.0,3.000311851501465,0.8778533268576979
139,9.260699698643293e-06,1.0,3.00018310546875,0.8778533268576979
140,9.17726538318675e-06,1.0,3.000051736831665,0.8778533268576979
141,9.095023415284231e-06,1.0,2.999924659729004,0.8778533268576979
142,9.013971975946333e-06,1.0,2.999797821044922,0.8778533268576979
143,8.931729098549113e-06,1.0,2.9996745586395264,0.8778533268576979
144,8.856638487486634e-06,1.0,2.999552011489868,0.8778533268576979
145,8.779163181316108e-06,1.0,2.9994325637817383,0.8778533268576979
146,8.700495527591556e-06,1.0,2.999316453933716,0.8778533268576979
147,8.625404007034376e-06,1.0,2.9992034435272217,0.8778533268576979
148,8.552696272090543e-06,1.0,2.9990925788879395,0.8778533268576979
149,8.482373232254758e-06,1.0,2.9989848136901855,0.8778533268576979
150,8.410856935370248e-06,1.0,2.998879909515381,0.8778533268576979
151,8.34053207654506e-06,1.0,2.9987783432006836,0.8778533268576979
152,8.270208127214573e-06,1.0,2.998677968978882,0.8778533268576979
153,8.201074706448708e-06,1.0,2.9985804557800293,0.8778533268576979
154,8.134326890285593e-06,1.0,2.9984850883483887,0.8778533268576979
155,8.068769602687098e-06,1.0,2.9983911514282227,0.8778533268576979
156,8.002020877029281e-06,1.0,2.998300075531006,0.8778533268576979
157,7.941232070152182e-06,1.0,2.9982094764709473,0.8778533268576979
158,7.87686622061301e-06,1.0,2.9981188774108887,0.8778533268576979
159,7.811309842509218e-06,1.0,2.998029947280884,0.8778533268576979
160,7.752903911750764e-06,1.0,2.997941493988037,0.8778533268576979
161,7.692115104873665e-06,1.0,2.997853994369507,0.8778533268576979
162,7.63370917411521e-06,1.0,2.9977681636810303,0.8778533268576979
163,7.574112260044785e-06,1.0,2.9976823329925537,0.8778533268576979
164,7.516898222093005e-06,1.0,2.997598886489868,0.8778533268576979
165,7.460876076947898e-06,1.0,2.997514486312866,0.8778533268576979
166,7.404854841297492e-06,1.0,2.9974358081817627,0.8778533268576979
167,7.347640348598361e-06,1.0,2.997354745864868,0.8778533268576979
168,7.2940028985613026e-06,1.0,2.9972753524780273,0.8778533268576979
169,7.239172646222869e-06,1.0,2.9971983432769775,0.8778533268576979
170,7.183150501077762e-06,1.0,2.9971203804016113,0.8778533268576979
171,7.133087819966022e-06,1.0,2.997044086456299,0.8778533268576979
172,7.0818337007949594e-06,1.0,2.99696946144104,0.8778533268576979
173,7.0293876888172235e-06,1.0,2.9968957901000977,0.8778533268576979
174,6.980517355259508e-06,1.0,2.9968223571777344,0.8778533268576979
175,6.930454219400417e-06,1.0,2.9967498779296875,0.8778533268576979
176,6.8792001002293546e-06,1.0,2.9966766834259033,0.8778533268576979
177,6.829137419117615e-06,1.0,2.99660587310791,0.8778533268576979
178,6.786226549593266e-06,1.0,2.996537446975708,0.8778533268576979
179,6.736163868481526e-06,1.0,2.9964678287506104,0.8778533268576979
180,6.690869213343831e-06,1.0,2.996399402618408,0.8778533268576979
181,6.643190317845438e-06,1.0,2.9963324069976807,0.8778533268576979
182,6.597895207960391e-06,1.0,2.996264696121216,0.8778533268576979
183,6.556176685990067e-06,1.0,2.996197462081909,0.8778533268576979
184,6.5096896832983475e-06,1.0,2.9961297512054443,0.8778533268576979
185,6.465586466219975e-06,1.0,2.9960649013519287,0.8778533268576979
186,6.422675141948275e-06,1.0,2.9960005283355713,0.8778533268576979
187,6.3821485127846245e-06,1.0,2.9959371089935303,0.8778533268576979
188,6.336852948152227e-06,1.0,2.995875120162964,0.8778533268576979
189,6.295133971434552e-06,1.0,2.995811700820923,0.8778533268576979
190,6.253414539969526e-06,1.0,2.99575138092041,0.8778533268576979
191,6.214079803612549e-06,1.0,2.99569034576416,0.8778533268576979
192,6.173552719701547e-06,1.0,2.99562668800354,0.8778533268576979
193,6.131833288236521e-06,1.0,2.9955646991729736,0.8778533268576979
194,6.094882337492891e-06,1.0,2.99550724029541,0.8778533268576979
195,6.0555466916412115e-06,1.0,2.995450973510742,0.8778533268576979
196,6.017402938596206e-06,1.0,2.995396137237549,0.8778533268576979
197,5.979259640298551e-06,1.0,2.9953417778015137,0.8778533268576979
198,5.939923994446872e-06,1.0,2.995290517807007,0.8778533268576979
199,5.9065487221232615e-06,1.0,2.995239734649658,0.8778533268576979
200,5.868405423825607e-06,1.0,2.9951915740966797,0.8778533268576979
201,5.830262125527952e-06,1.0,2.995143413543701,0.8778533268576979
202,5.795694050902966e-06,1.0,2.995098114013672,0.8778533268576979
203,5.7599340834713075e-06,1.0,2.99505615234375,0.8778533268576979
204,5.725366918341024e-06,1.0,2.995013952255249,0.8778533268576979
205,5.690799298463389e-06,1.0,2.994971752166748,0.8778533268576979
206,5.656231678585755e-06,1.0,2.9949285984039307,0.8778533268576979
207,5.6228559515147936e-06,1.0,2.9948856830596924,0.8778533268576979
208,5.589480224443832e-06,1.0,2.994844913482666,0.8778533268576979
209,5.558488737733569e-06,1.0,2.994802236557007,0.8778533268576979
210,5.5239206631085835e-06,1.0,2.994760751724243,0.8778533268576979
211,5.4905444812902715e-06,1.0,2.9947197437286377,0.8778533268576979
212,5.460745796881383e-06,1.0,2.9946794509887695,0.8778533268576979
213,5.426177267509047e-06,1.0,2.994640827178955,0.8778533268576979
214,5.39756956641213e-06,1.0,2.994600772857666,0.8778533268576979
215,5.365385732147843e-06,1.0,2.9945666790008545,0.8778533268576979
216,5.335585683496902e-06,1.0,2.9945297241210938,0.8778533268576979
217,5.3022104111732915e-06,1.0,2.9944963455200195,0.8778533268576979
218,5.271218014968326e-06,1.0,2.994464159011841,0.8778533268576979
219,5.24261031387141e-06,1.0,2.9944331645965576,0.8778533268576979
220,5.21638639838784e-06,1.0,2.9944043159484863,0.8778533268576979
221,5.184202564123552e-06,1.0,2.994371175765991,0.8778533268576979
222,5.155594408279285e-06,1.0,2.9943389892578125,0.8778533268576979
223,5.126986707182368e-06,1.0,2.994307279586792,0.8778533268576979
224,5.097186658531427e-06,1.0,2.994274139404297,0.8778533268576979
225,5.06857850268716e-06,1.0,2.9942400455474854,0.8778533268576979
226,5.043546480010264e-06,1.0,2.9942092895507812,0.8778533268576979
227,5.0161306717200205e-06,1.0,2.99417781829834,0.8778533268576979
228,4.986330168321729e-06,1.0,2.9941484928131104,0.8778533268576979
229,4.957722012477461e-06,1.0,2.99412202835083,0.8778533268576979
230,4.93388279210194e-06,1.0,2.9940922260284424,0.8778533268576979
231,4.908851224172395e-06,1.0,2.9940643310546875,0.8778533268576979
232,4.880242613580776e-06,1.0,2.9940361976623535,0.8778533268576979
233,4.854018243349856e-06,1.0,2.994009256362915,0.8778533268576979
234,4.8289862206729595e-06,1.0,2.99398136138916,0.8778533268576979
235,4.80276230518939e-06,1.0,2.9939541816711426,0.8778533268576979
236,4.77653838970582e-06,1.0,2.9939286708831787,0.8778533268576979
237,4.752697805088246e-06,1.0,2.993903636932373,0.8778533268576979
238,4.726473434857326e-06,1.0,2.993875741958618,0.8778533268576979
239,4.7026342144818045e-06,1.0,2.9938488006591797,0.8778533268576979
240,4.677601737057557e-06,1.0,2.9938228130340576,0.8778533268576979
241,4.650185474019963e-06,1.0,2.993797540664673,0.8778533268576979
242,4.628729129763087e-06,1.0,2.993772506713867,0.8778533268576979
243,4.606081347446889e-06,1.0,2.9937498569488525,0.8778533268576979
244,4.5810488700226415e-06,1.0,2.9937243461608887,0.8778533268576979
245,4.557208740152419e-06,1.0,2.9937024116516113,0.8778533268576979
246,4.534560503088869e-06,1.0,2.9936766624450684,0.8778533268576979
247,4.510720373218646e-06,1.0,2.9936516284942627,0.8778533268576979
248,4.489264483709121e-06,1.0,2.993626832962036,0.8778533268576979
249,4.466615791898221e-06,1.0,2.9936039447784424,0.8778533268576979
250,4.440391876414651e-06,1.0,2.993579149246216,0.8778533268576979
251,4.421319772518473e-06,1.0,2.9935553073883057,0.8778533268576979
252,4.397479187900899e-06,1.0,2.9935314655303955,0.8778533268576979
253,4.377215645945398e-06,1.0,2.9935085773468018,0.8778533268576979
254,4.354566954134498e-06,1.0,2.9934890270233154,0.8778533268576979
255,4.333111064624973e-06,1.0,2.9934661388397217,0.8778533268576979
256,4.3140385059814434e-06,1.0,2.993443489074707,0.8778533268576979
257,4.2901983761112206e-06,1.0,2.993419647216797,0.8778533268576979
258,4.269933924661018e-06,1.0,2.993398904800415,0.8778533268576979
259,4.247286142344819e-06,1.0,2.993375539779663,0.8778533268576979
260,4.223445557727246e-06,1.0,2.9933502674102783,0.8778533268576979
261,4.204373453831067e-06,1.0,2.9933269023895264,0.8778533268576979
262,4.184109002380865e-06,1.0,2.993304491043091,0.8778533268576979
263,4.167420684098033e-06,1.0,2.9932830333709717,0.8778533268576979
264,4.148348580201855e-06,1.0,2.99326229095459,0.8778533268576979
265,4.1257003431383055e-06,1.0,2.993239641189575,0.8778533268576979
266,4.105435891688103e-06,1.0,2.9932169914245605,0.8778533268576979
267,4.083980002178578e-06,1.0,2.9931957721710205,0.8778533268576979
268,4.067291683895746e-06,1.0,2.9931726455688477,0.8778533268576979
269,4.049411472806241e-06,1.0,2.993150472640991,0.8778533268576979
270,4.027955128549365e-06,1.0,2.993129253387451,0.8778533268576979
271,4.0100744627125096e-06,1.0,2.9931089878082275,0.8778533268576979
272,3.992194251623005e-06,1.0,2.9930882453918457,0.8778533268576979
273,3.973122147726826e-06,1.0,2.993068218231201,0.8778533268576979
274,3.95166580346995e-06,1.0,2.9930455684661865,0.8778533268576979
275,3.9337855923804455e-06,1.0,2.993025541305542,0.8778533268576979
276,3.917097274097614e-06,1.0,2.9930052757263184,0.8778533268576979
277,3.896832822647411e-06,1.0,2.992985725402832,0.8778533268576979
278,3.877760264003882e-06,1.0,2.992969036102295,0.8778533268576979
279,3.8634561860817485e-06,1.0,2.9929466247558594,0.8778533268576979
280,3.846768322546268e-06,1.0,2.9929287433624268,0.8778533268576979
281,3.826503416348714e-06,1.0,2.992908477783203,0.8778533268576979
282,3.8098153254395584e-06,1.0,2.9928877353668213,0.8778533268576979
283,3.7919351143500535e-06,1.0,2.992868661880493,0.8778533268576979
284,3.7740544485131977e-06,1.0,2.992849111557007,0.8778533268576979
285,3.7573661302303663e-06,1.0,2.9928319454193115,0.8778533268576979
286,3.7394859191408614e-06,1.0,2.9928133487701416,0.8778533268576979
287,3.7251818412187276e-06,1.0,2.992795944213867,0.8778533268576979
288,3.7096854157425696e-06,1.0,2.9927780628204346,0.8778533268576979
289,3.692997097459738e-06,1.0,2.99275803565979,0.8778533268576979
290,3.673924538816209e-06,1.0,2.99273943901062,0.8778533268576979
291,3.6596202335203998e-06,1.0,2.992722749710083,0.8778533268576979
292,3.640547902250546e-06,1.0,2.9927055835723877,0.8778533268576979
293,3.6262433695810614e-06,1.0,2.9926884174346924,0.8778533268576979
294,3.6107473988522543e-06,1.0,2.992671489715576,0.8778533268576979
295,3.594058625822072e-06,1.0,2.992652416229248,0.8778533268576979
296,3.5785626550932648e-06,1.0,2.99263596534729,0.8778533268576979
297,3.56425812242378e-06,1.0,2.9926178455352783,0.8778533268576979
298,3.5463779113342753e-06,1.0,2.992600440979004,0.8778533268576979
299,3.5308814858581172e-06,1.0,2.992584228515625,0.8778533268576979
300,3.5177690733689815e-06,1.0,2.992570161819458,0.8778533268576979
301,3.499888634905801e-06,1.0,2.9925549030303955,0.8778533268576979
302,3.484392209429643e-06,1.0,2.9925384521484375,0.8778533268576979
303,3.471280024314183e-06,1.0,2.9925224781036377,0.8778533268576979
304,3.4557835988380248e-06,1.0,2.9925079345703125,0.8778533268576979
305,3.440287400735542e-06,1.0,2.9924914836883545,0.8778533268576979
306,3.4271749882464064e-06,1.0,2.9924747943878174,0.8778533268576979
307,3.4104868973372504e-06,1.0,2.992459535598755,0.8778533268576979
308,3.3973744848481147e-06,1.0,2.992445707321167,0.8778533268576979
309,3.381877831998281e-06,1.0,2.9924304485321045,0.8778533268576979
310,3.3699577670631697e-06,1.0,2.9924163818359375,0.8778533268576979
311,3.3556534617673606e-06,1.0,2.992399215698242,0.8778533268576979
312,3.340156808917527e-06,1.0,2.992384672164917,0.8778533268576979
313,3.32823651660874e-06,1.0,2.99236798286438,0.8778533268576979
314,3.3115481983259087e-06,1.0,2.992354154586792,0.8778533268576979
315,3.2984360132104484e-06,1.0,2.992338180541992,0.8778533268576979
316,3.2865157209016616e-06,1.0,2.992321491241455,0.8778533268576979
317,3.271019068051828e-06,1.0,2.992307662963867,0.8778533268576979
318,3.259098775743041e-06,1.0,2.9922945499420166,0.8778533268576979
319,3.244794470447232e-06,1.0,2.9922807216644287,0.8778533268576979
320,3.230490165151423e-06,1.0,2.992266893386841,0.8778533268576979
321,3.217377752662287e-06,1.0,2.9922502040863037,0.8778533268576979
322,3.2078414733405225e-06,1.0,2.9922354221343994,0.8778533268576979
323,3.1911529276840156e-06,1.0,2.9922215938568115,0.8778533268576979
324,3.1792324080015533e-06,1.0,2.992206573486328,0.8778533268576979
325,3.1649278753320687e-06,1.0,2.9921939373016357,0.8778533268576979
326,3.154199930577306e-06,1.0,2.9921772480010986,0.8778533268576979
327,3.1387037324748235e-06,1.0,2.9921655654907227,0.8778533268576979
328,3.1267829854186857e-06,1.0,2.9921507835388184,0.8778533268576979
329,3.114862693109899e-06,1.0,2.9921374320983887,0.8778533268576979
330,3.104134520981461e-06,1.0,2.9921224117279053,0.8778533268576979
331,3.089829988311976e-06,1.0,2.992110013961792,0.8778533268576979
332,3.0791015888098627e-06,1.0,2.9920947551727295,0.8778533268576979
333,3.06360539070738e-06,1.0,2.992082357406616,0.8778533268576979
334,3.0528769912052667e-06,1.0,2.992067813873291,0.8778533268576979
335,3.0421488190768287e-06,1.0,2.9920551776885986,0.8778533268576979
336,3.0290361792140175e-06,1.0,2.99204158782959,0.8778533268576979
337,3.0147318739182083e-06,1.0,2.992027759552002,0.8778533268576979
338,3.0040037017897703e-06,1.0,2.992016553878784,0.8778533268576979
339,2.992083182107308e-06,1.0,2.992004871368408,0.8778533268576979
340,2.98135500997887e-06,1.0,2.9919939041137695,0.8778533268576979
341,2.970626837850432e-06,1.0,2.9919848442077637,0.8778533268576979
342,2.9575141979876207e-06,1.0,2.9919726848602295,0.8778533268576979
343,2.9491702662198804e-06,1.0,2.991959810256958,0.8778533268576979
344,2.9348650514293695e-06,1.0,2.9919493198394775,0.8778533268576979
345,2.926521119661629e-06,1.0,2.9919352531433105,0.8778533268576979
346,2.914600599979167e-06,1.0,2.991924285888672,0.8778533268576979
347,2.9002960673096823e-06,1.0,2.9919118881225586,0.8778533268576979
348,2.8883757750008954e-06,1.0,2.991900682449341,0.8778533268576979
349,2.8788397230528062e-06,1.0,2.9918911457061768,0.8778533268576979
350,2.8681113235506928e-06,1.0,2.9918816089630127,0.8778533268576979
351,2.8561908038682304e-06,1.0,2.9918694496154785,0.8778533268576979
352,2.8442705115594435e-06,1.0,2.9918620586395264,0.8778533268576979
353,2.8359261250443524e-06,1.0,2.9918510913848877,0.8778533268576979
354,2.8263898457225878e-06,1.0,2.9918408393859863,0.8778533268576979
355,2.8156616735941498e-06,1.0,2.991830348968506,0.8778533268576979
356,2.804933046718361e-06,1.0,2.99181866645813,0.8778533268576979
357,2.793012754409574e-06,1.0,2.991809129714966,0.8778533268576979
358,2.783476247714134e-06,1.0,2.9917986392974854,0.8778533268576979
359,2.772748075585696e-06,1.0,2.9917900562286377,0.8778533268576979
360,2.760827783276909e-06,1.0,2.9917826652526855,0.8778533268576979
361,2.751291276581469e-06,1.0,2.9917733669281006,0.8778533268576979
362,2.74056264970568e-06,1.0,2.99176287651062,0.8778533268576979
363,2.729834477577242e-06,1.0,2.9917550086975098,0.8778533268576979
364,2.719105850701453e-06,1.0,2.991746187210083,0.8778533268576979
365,2.7095700261270395e-06,1.0,2.9917383193969727,0.8778533268576979
366,2.701225412238273e-06,1.0,2.9917309284210205,0.8778533268576979
367,2.690497240109835e-06,1.0,2.991719961166382,0.8778533268576979
368,2.678576493053697e-06,1.0,2.9917094707489014,0.8778533268576979
369,2.669039986358257e-06,1.0,2.9917004108428955,0.8778533268576979
370,2.664272187757888e-06,1.0,2.9916903972625732,0.8778533268576979
371,2.6523516680754256e-06,1.0,2.9916794300079346,0.8778533268576979
372,2.64400750893401e-06,1.0,2.9916698932647705,0.8778533268576979
373,2.6297027488908498e-06,1.0,2.99165940284729,0.8778533268576979
374,2.621358589749434e-06,1.0,2.991650342941284,0.8778533268576979
375,2.608245949886623e-06,1.0,2.9916396141052246,0.8778533268576979
376,2.6010936835518805e-06,1.0,2.9916293621063232,0.8778533268576979
377,2.591557404230116e-06,1.0,2.9916186332702637,0.8778533268576979
378,2.5820213522820268e-06,1.0,2.991605520248413,0.8778533268576979
379,2.57367673839326e-06,1.0,2.991593599319458,0.8778533268576979
380,2.5641404590714956e-06,1.0,2.991584062576294,0.8778533268576979
381,2.5569881927367533e-06,1.0,2.991572856903076,0.8778533268576979
382,2.5474519134149887e-06,1.0,2.991563320159912,0.8778533268576979
383,2.5367232865391998e-06,1.0,2.9915521144866943,0.8778533268576979
384,2.5271867798437597e-06,1.0,2.9915425777435303,0.8778533268576979
385,2.520034740882693e-06,1.0,2.991530656814575,0.8778533268576979
386,2.5104986889346037e-06,1.0,2.991520881652832,0.8778533268576979
387,2.4997698346851394e-06,1.0,2.9915106296539307,0.8778533268576979
388,2.4914256755437236e-06,1.0,2.991502046585083,0.8778533268576979
389,2.484273181835306e-06,1.0,2.9914934635162354,0.8778533268576979
390,2.4759292500675656e-06,1.0,2.991485595703125,0.8778533268576979
391,2.464008503011428e-06,1.0,2.9914774894714355,0.8778533268576979
392,2.4592404770373832e-06,1.0,2.9914662837982178,0.8778533268576979
393,2.449703970341943e-06,1.0,2.9914584159851074,0.8778533268576979
394,2.4437438241875498e-06,1.0,2.9914474487304688,0.8778533268576979
395,2.433015197311761e-06,1.0,2.99143385887146,0.8778533268576979
396,2.4234791453636717e-06,1.0,2.9914233684539795,0.8778533268576979
397,2.4151347588485805e-06,1.0,2.9914140701293945,0.8778533268576979
398,2.4067903723334894e-06,1.0,2.9914052486419678,0.8778533268576979
399,2.400830226179096e-06,1.0,2.9913978576660156,0.8778533268576979
400,2.390101599303307e-06,1.0,2.991391181945801,0.8778533268576979
401,2.3805653199815424e-06,1.0,2.991384744644165,0.8778533268576979
402,2.3746049464534735e-06,1.0,2.9913768768310547,0.8778533268576979
403,2.365068667131709e-06,1.0,2.9913692474365234,0.8778533268576979
404,2.3591085209773155e-06,1.0,2.9913628101348877,0.8778533268576979
405,2.3495720142818755e-06,1.0,2.991353750228882,0.8778533268576979
406,2.342419747947133e-06,1.0,2.991347074508667,0.8778533268576979
407,2.334075361432042e-06,1.0,2.991339683532715,0.8778533268576979
408,2.3257312022906262e-06,1.0,2.9913320541381836,0.8778533268576979
409,2.317386815775535e-06,1.0,2.9913249015808105,0.8778533268576979
410,2.3102345494407928e-06,1.0,2.9913170337677,0.8778533268576979
411,2.3018901629257016e-06,1.0,2.9913103580474854,0.8778533268576979
412,2.294737669217284e-06,1.0,2.9913017749786377,0.8778533268576979
413,2.2863932827021927e-06,1.0,2.9912970066070557,0.8778533268576979
414,2.278049123560777e-06,1.0,2.9912896156311035,0.8778533268576979
415,2.2697047370456858e-06,1.0,2.9912822246551514,0.8778533268576979
416,2.2637445908912923e-06,1.0,2.9912750720977783,0.8778533268576979
417,2.2542080841958523e-06,1.0,2.991267681121826,0.8778533268576979
418,2.2482477106677834e-06,1.0,2.991262197494507,0.8778533268576979
419,2.2422873371397145e-06,1.0,2.991255521774292,0.8778533268576979
420,2.2339429506246233e-06,1.0,2.991246223449707,0.8778533268576979
421,2.2267909116635565e-06,1.0,2.991239547729492,0.8778533268576979
422,2.2196384179551387e-06,1.0,2.9912352561950684,0.8778533268576979
423,2.2124861516203964e-06,1.0,2.9912285804748535,0.8778533268576979
424,2.205333885285654e-06,1.0,2.9912233352661133,0.8778533268576979
425,2.1993737391312607e-06,1.0,2.9912166595458984,0.8778533268576979
426,2.1910293526161695e-06,1.0,2.9912109375,0.8778533268576979
427,2.185069206461776e-06,1.0,2.991204261779785,0.8778533268576979
428,2.1779167127533583e-06,1.0,2.9911961555480957,0.8778533268576979
429,2.1683802060579183e-06,1.0,2.991189479827881,0.8778533268576979
430,2.162420059903525e-06,1.0,2.9911820888519287,0.8778533268576979
431,2.1528835532080848e-06,1.0,2.991176128387451,0.8778533268576979
432,2.1457312868733425e-06,1.0,2.991166830062866,0.8778533268576979
433,2.1409630335256224e-06,1.0,2.9911608695983887,0.8778533268576979
434,2.13381076719088e-06,1.0,2.991154432296753,0.8778533268576979
435,2.1254666080494644e-06,1.0,2.991145610809326,0.8778533268576979
436,2.120698127328069e-06,1.0,2.9911389350891113,0.8778533268576979
437,2.113546088367002e-06,1.0,2.991131544113159,0.8778533268576979
438,2.108777835019282e-06,1.0,2.991123676300049,0.8778533268576979
439,2.099241328323842e-06,1.0,2.9911162853240967,0.8778533268576979
440,2.094473074976122e-06,1.0,2.991109848022461,0.8778533268576979
441,2.0873208086413797e-06,1.0,2.991102933883667,0.8778533268576979
442,2.081360435113311e-06,1.0,2.9910948276519775,0.8778533268576979
443,2.0754002889589174e-06,1.0,2.9910881519317627,0.8778533268576979
444,2.069440142804524e-06,1.0,2.9910807609558105,0.8778533268576979
445,2.062287649096106e-06,1.0,2.991074800491333,0.8778533268576979
446,2.0551351553876884e-06,1.0,2.991067409515381,0.8778533268576979
447,2.0467907688725973e-06,1.0,2.9910597801208496,0.8778533268576979
448,2.0384466097311815e-06,1.0,2.991054058074951,0.8778533268576979
449,2.0348704765638104e-06,1.0,2.9910452365875244,0.8778533268576979
450,2.0277179828553926e-06,1.0,2.9910380840301514,0.8778533268576979
451,2.022949956881348e-06,1.0,2.991032600402832,0.8778533268576979
452,2.0181814761599526e-06,1.0,2.991025686264038,0.8778533268576979
453,2.0074528492841637e-06,1.0,2.991018056869507,0.8778533268576979
454,2.003876943490468e-06,1.0,2.991013526916504,0.8778533268576979
455,1.997916569962399e-06,1.0,2.9910054206848145,0.8778533268576979
456,1.9907643036276568e-06,1.0,2.9909987449645996,0.8778533268576979
457,1.9848041574732633e-06,1.0,2.9909911155700684,0.8778533268576979
458,1.9800359041255433e-06,1.0,2.9909844398498535,0.8778533268576979
459,1.9728834104171256e-06,1.0,2.9909770488739014,0.8778533268576979
460,1.9657311440823833e-06,1.0,2.990971088409424,0.8778533268576979
461,1.9609628907346632e-06,1.0,2.99096417427063,0.8778533268576979
462,1.9561946373869432e-06,1.0,2.9909584522247314,0.8778533268576979
463,1.947850250871852e-06,1.0,2.9909510612487793,0.8778533268576979
464,1.9454662378848298e-06,1.0,2.9909451007843018,0.8778533268576979
465,1.9383139715500874e-06,1.0,2.9909393787384033,0.8778533268576979
466,1.9323535980220186e-06,1.0,2.9909346103668213,0.8778533268576979
467,1.9228170913265785e-06,1.0,2.990928888320923,0.8778533268576979
468,1.9192409581592074e-06,1.0,2.9909236431121826,0.8778533268576979
469,1.912088691824465e-06,1.0,2.9909167289733887,0.8778533268576979
470,1.9061283182963962e-06,1.0,2.990910053253174,0.8778533268576979
471,1.9013600649486762e-06,1.0,2.990905284881592,0.8778533268576979
472,1.897783931781305e-06,1.0,2.990895986557007,0.8778533268576979
473,1.888247425085865e-06,1.0,2.9908907413482666,0.8778533268576979
474,1.884671178231656e-06,1.0,2.99088454246521,0.8778533268576979
475,1.8787110320772626e-06,1.0,2.990879774093628,0.8778533268576979
476,1.8715585383688449e-06,1.0,2.990872621536255,0.8778533268576979
477,1.8691745253818226e-06,1.0,2.990867853164673,0.8778533268576979
478,1.8632143792274292e-06,1.0,2.990863561630249,0.8778533268576979
479,1.8596381323732203e-06,1.0,2.9908580780029297,0.8778533268576979
480,1.8512937458581291e-06,1.0,2.9908525943756104,0.8778533268576979
481,1.8477174990039202e-06,1.0,2.990847110748291,0.8778533268576979
482,1.8405650052955025e-06,1.0,2.9908416271209717,0.8778533268576979
483,1.8357968656346202e-06,1.0,2.9908359050750732,0.8778533268576979
484,1.829836605793389e-06,1.0,2.990831136703491,0.8778533268576979
485,1.8262604726260179e-06,1.0,2.990825653076172,0.8778533268576979
486,1.8203002127847867e-06,1.0,2.9908201694488525,0.8778533268576979
487,1.8143398392567178e-06,1.0,2.9908151626586914,0.8778533268576979
488,1.8071874592351378e-06,1.0,2.990809679031372,0.8778533268576979
489,1.8012269720202312e-06,1.0,2.9908034801483154,0.8778533268576979
490,1.7976510662265355e-06,1.0,2.990798234939575,0.8778533268576979
491,1.7916905790116289e-06,1.0,2.9907944202423096,0.8778533268576979
492,1.7869224393507466e-06,1.0,2.9907872676849365,0.8778533268576979
493,1.782154413376702e-06,1.0,2.9907820224761963,0.8778533268576979
494,1.7761939261617954e-06,1.0,2.9907751083374023,0.8778533268576979
495,1.7714255591272376e-06,1.0,2.990769624710083,0.8778533268576979
496,1.7654654129728442e-06,1.0,2.99076509475708,0.8778533268576979
497,1.761889279805473e-06,1.0,2.9907619953155518,0.8778533268576979
498,1.7559289062774042e-06,1.0,2.9907562732696533,0.8778533268576979
499,1.7523526594231953e-06,1.0,2.990750551223755,0.8778533268576979
500,1.7463925132688018e-06,1.0,2.990746021270752,0.8778533268576979
501,1.7428161527277553e-06,1.0,2.9907426834106445,0.8778533268576979
502,1.738048013066873e-06,1.0,2.990737199783325,0.8778533268576979
503,1.7308955193584552e-06,1.0,2.9907329082489014,0.8778533268576979
504,1.7285116200582706e-06,1.0,2.990727186203003,0.8778533268576979
505,1.7225512465302018e-06,1.0,2.990723133087158,0.8778533268576979
506,1.7165908730021329e-06,1.0,2.990718126296997,0.8778533268576979
507,1.7130147398347617e-06,1.0,2.990712881088257,0.8778533268576979
508,1.7082464864870417e-06,1.0,2.990708589553833,0.8778533268576979
509,1.7022861129589728e-06,1.0,2.99070405960083,0.8778533268576979
510,1.6975178596112528e-06,1.0,2.990699291229248,0.8778533268576979
511,1.6915577134568593e-06,1.0,2.990694522857666,0.8778533268576979
512,1.6903655932765105e-06,1.0,2.9906904697418213,0.8778533268576979
513,1.684405447122117e-06,1.0,2.9906859397888184,0.8778533268576979
514,1.6772528397268616e-06,1.0,2.990679979324341,0.8778533268576979
515,1.6712926935724681e-06,1.0,2.9906773567199707,0.8778533268576979
516,1.6701005733921193e-06,1.0,2.9906725883483887,0.8778533268576979
517,1.6653322063575615e-06,1.0,2.990668773651123,0.8778533268576979
518,1.659372060203168e-06,1.0,2.9906647205352783,0.8778533268576979
519,1.6546036931686103e-06,1.0,2.990661144256592,0.8778533268576979
520,1.6510275600012392e-06,1.0,2.9906585216522217,0.8778533268576979
521,1.6462593066535192e-06,1.0,2.990654230117798,0.8778533268576979
522,1.6414910533057991e-06,1.0,2.9906487464904785,0.8778533268576979
523,1.635530793464568e-06,1.0,2.9906444549560547,0.8778533268576979
524,1.6331465531038702e-06,1.0,2.9906413555145264,0.8778533268576979
525,1.629570419936499e-06,1.0,2.99063777923584,0.8778533268576979
526,1.623610160095268e-06,1.0,2.990635395050049,0.8778533268576979
527,1.6200340269278968e-06,1.0,2.990631103515625,0.8778533268576979
528,1.6140735397129902e-06,1.0,2.9906272888183594,0.8778533268576979
529,1.6093052863652701e-06,1.0,2.9906229972839355,0.8778533268576979
530,1.6057290395110613e-06,1.0,2.9906201362609863,0.8778533268576979
531,1.600960899850179e-06,1.0,2.9906163215637207,0.8778533268576979
532,1.5950004126352724e-06,1.0,2.990612745285034,0.8778533268576979
533,1.5914242794679012e-06,1.0,2.9906084537506104,0.8778533268576979
534,1.586656139807019e-06,1.0,2.9906036853790283,0.8778533268576979
535,1.581887886459299e-06,1.0,2.9905998706817627,0.8778533268576979
536,1.57831163960509e-06,1.0,2.990596294403076,0.8778533268576979
537,1.5747355064377189e-06,1.0,2.9905924797058105,0.8778533268576979
538,1.5687750192228123e-06,1.0,2.990588903427124,0.8778533268576979
539,1.5651989997422788e-06,1.0,2.990584135055542,0.8778533268576979
540,1.56162275288807e-06,1.0,2.9905810356140137,0.8778533268576979
541,1.55685449954035e-06,1.0,2.9905755519866943,0.8778533268576979
542,1.5532783663729788e-06,1.0,2.990570068359375,0.8778533268576979
543,1.5461259863513988e-06,1.0,2.9905638694763184,0.8778533268576979
544,1.5437419733643765e-06,1.0,2.990560293197632,0.8778533268576979
545,1.5401656128233299e-06,1.0,2.990556001663208,0.8778533268576979
546,1.5353972457887721e-06,1.0,2.9905507564544678,0.8778533268576979
547,1.5330132328017498e-06,1.0,2.990546226501465,0.8778533268576979
548,1.5282449794540298e-06,1.0,2.990544319152832,0.8778533268576979
549,1.522284605925961e-06,1.0,2.9905405044555664,0.8778533268576979
550,1.5187084727585898e-06,1.0,2.9905364513397217,0.8778533268576979
551,1.5163243460847298e-06,1.0,2.990532875061035,0.8778533268576979
552,1.511555979050172e-06,1.0,2.990527391433716,0.8778533268576979
553,1.509171852376312e-06,1.0,2.9905242919921875,0.8778533268576979
554,1.5055958328957786e-06,1.0,2.9905192852020264,0.8778533268576979
555,1.499635345680872e-06,1.0,2.990516185760498,0.8778533268576979
556,1.497251219007012e-06,1.0,2.990509510040283,0.8778533268576979
557,1.4912909591657808e-06,1.0,2.990504026412964,0.8778533268576979
558,1.487714712311572e-06,1.0,2.990499258041382,0.8778533268576979
559,1.4829463452770142e-06,1.0,2.9904961585998535,0.8778533268576979
560,1.480562332289992e-06,1.0,2.9904911518096924,0.8778533268576979
561,1.4769861991226207e-06,1.0,2.9904873371124268,0.8778533268576979
562,1.472217832088063e-06,1.0,2.9904839992523193,0.8778533268576979
563,1.4698335917273653e-06,1.0,2.9904797077178955,0.8778533268576979
564,1.4662576859336696e-06,1.0,2.990475654602051,0.8778533268576979
565,1.4614893188991118e-06,1.0,2.9904696941375732,0.8778533268576979
566,1.455528945371043e-06,1.0,2.990464448928833,0.8778533268576979
567,1.453144818697183e-06,1.0,2.9904611110687256,0.8778533268576979
568,1.450760692023323e-06,1.0,2.9904544353485107,0.8778533268576979
569,1.4459925523624406e-06,1.0,2.9904496669769287,0.8778533268576979
570,1.4436083120017429e-06,1.0,2.9904468059539795,0.8778533268576979
571,1.4400321788343717e-06,1.0,2.990443706512451,0.8778533268576979
572,1.4364559319801629e-06,1.0,2.990438222885132,0.8778533268576979
573,1.4304956721389317e-06,1.0,2.9904327392578125,0.8778533268576979
574,1.4281115454650717e-06,1.0,2.9904284477233887,0.8778533268576979
575,1.4233432921173517e-06,1.0,2.990424394607544,0.8778533268576979
576,1.4197670452631428e-06,1.0,2.9904205799102783,0.8778533268576979
577,1.417382804902445e-06,1.0,2.9904158115386963,0.8778533268576979
578,1.413806671735074e-06,1.0,2.990410804748535,0.8778533268576979
579,1.410230424880865e-06,1.0,2.9904069900512695,0.8778533268576979
580,1.405462171533145e-06,1.0,2.990403413772583,0.8778533268576979
581,1.4018860383657739e-06,1.0,2.9903976917266846,0.8778533268576979
582,1.3995019116919138e-06,1.0,2.9903929233551025,0.8778533268576979
583,1.395925664837705e-06,1.0,2.990386962890625,0.8778533268576979
584,1.3923495316703338e-06,1.0,2.9903829097747803,0.8778533268576979
585,1.386389158142265e-06,1.0,2.990379571914673,0.8778533268576979
586,1.384005031468405e-06,1.0,2.990374803543091,0.8778533268576979
587,1.3792365507470095e-06,1.0,2.9903695583343506,0.8778533268576979
588,1.378044657940336e-06,1.0,2.990365505218506,0.8778533268576979
589,1.3744685247729649e-06,1.0,2.990361213684082,0.8778533268576979
590,1.3697001577384071e-06,1.0,2.990356922149658,0.8778533268576979
591,1.3673159173777094e-06,1.0,2.9903533458709717,0.8778533268576979
592,1.3649319043906871e-06,1.0,2.990349054336548,0.8778533268576979
593,1.3613556575364782e-06,1.0,2.990344285964966,0.8778533268576979
594,1.357779524369107e-06,1.0,2.9903392791748047,0.8778533268576979
595,1.354203391201736e-06,1.0,2.9903359413146973,0.8778533268576979
596,1.3518193782147137e-06,1.0,2.9903316497802734,0.8778533268576979
597,1.347051011180156e-06,1.0,2.990326166152954,0.8778533268576979
598,1.3422826441455982e-06,1.0,2.9903228282928467,0.8778533268576979
599,1.3410905239652493e-06,1.0,2.990318775177002,0.8778533268576979
600,1.3375145044847159e-06,1.0,2.9903154373168945,0.8778533268576979
601,1.3327461374501581e-06,1.0,2.9903106689453125,0.8778533268576979
602,1.3315540172698093e-06,1.0,2.990306854248047,0.8778533268576979
603,1.3291698905959493e-06,1.0,2.9903030395507812,0.8778533268576979
604,1.3279777704156004e-06,1.0,2.990299701690674,0.8778533268576979
605,1.3232095170678804e-06,1.0,2.9902968406677246,0.8778533268576979
606,1.3172492572266492e-06,1.0,2.99029278755188,0.8778533268576979
607,1.3148650168659515e-06,1.0,2.9902873039245605,0.8778533268576979
608,1.3112888836985803e-06,1.0,2.9902849197387695,0.8778533268576979
609,1.3089047570247203e-06,1.0,2.9902803897857666,0.8778533268576979
610,1.306520744037698e-06,1.0,2.9902775287628174,0.8778533268576979
611,1.3041365036770003e-06,1.0,2.990274667739868,0.8778533268576979
612,1.2981760164620937e-06,1.0,2.99027156829834,0.8778533268576979
613,1.2957918897882337e-06,1.0,2.9902684688568115,0.8778533268576979
614,1.2922158703077002e-06,1.0,2.9902639389038086,0.8778533268576979
615,1.2910237501273514e-06,1.0,2.990262269973755,0.8778533268576979
616,1.2862553830927936e-06,1.0,2.99025821685791,0.8778533268576979
617,1.280294895877887e-06,1.0,2.990253448486328,0.8778533268576979
618,1.2779109965777025e-06,1.0,2.990250825881958,0.8778533268576979
619,1.2719506230496336e-06,1.0,2.990246295928955,0.8778533268576979
620,1.2707585028692847e-06,1.0,2.9902443885803223,0.8778533268576979
621,1.2695663826889358e-06,1.0,2.990241050720215,0.8778533268576979
622,1.265990135834727e-06,1.0,2.990239381790161,0.8778533268576979
623,1.2624140026673558e-06,1.0,2.99023699760437,0.8778533268576979
624,1.2612219961738447e-06,1.0,2.990234613418579,0.8778533268576979
625,1.2588378694999847e-06,1.0,2.9902312755584717,0.8778533268576979
626,1.2552616226457758e-06,1.0,2.9902288913726807,0.8778533268576979
627,1.2516852621047292e-06,1.0,2.9902262687683105,0.8778533268576979
628,1.2481090152505203e-06,1.0,2.9902234077453613,0.8778533268576979
629,1.2457247748898226e-06,1.0,2.990220308303833,0.8778533268576979
630,1.240956748915778e-06,1.0,2.990217924118042,0.8778533268576979
631,1.2385725085550803e-06,1.0,2.9902148246765137,0.8778533268576979
632,1.2373805020615691e-06,1.0,2.990213632583618,0.8778533268576979
633,1.2361883818812203e-06,1.0,2.9902117252349854,0.8778533268576979
634,1.2314201285335002e-06,1.0,2.990211009979248,0.8778533268576979
635,1.2266518751857802e-06,1.0,2.9902098178863525,0.8778533268576979
636,1.2242677485119202e-06,1.0,2.9902095794677734,0.8778533268576979
637,1.2230756283315714e-06,1.0,2.9902069568634033,0.8778533268576979
638,1.2218835081512225e-06,1.0,2.9902050495147705,0.8778533268576979
639,1.2171153684903402e-06,1.0,2.9902007579803467,0.8778533268576979
640,1.2123471151426202e-06,1.0,2.9901983737945557,0.8778533268576979
641,1.2111549949622713e-06,1.0,2.990196466445923,0.8778533268576979
642,1.2087708682884113e-06,1.0,2.990192413330078,0.8778533268576979
643,1.2051947351210401e-06,1.0,2.9901933670043945,0.8778533268576979
644,1.2028104947603424e-06,1.0,2.990189790725708,0.8778533268576979
645,1.2016183745799935e-06,1.0,2.990187406539917,0.8778533268576979
646,1.1956581147387624e-06,1.0,2.9901859760284424,0.8778533268576979
647,1.1944661082452512e-06,1.0,2.990185260772705,0.8778533268576979
648,1.1944661082452512e-06,1.0,2.9901857376098633,0.8778533268576979
649,1.1908898613910424e-06,1.0,2.9901835918426514,0.8778533268576979
650,1.1873136145368335e-06,1.0,2.9901835918426514,0.8778533268576979
651,1.1861216080433223e-06,1.0,2.990180492401123,0.8778533268576979
652,1.1837374813694623e-06,1.0,2.990180015563965,0.8778533268576979
653,1.1765848739742069e-06,1.0,2.9901769161224365,0.8778533268576979
654,1.1753928674806957e-06,1.0,2.990173816680908,0.8778533268576979
655,1.1730087408068357e-06,1.0,2.9901721477508545,0.8778533268576979
656,1.168240373772278e-06,1.0,2.9901695251464844,0.8778533268576979
657,1.1670483672787668e-06,1.0,2.9901695251464844,0.8778533268576979
658,1.1658563607852557e-06,1.0,2.9901680946350098,0.8778533268576979
659,1.161087993750698e-06,1.0,2.9901695251464844,0.8778533268576979
660,1.158703867076838e-06,1.0,2.9901678562164307,0.8778533268576979
661,1.157511746896489e-06,1.0,2.9901671409606934,0.8778533268576979
662,1.156319740402978e-06,1.0,2.9901652336120605,0.8778533268576979
663,1.150359366874909e-06,1.0,2.9901628494262695,0.8778533268576979
664,1.150359366874909e-06,1.0,2.9901604652404785,0.8778533268576979
665,1.1467831200207002e-06,1.0,2.9901604652404785,0.8778533268576979
666,1.1420148666729801e-06,1.0,2.990156888961792,0.8778533268576979
667,1.1396306263122824e-06,1.0,2.9901554584503174,0.8778533268576979
668,1.1372464996384224e-06,1.0,2.990154266357422,0.8778533268576979
669,1.1336703664710512e-06,1.0,2.9901528358459473,0.8778533268576979
670,1.13247835997754e-06,1.0,2.9901514053344727,0.8778533268576979
671,1.1312862397971912e-06,1.0,2.9901506900787354,0.8778533268576979
672,1.1277099929429824e-06,1.0,2.99014949798584,0.8778533268576979
673,1.1265178727626335e-06,1.0,2.9901483058929443,0.8778533268576979
674,1.1229416259084246e-06,1.0,2.9901459217071533,0.8778533268576979
675,1.1217496194149135e-06,1.0,2.990145206451416,0.8778533268576979
676,1.1205574992345646e-06,1.0,2.9901411533355713,0.8778533268576979
677,1.1181734862475423e-06,1.0,2.9901397228240967,0.8778533268576979
678,1.1134051192129846e-06,1.0,2.9901368618011475,0.8778533268576979
679,1.1098289860456134e-06,1.0,2.990137815475464,0.8778533268576979
680,1.1062527391914045e-06,1.0,2.9901351928710938,0.8778533268576979
681,1.1050607326978934e-06,1.0,2.9901347160339355,0.8778533268576979
682,1.1038686125175445e-06,1.0,2.9901342391967773,0.8778533268576979
683,1.1014844858436845e-06,1.0,2.99013352394104,0.8778533268576979
684,1.1002923656633357e-06,1.0,2.990131139755249,0.8778533268576979
685,1.095523998628778e-06,1.0,2.990131378173828,0.8778533268576979
686,1.095523998628778e-06,1.0,2.990129232406616,0.8778533268576979
687,1.0919478654614068e-06,1.0,2.990126848220825,0.8778533268576979
688,1.0907558589678956e-06,1.0,2.990126371383667,0.8778533268576979
689,1.0895637387875468e-06,1.0,2.990126371383667,0.8778533268576979
690,1.0859874919333379e-06,1.0,2.9901256561279297,0.8778533268576979
691,1.0812192385856179e-06,1.0,2.9901230335235596,0.8778533268576979
692,1.080027118405269e-06,1.0,2.990123748779297,0.8778533268576979
693,1.077642991731409e-06,1.0,2.990121364593506,0.8778533268576979
694,1.075258865057549e-06,1.0,2.9901208877563477,0.8778533268576979
695,1.0740667448772001e-06,1.0,2.990119457244873,0.8778533268576979
696,1.0716827318901778e-06,1.0,2.9901187419891357,0.8778533268576979
697,1.06929849152948e-06,1.0,2.9901182651519775,0.8778533268576979
698,1.0657222446752712e-06,1.0,2.990117073059082,0.8778533268576979
699,1.0645301244949223e-06,1.0,2.990116834640503,0.8778533268576979
700,1.0621461115079e-06,1.0,2.9901158809661865,0.8778533268576979
701,1.0573777444733423e-06,1.0,2.990114688873291,0.8778533268576979
702,1.0561857379798312e-06,1.0,2.99011492729187,0.8778533268576979
703,1.0549936177994823e-06,1.0,2.9901134967803955,0.8778533268576979
704,1.0526093774387846e-06,1.0,2.990112543106079,0.8778533268576979
705,1.0502252507649246e-06,1.0,2.9901111125946045,0.8778533268576979
706,1.0490332442714134e-06,1.0,2.990109443664551,0.8778533268576979
707,1.0454569974172045e-06,1.0,2.990108013153076,0.8778533268576979
708,1.0430728707433445e-06,1.0,2.9901058673858643,0.8778533268576979
709,1.0418807505629957e-06,1.0,2.9901041984558105,0.8778533268576979
710,1.0383046173956245e-06,1.0,2.9901034832000732,0.8778533268576979
711,1.0371124972152757e-06,1.0,2.990100145339966,0.8778533268576979
712,1.0359203770349268e-06,1.0,2.990100145339966,0.8778533268576979
713,1.0335362503610668e-06,1.0,2.9900975227355957,0.8778533268576979
714,1.0287679970133468e-06,1.0,2.990093231201172,0.8778533268576979
715,1.0275758768329979e-06,1.0,2.9900918006896973,0.8778533268576979
716,1.0275758768329979e-06,1.0,2.99008846282959,0.8778533268576979
717,1.0251917501591379e-06,1.0,2.9900875091552734,0.8778533268576979
718,1.0204233831245801e-06,1.0,2.9900848865509033,0.8778533268576979
719,1.0180392564507201e-06,1.0,2.9900834560394287,0.8778533268576979
720,1.0180392564507201e-06,1.0,2.990079164505005,0.8778533268576979
721,1.0156551297768601e-06,1.0,2.9900779724121094,0.8778533268576979
722,1.0120788829226512e-06,1.0,2.9900779724121094,0.8778533268576979
723,1.01088687642914e-06,1.0,2.9900755882263184,0.8778533268576979
724,1.0096947562487912e-06,1.0,2.9900741577148438,0.8778533268576979
725,1.00850274975528e-06,1.0,2.9900732040405273,0.8778533268576979
726,1.0013502560468623e-06,1.0,2.9900708198547363,0.8778533268576979
727,1.0013502560468623e-06,1.0,2.9900670051574707,0.8778533268576979
728,1.0001582495533512e-06,1.0,2.9900665283203125,0.8778533268576979
729,9.989661293730023e-07,1.0,2.990065813064575,0.8778533268576979
730,9.953898825187935e-07,1.0,2.9900670051574707,0.8778533268576979
731,9.941977623384446e-07,1.0,2.990065336227417,0.8778533268576979
732,9.906215154842357e-07,1.0,2.9900646209716797,0.8778533268576979
733,9.894293953038868e-07,1.0,2.9900639057159424,0.8778533268576979
734,9.870453823168646e-07,1.0,2.9900619983673096,0.8778533268576979
735,9.858532621365157e-07,1.0,2.990060329437256,0.8778533268576979
736,9.834691354626557e-07,1.0,2.9900622367858887,0.8778533268576979
737,9.822771289691445e-07,1.0,2.9900591373443604,0.8778533268576979
738,9.810850087887957e-07,1.0,2.990057945251465,0.8778533268576979
739,9.775087619345868e-07,1.0,2.990057945251465,0.8778533268576979
740,9.75124521573889e-07,1.0,2.990056037902832,0.8778533268576979
741,9.71548388406518e-07,1.0,2.990056037902832,0.8778533268576979
742,9.70356268226169e-07,1.0,2.990055799484253,0.8778533268576979
743,9.67972141552309e-07,1.0,2.99005389213562,0.8778533268576979
744,9.67972141552309e-07,1.0,2.990051746368408,0.8778533268576979
745,9.65588014878449e-07,1.0,2.9900524616241455,0.8778533268576979
746,9.63203888204589e-07,1.0,2.990050792694092,0.8778533268576979
747,9.608196478438913e-07,1.0,2.9900500774383545,0.8778533268576979
748,9.596276413503801e-07,1.0,2.990049362182617,0.8778533268576979
749,9.560513944961713e-07,1.0,2.9900481700897217,0.8778533268576979
750,9.548592743158224e-07,1.0,2.990046262741089,0.8778533268576979
751,9.536671541354735e-07,1.0,2.990046977996826,0.8778533268576979
752,9.524750907985435e-07,1.0,2.990044593811035,0.8778533268576979
753,9.477068374508235e-07,1.0,2.990044593811035,0.8778533268576979
754,9.465148309573124e-07,1.0,2.9900448322296143,0.8778533268576979
755,9.441306474400335e-07,1.0,2.990044116973877,0.8778533268576979
756,9.441306474400335e-07,1.0,2.990041971206665,0.8778533268576979
757,9.405544574292435e-07,1.0,2.9900403022766113,0.8778533268576979
758,9.405544574292435e-07,1.0,2.990039110183716,0.8778533268576979
759,9.369781537316157e-07,1.0,2.990037679672241,0.8778533268576979
760,9.357860903946857e-07,1.0,2.990037202835083,0.8778533268576979
761,9.334020205642446e-07,1.0,2.990037202835083,0.8778533268576979
762,9.322099572273146e-07,1.0,2.9900364875793457,0.8778533268576979
763,9.298257168666169e-07,1.0,2.99003529548645,0.8778533268576979
764,9.286336535296869e-07,1.0,2.9900338649749756,0.8778533268576979
765,9.27441533349338e-07,1.0,2.9900317192077637,0.8778533268576979
766,9.238652864951291e-07,1.0,2.9900283813476562,0.8778533268576979
767,9.21481216664688e-07,1.0,2.9900271892547607,0.8778533268576979
768,9.20289153327758e-07,1.0,2.9900262355804443,0.8778533268576979
769,9.179049698104791e-07,1.0,2.9900262355804443,0.8778533268576979
770,9.179049698104791e-07,1.0,2.990025758743286,0.8778533268576979
771,9.167128496301302e-07,1.0,2.9900262355804443,0.8778533268576979
772,9.143287797996891e-07,1.0,2.990025281906128,0.8778533268576979
773,9.143287797996891e-07,1.0,2.990025520324707,0.8778533268576979
774,9.107525329454802e-07,1.0,2.9900267124176025,0.8778533268576979
775,9.095604696085502e-07,1.0,2.990025043487549,0.8778533268576979
776,9.071762860912713e-07,1.0,2.9900245666503906,0.8778533268576979
777,9.059842227543413e-07,1.0,2.990023374557495,0.8778533268576979
778,9.036001529239002e-07,1.0,2.990023136138916,0.8778533268576979
779,9.024080327435513e-07,1.0,2.9900219440460205,0.8778533268576979
780,9.000238492262724e-07,1.0,2.990023136138916,0.8778533268576979
781,8.976396657089936e-07,1.0,2.9900217056274414,0.8778533268576979
782,8.952554821917147e-07,1.0,2.990021228790283,0.8778533268576979
783,8.928713555178547e-07,1.0,2.9900200366973877,0.8778533268576979
784,8.916793490243435e-07,1.0,2.990021228790283,0.8778533268576979
785,8.904872856874135e-07,1.0,2.990021228790283,0.8778533268576979
786,8.892951655070647e-07,1.0,2.990021228790283,0.8778533268576979
787,8.881031590135535e-07,1.0,2.990023374557495,0.8778533268576979
788,8.881031590135535e-07,1.0,2.9900221824645996,0.8778533268576979
789,8.869111525200424e-07,1.0,2.990021228790283,0.8778533268576979
790,8.845269690027635e-07,1.0,2.9900224208831787,0.8778533268576979
791,8.809506653051358e-07,1.0,2.9900224208831787,0.8778533268576979
792,8.809506653051358e-07,1.0,2.990023136138916,0.8778533268576979
793,8.77374361607508e-07,1.0,2.9900238513946533,0.8778533268576979
794,8.76182298270578e-07,1.0,2.990023136138916,0.8778533268576979
795,8.749901780902292e-07,1.0,2.990023136138916,0.8778533268576979
796,8.714139880794392e-07,1.0,2.9900238513946533,0.8778533268576979
797,8.70221981585928e-07,1.0,2.9900238513946533,0.8778533268576979
798,8.678377980686491e-07,1.0,2.990023374557495,0.8778533268576979
799,8.666456778883003e-07,1.0,2.990021228790283,0.8778533268576979
800,8.642614943710214e-07,1.0,2.9900219440460205,0.8778533268576979
801,8.630694310340914e-07,1.0,2.990020751953125,0.8778533268576979
802,8.594932978667202e-07,1.0,2.990022897720337,0.8778533268576979
803,8.594932978667202e-07,1.0,2.990023136138916,0.8778533268576979
804,8.594932978667202e-07,1.0,2.9900224208831787,0.8778533268576979
805,8.583011776863714e-07,1.0,2.9900219440460205,0.8778533268576979
806,8.583011776863714e-07,1.0,2.990021228790283,0.8778533268576979
807,8.535328106518136e-07,1.0,2.9900224208831787,0.8778533268576979
808,8.523407473148836e-07,1.0,2.9900200366973877,0.8778533268576979
809,8.487645004606748e-07,1.0,2.9900224208831787,0.8778533268576979
810,8.487645004606748e-07,1.0,2.9900219440460205,0.8778533268576979
811,8.487645004606748e-07,1.0,2.990020990371704,0.8778533268576979
812,8.439962471129547e-07,1.0,2.990021228790283,0.8778533268576979
813,8.416120635956759e-07,1.0,2.990020990371704,0.8778533268576979
814,8.40419943415327e-07,1.0,2.990018844604492,0.8778533268576979
815,8.40419943415327e-07,1.0,2.990017890930176,0.8778533268576979
816,8.392278232349781e-07,1.0,2.990018844604492,0.8778533268576979
817,8.36843753404537e-07,1.0,2.9900169372558594,0.8778533268576979
818,8.356516332241881e-07,1.0,2.9900190830230713,0.8778533268576979
819,8.320754432133981e-07,1.0,2.990018129348755,0.8778533268576979
820,8.320754432133981e-07,1.0,2.990018606185913,0.8778533268576979
821,8.308833230330492e-07,1.0,2.9900176525115967,0.8778533268576979
822,8.308833230330492e-07,1.0,2.990018129348755,0.8778533268576979
823,8.273071898656781e-07,1.0,2.990018606185913,0.8778533268576979
824,8.261151265287481e-07,1.0,2.990018844604492,0.8778533268576979
825,8.237309430114692e-07,1.0,2.9900195598602295,0.8778533268576979
826,8.225388228311203e-07,1.0,2.9900197982788086,0.8778533268576979
827,8.225388228311203e-07,1.0,2.990018129348755,0.8778533268576979
828,8.225388228311203e-07,1.0,2.990018129348755,0.8778533268576979
829,8.177704557965626e-07,1.0,2.9900176525115967,0.8778533268576979
830,8.165783924596326e-07,1.0,2.990018129348755,0.8778533268576979
831,8.141943226291914e-07,1.0,2.990018129348755,0.8778533268576979
832,8.141943226291914e-07,1.0,2.990018844604492,0.8778533268576979
833,8.130022592922614e-07,1.0,2.9900176525115967,0.8778533268576979
834,8.106180757749826e-07,1.0,2.9900176525115967,0.8778533268576979
835,8.094259555946337e-07,1.0,2.990018129348755,0.8778533268576979
836,8.082339491011226e-07,1.0,2.990016460418701,0.8778533268576979
837,8.082339491011226e-07,1.0,2.9900169372558594,0.8778533268576979
838,8.058497655838437e-07,1.0,2.9900166988372803,0.8778533268576979
839,8.034655820665648e-07,1.0,2.990016222000122,0.8778533268576979
840,8.02273461886216e-07,1.0,2.990016460418701,0.8778533268576979
841,7.998893920557748e-07,1.0,2.990017890930176,0.8778533268576979
842,7.998893920557748e-07,1.0,2.9900195598602295,0.8778533268576979
843,7.986972718754259e-07,1.0,2.990017890930176,0.8778533268576979
844,7.951210818646359e-07,1.0,2.9900169372558594,0.8778533268576979
845,7.951210818646359e-07,1.0,2.9900169372558594,0.8778533268576979
846,7.939289616842871e-07,1.0,2.990015745162964,0.8778533268576979
847,7.91544835010427e-07,1.0,2.990015745162964,0.8778533268576979
848,7.90352771673497e-07,1.0,2.990016222000122,0.8778533268576979
849,7.891606514931482e-07,1.0,2.990015745162964,0.8778533268576979
850,7.879685881562182e-07,1.0,2.990015745162964,0.8778533268576979
851,7.867764679758693e-07,1.0,2.990016222000122,0.8778533268576979
852,7.855844614823582e-07,1.0,2.99001407623291,0.8778533268576979
853,7.832002779650793e-07,1.0,2.9900152683258057,0.8778533268576979
854,7.820082146281493e-07,1.0,2.9900131225585938,0.8778533268576979
855,7.820082146281493e-07,1.0,2.9900126457214355,0.8778533268576979
856,7.796240311108704e-07,1.0,2.99001145362854,0.8778533268576979
857,7.772399044370104e-07,1.0,2.990010976791382,0.8778533268576979
858,7.772399044370104e-07,1.0,2.9900126457214355,0.8778533268576979
859,7.760477842566615e-07,1.0,2.990010976791382,0.8778533268576979
860,7.748557209197315e-07,1.0,2.9900126457214355,0.8778533268576979
861,7.724715374024527e-07,1.0,2.9900126457214355,0.8778533268576979
862,7.712794172221038e-07,1.0,2.9900131225585938,0.8778533268576979
863,7.700874675720115e-07,1.0,2.990013599395752,0.8778533268576979
864,7.677032840547326e-07,1.0,2.990010976791382,0.8778533268576979
865,7.665112207178026e-07,1.0,2.990008592605591,0.8778533268576979
866,7.653191005374538e-07,1.0,2.990008592605591,0.8778533268576979
867,7.641270372005238e-07,1.0,2.9900076389312744,0.8778533268576979
868,7.617428536832449e-07,1.0,2.990007162094116,0.8778533268576979
869,7.617428536832449e-07,1.0,2.9900059700012207,0.8778533268576979
870,7.605507903463149e-07,1.0,2.9900050163269043,0.8778533268576979
871,7.593587270093849e-07,1.0,2.9900057315826416,0.8778533268576979
872,7.581667205158737e-07,1.0,2.990006685256958,0.8778533268576979
873,7.54590416818246e-07,1.0,2.9900054931640625,0.8778533268576979
874,7.53398353481316e-07,1.0,2.9900054931640625,0.8778533268576979
875,7.53398353481316e-07,1.0,2.9900033473968506,0.8778533268576979
876,7.522062333009671e-07,1.0,2.9900035858154297,0.8778533268576979
877,7.522062333009671e-07,1.0,2.9900035858154297,0.8778533268576979
878,7.51014226807456e-07,1.0,2.9900026321411133,0.8778533268576979
879,7.474379231098283e-07,1.0,2.990002393722534,0.8778533268576979
880,7.462458597728983e-07,1.0,2.9900035858154297,0.8778533268576979
881,7.462458597728983e-07,1.0,2.990004539489746,0.8778533268576979
882,7.450537964359683e-07,1.0,2.990002393722534,0.8778533268576979
883,7.438617330990382e-07,1.0,2.990002393722534,0.8778533268576979
884,7.414775495817594e-07,1.0,2.990001678466797,0.8778533268576979
885,7.379012458841316e-07,1.0,2.990002393722534,0.8778533268576979
886,7.367091825472016e-07,1.0,2.990001678466797,0.8778533268576979
887,7.355171760536905e-07,1.0,2.989999294281006,0.8778533268576979
888,7.343250558733416e-07,1.0,2.9899981021881104,0.8778533268576979
889,7.343250558733416e-07,1.0,2.989997386932373,0.8778533268576979
890,7.319408723560628e-07,1.0,2.9899981021881104,0.8778533268576979
891,7.319408723560628e-07,1.0,2.9899983406066895,0.8778533268576979
892,7.295566888387839e-07,1.0,2.989997386932373,0.8778533268576979
893,7.271725621649239e-07,1.0,2.9899988174438477,0.8778533268576979
894,7.259804988279939e-07,1.0,2.9899961948394775,0.8778533268576979
895,7.24788378647645e-07,1.0,2.989996910095215,0.8778533268576979
896,7.224041951303661e-07,1.0,2.9899961948394775,0.8778533268576979
897,7.224041951303661e-07,1.0,2.989996910095215,0.8778533268576979
898,7.224041951303661e-07,1.0,2.989997386932373,0.8778533268576979
899,7.200200684565061e-07,1.0,2.9899981021881104,0.8778533268576979
900,7.188280051195761e-07,1.0,2.989999294281006,0.8778533268576979
901,7.188280051195761e-07,1.0,2.9899988174438477,0.8778533268576979
902,7.164438216022972e-07,1.0,2.9899990558624268,0.8778533268576979
903,7.164438216022972e-07,1.0,2.989999294281006,0.8778533268576979
904,7.164438216022972e-07,1.0,2.989999294281006,0.8778533268576979
905,7.152518151087861e-07,1.0,2.989999532699585,0.8778533268576979
906,7.140596949284372e-07,1.0,2.990001678466797,0.8778533268576979
907,7.104834480742284e-07,1.0,2.9900028705596924,0.8778533268576979
908,7.080992077135306e-07,1.0,2.990002393722534,0.8778533268576979
909,7.069071443766006e-07,1.0,2.990004777908325,0.8778533268576979
910,7.057150241962518e-07,1.0,2.990004301071167,0.8778533268576979
911,7.057150241962518e-07,1.0,2.9900054931640625,0.8778533268576979
912,7.045230177027406e-07,1.0,2.990007162094116,0.8778533268576979
913,7.033309543658106e-07,1.0,2.9900078773498535,0.8778533268576979
914,7.021388910288806e-07,1.0,2.9900076389312744,0.8778533268576979
915,6.997547075116017e-07,1.0,2.9900076389312744,0.8778533268576979
916,6.997547075116017e-07,1.0,2.990011215209961,0.8778533268576979
917,6.997547075116017e-07,1.0,2.990010976791382,0.8778533268576979
918,6.973705239943229e-07,1.0,2.990013360977173,0.8778533268576979
919,6.973705239943229e-07,1.0,2.990013599395752,0.8778533268576979
920,6.973705239943229e-07,1.0,2.990013360977173,0.8778533268576979
921,6.93794277140114e-07,1.0,2.9900145530700684,0.8778533268576979
922,6.926021569597651e-07,1.0,2.9900152683258057,0.8778533268576979
923,6.902181439727428e-07,1.0,2.9900155067443848,0.8778533268576979
924,6.89026023792394e-07,1.0,2.990013599395752,0.8778533268576979
925,6.89026023792394e-07,1.0,2.9900152683258057,0.8778533268576979
926,6.89026023792394e-07,1.0,2.9900143146514893,0.8778533268576979
927,6.89026023792394e-07,1.0,2.9900166988372803,0.8778533268576979
928,6.87833960455464e-07,1.0,2.9900190830230713,0.8778533268576979
929,6.866419539619528e-07,1.0,2.9900195598602295,0.8778533268576979
930,6.842577136012551e-07,1.0,2.9900200366973877,0.8778533268576979
931,6.818735300839762e-07,1.0,2.9900221824645996,0.8778533268576979
932,6.818735300839762e-07,1.0,2.990023136138916,0.8778533268576979
933,6.818735300839762e-07,1.0,2.9900238513946533,0.8778533268576979
934,6.782973400731862e-07,1.0,2.9900240898132324,0.8778533268576979
935,6.782973400731862e-07,1.0,2.9900238513946533,0.8778533268576979
936,6.782973400731862e-07,1.0,2.990025043487549,0.8778533268576979
937,6.735289730386285e-07,1.0,2.9900243282318115,0.8778533268576979
938,6.735289730386285e-07,1.0,2.990025043487549,0.8778533268576979
939,6.735289730386285e-07,1.0,2.9900262355804443,0.8778533268576979
940,6.723369097016985e-07,1.0,2.99002742767334,0.8778533268576979
941,6.711447895213496e-07,1.0,2.990027666091919,0.8778533268576979
942,6.711447895213496e-07,1.0,2.990027904510498,0.8778533268576979
943,6.699527261844196e-07,1.0,2.99002742767334,0.8778533268576979
944,6.675684858237219e-07,1.0,2.9900293350219727,0.8778533268576979
945,6.663764224867919e-07,1.0,2.990030527114868,0.8778533268576979
946,6.663764224867919e-07,1.0,2.9900317192077637,0.8778533268576979
947,6.651844159932807e-07,1.0,2.9900310039520264,0.8778533268576979
948,6.628002893194207e-07,1.0,2.9900331497192383,0.8778533268576979
949,6.628002893194207e-07,1.0,2.9900333881378174,0.8778533268576979
950,6.628002893194207e-07,1.0,2.990032196044922,0.8778533268576979
951,6.616081691390718e-07,1.0,2.99003267288208,0.8778533268576979
952,6.604161058021418e-07,1.0,2.990034818649292,0.8778533268576979
953,6.58031922284863e-07,1.0,2.990034818649292,0.8778533268576979
954,6.58031922284863e-07,1.0,2.990034818649292,0.8778533268576979
955,6.568398021045141e-07,1.0,2.990037679672241,0.8778533268576979
956,6.544557322740729e-07,1.0,2.990036964416504,0.8778533268576979
957,6.532636120937241e-07,1.0,2.990037202835083,0.8778533268576979
958,6.520715487567941e-07,1.0,2.990039110183716,0.8778533268576979
959,6.520715487567941e-07,1.0,2.990039110183716,0.8778533268576979
960,6.520715487567941e-07,1.0,2.990039587020874,0.8778533268576979
961,6.496873652395152e-07,1.0,2.9900386333465576,0.8778533268576979
962,6.484953019025852e-07,1.0,2.990039587020874,0.8778533268576979
963,6.484953019025852e-07,1.0,2.990041971206665,0.8778533268576979
964,6.473032385656552e-07,1.0,2.9900424480438232,0.8778533268576979
965,6.461111183853063e-07,1.0,2.9900436401367188,0.8778533268576979
966,6.425348715310975e-07,1.0,2.990044593811035,0.8778533268576979
967,6.425348715310975e-07,1.0,2.990043878555298,0.8778533268576979
968,6.425348715310975e-07,1.0,2.9900431632995605,0.8778533268576979
969,6.401506880138186e-07,1.0,2.990043878555298,0.8778533268576979
970,6.377665044965397e-07,1.0,2.990043878555298,0.8778533268576979
971,6.377665044965397e-07,1.0,2.990043878555298,0.8778533268576979
972,6.377665044965397e-07,1.0,2.9900457859039307,0.8778533268576979
973,6.365744411596097e-07,1.0,2.990043878555298,0.8778533268576979
974,6.365744411596097e-07,1.0,2.990046262741089,0.8778533268576979
975,6.341903713291686e-07,1.0,2.9900460243225098,0.8778533268576979
976,6.329982511488197e-07,1.0,2.990046977996826,0.8778533268576979
977,6.318061878118897e-07,1.0,2.9900481700897217,0.8778533268576979
978,6.306140676315408e-07,1.0,2.990048408508301,0.8778533268576979
979,6.306140676315408e-07,1.0,2.990046977996826,0.8778533268576979
980,6.294220042946108e-07,1.0,2.9900474548339844,0.8778533268576979
981,6.28229884114262e-07,1.0,2.99004864692688,0.8778533268576979
982,6.28229884114262e-07,1.0,2.9900500774383545,0.8778533268576979
983,6.28229884114262e-07,1.0,2.990049123764038,0.8778533268576979
984,6.246535804166342e-07,1.0,2.9900496006011963,0.8778533268576979
985,6.246535804166342e-07,1.0,2.9900500774383545,0.8778533268576979
986,6.234615170797042e-07,1.0,2.9900505542755127,0.8778533268576979
987,6.210773904058442e-07,1.0,2.99005126953125,0.8778533268576979
988,6.210773904058442e-07,1.0,2.9900522232055664,0.8778533268576979
989,6.198853270689142e-07,1.0,2.990051746368408,0.8778533268576979
990,6.186932637319842e-07,1.0,2.9900522232055664,0.8778533268576979
991,6.175012003950542e-07,1.0,2.9900524616241455,0.8778533268576979
992,6.175012003950542e-07,1.0,2.9900524616241455,0.8778533268576979
993,6.175012003950542e-07,1.0,2.990053653717041,0.8778533268576979
994,6.163090802147053e-07,1.0,2.9900543689727783,0.8778533268576979
995,6.151170168777753e-07,1.0,2.9900567531585693,0.8778533268576979
996,6.139248966974264e-07,1.0,2.990057945251465,0.8778533268576979
997,6.127328333604964e-07,1.0,2.9900598526000977,0.8778533268576979
998,6.127328333604964e-07,1.0,2.990060329437256,0.8778533268576979
999,6.103487066866364e-07,1.0,2.9900591373443604,0.8778533268576979
