,loss,recall,val_loss,val_recall
0,0.5508213639259338,0.7300000190734863,0.6084829568862915,0.6399999856948853
1,0.35199305415153503,0.8299999833106995,0.5294473171234131,0.8600000143051147
2,0.308808296918869,0.8399999737739563,0.460654079914093,0.8399999737739563
3,0.1510750651359558,0.9300000071525574,0.8978658318519592,0.36000001430511475
4,0.14861105382442474,0.9399999976158142,2.225054979324341,0.36000001430511475
5,0.1515878289937973,0.949999988079071,1.2769498825073242,0.36000001430511475
6,0.1021094024181366,0.9700000286102295,1.3986730575561523,0.36000001430511475
7,0.1381172388792038,0.9399999976158142,2.205716609954834,0.36000001430511475
8,0.08638066053390503,0.9800000190734863,2.876589059829712,0.36000001430511475
9,0.060589198023080826,0.9900000095367432,2.609224319458008,0.36000001430511475
10,0.07560571283102036,0.9800000190734863,2.7816858291625977,0.36000001430511475
11,0.08262796700000763,0.9599999785423279,3.9072442054748535,0.36000001430511475
12,0.17839592695236206,0.9200000166893005,1.461174726486206,0.3799999952316284
13,0.1535795032978058,0.9399999976158142,4.105271816253662,0.36000001430511475
14,0.10558462142944336,0.949999988079071,5.3881988525390625,0.36000001430511475
15,0.08385633677244186,0.9700000286102295,2.100562334060669,0.36000001430511475
16,0.08335734158754349,0.9800000190734863,0.9210452437400818,0.5299999713897705
17,0.031657569110393524,1.0,1.4936200380325317,0.38999998569488525
18,0.030313659459352493,1.0,1.9335178136825562,0.3700000047683716
19,0.021453574299812317,1.0,2.00409197807312,0.36000001430511475
20,0.01109776645898819,1.0,2.2842416763305664,0.3700000047683716
21,0.005704621784389019,1.0,1.9565374851226807,0.3700000047683716
22,0.02082119882106781,1.0,1.6615116596221924,0.38999998569488525
23,0.02827468141913414,0.9900000095367432,1.7137986421585083,0.38999998569488525
24,0.043894730508327484,0.9800000190734863,2.7089643478393555,0.38999998569488525
25,0.08064787089824677,0.9599999785423279,0.33560097217559814,0.8899999856948853
26,0.07517655193805695,0.9700000286102295,0.6056222319602966,0.7900000214576721
27,0.020437205210328102,1.0,0.38713374733924866,0.9100000262260437
28,0.06515748798847198,0.9700000286102295,2.049680709838867,0.4399999976158142
29,0.09652696549892426,0.9599999785423279,1.8771030902862549,0.44999998807907104
30,0.058123115450143814,0.9800000190734863,1.7662065029144287,0.44999998807907104
31,0.015656307339668274,0.9900000095367432,0.630328357219696,0.800000011920929
32,0.029558517038822174,0.9900000095367432,0.6194369792938232,0.800000011920929
33,0.037625767290592194,0.9800000190734863,0.5120521187782288,0.8399999737739563
34,0.05379278585314751,0.9800000190734863,0.3784244954586029,0.8600000143051147
35,0.07707039266824722,0.9800000190734863,0.5006206631660461,0.8199999928474426
36,0.057272568345069885,0.9800000190734863,0.40435659885406494,0.8799999952316284
37,0.06471416354179382,0.9800000190734863,0.3625323176383972,0.8799999952316284
38,0.049365196377038956,0.9800000190734863,0.5981043577194214,0.8299999833106995
39,0.03488689661026001,0.9900000095367432,0.3398118317127228,0.8799999952316284
40,0.03846847638487816,0.9900000095367432,0.47184571623802185,0.8100000023841858
41,0.02747141383588314,0.9900000095367432,0.7701898217201233,0.8199999928474426
42,0.008529233746230602,1.0,0.8244186639785767,0.8399999737739563
43,0.010937723331153393,1.0,0.4235670566558838,0.8799999952316284
44,0.010984886437654495,1.0,0.3446863889694214,0.8799999952316284
45,0.002204437740147114,1.0,0.3478865325450897,0.8899999856948853
46,0.003971526399254799,1.0,0.4069831967353821,0.8700000047683716
47,0.001944654737599194,1.0,0.44764652848243713,0.8700000047683716
48,0.0017989096231758595,1.0,0.44846901297569275,0.8700000047683716
49,0.0011887392029166222,1.0,0.42958712577819824,0.8799999952316284
50,0.006551817059516907,1.0,0.37893593311309814,0.8899999856948853
51,0.0014588423073291779,1.0,0.3554941415786743,0.8899999856948853
52,0.0018802994163706899,1.0,0.3479357063770294,0.8899999856948853
53,0.001174846664071083,1.0,0.3485974967479706,0.8999999761581421
54,0.0008903351263143122,1.0,0.3484438955783844,0.8899999856948853
55,0.0013524568639695644,1.0,0.3525221645832062,0.8899999856948853
56,0.001063980278559029,1.0,0.3540000021457672,0.8899999856948853
57,0.0006845833268016577,1.0,0.3554486930370331,0.8899999856948853
58,0.0006702504470013082,1.0,0.358001708984375,0.8899999856948853
59,0.0011934447102248669,1.0,0.36655259132385254,0.8899999856948853
60,0.0005307315150275826,1.0,0.3697373867034912,0.8899999856948853
61,0.0013755552936345339,1.0,0.36976420879364014,0.8899999856948853
62,0.002032259711995721,1.0,0.3676096796989441,0.8899999856948853
63,0.0006356305675581098,1.0,0.3673194944858551,0.8999999761581421
64,0.0002986768668051809,1.0,0.369264155626297,0.8999999761581421
65,0.0004404564097058028,1.0,0.36708563566207886,0.8999999761581421
66,0.012501073069870472,1.0,0.4078923761844635,0.8999999761581421
67,0.0026163363363593817,1.0,0.38153135776519775,0.9200000166893005
68,0.002201045397669077,1.0,0.3411027491092682,0.8899999856948853
69,0.002523086266592145,1.0,0.4405306875705719,0.8700000047683716
70,0.0020895141642540693,1.0,0.490264356136322,0.8700000047683716
71,0.0068178302608430386,1.0,0.4483310580253601,0.8799999952316284
72,0.0010154894553124905,1.0,0.47038733959198,0.8899999856948853
73,0.00039296166505664587,1.0,0.44826647639274597,0.8899999856948853
74,0.0015617056051269174,1.0,0.4369193911552429,0.8999999761581421
75,0.0003936109715141356,1.0,0.42909568548202515,0.8999999761581421
76,0.000339359074132517,1.0,0.42614173889160156,0.8999999761581421
77,0.0005883460980840027,1.0,0.4112795889377594,0.9100000262260437
78,0.001902738818898797,1.0,0.36738505959510803,0.9100000262260437
79,0.00026187236653640866,1.0,0.356184720993042,0.9100000262260437
80,0.0015718442155048251,1.0,0.3690750002861023,0.9200000166893005
81,0.001040927367284894,1.0,0.3800419569015503,0.9100000262260437
82,0.0023849455174058676,1.0,0.39366433024406433,0.8999999761581421
83,0.0004286790208425373,1.0,0.4446471929550171,0.8899999856948853
84,0.0004140716337133199,1.0,0.46704375743865967,0.8899999856948853
85,0.00031476496951654553,1.0,0.4527730643749237,0.8999999761581421
86,0.001032233121804893,1.0,0.39045649766921997,0.9100000262260437
87,0.0008159602293744683,1.0,0.3623102903366089,0.9200000166893005
88,0.0004672289651352912,1.0,0.3610374331474304,0.9200000166893005
89,0.0014595751417800784,1.0,0.35981082916259766,0.9200000166893005
90,0.00046356458915397525,1.0,0.3632117807865143,0.9300000071525574
91,0.00023857079213485122,1.0,0.37052983045578003,0.9300000071525574
92,0.00041505650733597577,1.0,0.3763335943222046,0.9200000166893005
93,0.00011597459524637088,1.0,0.38083937764167786,0.9200000166893005
94,0.0006694204639643431,1.0,0.38652855157852173,0.9100000262260437
95,0.001345164724625647,1.0,0.40008217096328735,0.9100000262260437
96,0.0003709601005539298,1.0,0.44979918003082275,0.8999999761581421
97,0.001984696602448821,1.0,0.46554648876190186,0.8999999761581421
98,0.00036057407851330936,1.0,0.4699174761772156,0.8999999761581421
99,0.0013099065981805325,1.0,0.4621436297893524,0.8999999761581421
100,0.00013340871373657137,1.0,0.45853278040885925,0.8999999761581421
101,0.00041158971725963056,1.0,0.44904133677482605,0.8999999761581421
102,0.00039967132033780217,1.0,0.4384531080722809,0.9100000262260437
103,0.00012440746650099754,1.0,0.43212825059890747,0.9100000262260437
104,0.00012983607302885503,1.0,0.4295237064361572,0.9100000262260437
105,0.001012003980576992,1.0,0.4102599620819092,0.9100000262260437
106,0.00016826903447508812,1.0,0.39523211121559143,0.9100000262260437
107,0.0016052877763286233,1.0,0.38743144273757935,0.9200000166893005
108,0.00013618609227705747,1.0,0.3757478594779968,0.9200000166893005
109,0.0018705890979617834,1.0,0.3743065595626831,0.9100000262260437
110,0.00016673306527081877,1.0,0.3779102563858032,0.9100000262260437
111,0.0001235709642060101,1.0,0.37997663021087646,0.9100000262260437
112,0.00021321259555406868,1.0,0.38029617071151733,0.9100000262260437
113,9.502230386715382e-05,1.0,0.38151565194129944,0.9100000262260437
114,0.001741214538924396,1.0,0.41279351711273193,0.9200000166893005
115,0.00022981635993346572,1.0,0.4368012547492981,0.9100000262260437
116,0.00036420871037989855,1.0,0.44351813197135925,0.9100000262260437
117,0.00028317744727246463,1.0,0.4427419900894165,0.9100000262260437
118,0.00019814334518741816,1.0,0.4382063150405884,0.9100000262260437
119,0.0010364464251324534,1.0,0.4184819757938385,0.9300000071525574
120,0.0001973607431864366,1.0,0.4130418002605438,0.9300000071525574
121,0.00011465358693385497,1.0,0.4145483076572418,0.9300000071525574
122,0.00013404479250311852,1.0,0.4169095754623413,0.9300000071525574
123,9.16293720365502e-05,1.0,0.4192318320274353,0.9300000071525574
124,7.441632624249905e-05,1.0,0.4207116961479187,0.9300000071525574
125,0.00013722649600822479,1.0,0.4233825206756592,0.9300000071525574
126,0.0016412235563620925,1.0,0.4284154176712036,0.9300000071525574
127,0.0001215656811837107,1.0,0.4308728873729706,0.9300000071525574
128,0.00012503820471465588,1.0,0.432399183511734,0.9300000071525574
129,0.00020690110977739096,1.0,0.4313969314098358,0.9300000071525574
130,0.00024781664251349866,1.0,0.4338022470474243,0.9300000071525574
131,0.00019416870782151818,1.0,0.4438868761062622,0.9200000166893005
132,0.00037584788515232503,1.0,0.44667288661003113,0.9100000262260437
133,0.0007116215419955552,1.0,0.4495934247970581,0.9100000262260437
134,0.0006049287621863186,1.0,0.49292969703674316,0.8999999761581421
135,0.00015774928033351898,1.0,0.498432457447052,0.8999999761581421
136,0.0005104222800582647,1.0,0.4963342547416687,0.8999999761581421
137,0.00018307572463527322,1.0,0.4937610626220703,0.8999999761581421
138,0.0007514198077842593,1.0,0.44669249653816223,0.9100000262260437
139,0.0002676270960364491,1.0,0.4407811760902405,0.9200000166893005
140,0.0002093322400469333,1.0,0.4414746165275574,0.9200000166893005
141,9.264810068998486e-05,1.0,0.4449581205844879,0.9200000166893005
142,0.0002706902159843594,1.0,0.44744181632995605,0.9100000262260437
143,0.0008850658196024597,1.0,0.44790107011795044,0.9100000262260437
144,8.697508019395173e-05,1.0,0.4507657587528229,0.9100000262260437
145,0.00022567222185898572,1.0,0.4515882134437561,0.9100000262260437
146,5.842497921548784e-05,1.0,0.4521419405937195,0.9100000262260437
147,6.192894943524152e-05,1.0,0.4520455300807953,0.9200000166893005
148,0.00017630093498155475,1.0,0.45047470927238464,0.9100000262260437
149,0.0002134697133442387,1.0,0.44904398918151855,0.9100000262260437
150,0.00010984225082211196,1.0,0.44784224033355713,0.9100000262260437
151,0.0003059186856262386,1.0,0.45007988810539246,0.9100000262260437
152,0.00014563894364982843,1.0,0.45174017548561096,0.9100000262260437
153,0.0006213751621544361,1.0,0.4504131078720093,0.9100000262260437
154,0.0005196323036216199,1.0,0.4489492177963257,0.9100000262260437
155,4.8359786887886e-05,1.0,0.4456475079059601,0.9100000262260437
156,0.0001576804497744888,1.0,0.4453480839729309,0.9100000262260437
157,0.00011496427759993821,1.0,0.44481223821640015,0.9100000262260437
158,3.785035733017139e-05,1.0,0.44421982765197754,0.9100000262260437
159,0.0002343379019293934,1.0,0.4438456594944,0.9100000262260437
160,0.00018943779286928475,1.0,0.44477471709251404,0.9100000262260437
161,0.0004953978932462633,1.0,0.44542038440704346,0.9100000262260437
162,4.884533700533211e-05,1.0,0.44738444685935974,0.9100000262260437
163,8.22610963950865e-05,1.0,0.4483976662158966,0.9100000262260437
164,6.588517862837762e-05,1.0,0.4490409195423126,0.9200000166893005
165,0.00010062487854156643,1.0,0.4500705301761627,0.9200000166893005
166,0.0002427154831821099,1.0,0.45277413725852966,0.9100000262260437
167,9.110123210120946e-05,1.0,0.4539654552936554,0.9100000262260437
168,0.00022193987388163805,1.0,0.45313894748687744,0.9100000262260437
169,0.0001585791469551623,1.0,0.45122525095939636,0.9100000262260437
170,7.442115020239726e-05,1.0,0.4504890441894531,0.9200000166893005
171,6.569870311068371e-05,1.0,0.4498971700668335,0.9200000166893005
172,0.00011400461517041549,1.0,0.44881951808929443,0.9200000166893005
173,0.00017750203551258892,1.0,0.44791072607040405,0.9200000166893005
174,0.00011436318891355768,1.0,0.44848862290382385,0.9200000166893005
175,0.0001681231369730085,1.0,0.4484480917453766,0.9200000166893005
176,0.0004561665409710258,1.0,0.45225846767425537,0.9200000166893005
177,6.620393833145499e-05,1.0,0.4561951160430908,0.9200000166893005
178,0.0005106671014800668,1.0,0.4613032639026642,0.9100000262260437
179,7.05100828781724e-05,1.0,0.4695374369621277,0.9100000262260437
180,7.490975986002013e-05,1.0,0.4714289605617523,0.9100000262260437
181,0.00012411861098371446,1.0,0.47079741954803467,0.9100000262260437
182,0.0001030479179462418,1.0,0.4674713909626007,0.9100000262260437
183,0.00014875497436150908,1.0,0.4629707634449005,0.9100000262260437
184,0.0002724468940868974,1.0,0.46157532930374146,0.9100000262260437
185,8.956775855040178e-05,1.0,0.4599776864051819,0.9100000262260437
186,2.9267068384797312e-05,1.0,0.45868632197380066,0.9200000166893005
187,0.0010598551016300917,1.0,0.4589773416519165,0.9100000262260437
188,0.0004652698989957571,1.0,0.4643476903438568,0.9100000262260437
189,0.0001169234310509637,1.0,0.46534788608551025,0.9100000262260437
190,0.00015202717622742057,1.0,0.4629441797733307,0.9100000262260437
191,0.0002470703620929271,1.0,0.46887505054473877,0.9100000262260437
192,0.00010556676716078073,1.0,0.4694187045097351,0.9100000262260437
193,5.971588325337507e-05,1.0,0.4678153991699219,0.9100000262260437
194,3.537140219123103e-05,1.0,0.46623489260673523,0.9100000262260437
195,6.658339407294989e-05,1.0,0.46531277894973755,0.9100000262260437
196,0.0001333819527644664,1.0,0.46279585361480713,0.9100000262260437
197,5.472364864544943e-05,1.0,0.46079444885253906,0.9100000262260437
198,6.710614252369851e-05,1.0,0.4597257673740387,0.9100000262260437
199,4.5893859351053834e-05,1.0,0.4597429037094116,0.9100000262260437
200,0.0004281793662812561,1.0,0.460632860660553,0.9100000262260437
201,0.00032636552350595593,1.0,0.46354350447654724,0.9100000262260437
202,0.0001515693438705057,1.0,0.4656817317008972,0.9100000262260437
203,8.517133392160758e-05,1.0,0.46549561619758606,0.9100000262260437
204,0.0004548541037365794,1.0,0.46346649527549744,0.9100000262260437
205,0.00015482112939935178,1.0,0.4611087143421173,0.9100000262260437
206,5.1450697355903685e-05,1.0,0.4603806436061859,0.9100000262260437
207,7.456904859282076e-05,1.0,0.4602244198322296,0.9100000262260437
208,0.0005934913060627878,1.0,0.4630139172077179,0.9100000262260437
209,0.00017812101577874273,1.0,0.4646672010421753,0.9100000262260437
210,0.00040817566332407296,1.0,0.46633994579315186,0.9100000262260437
211,0.00043009291402995586,1.0,0.47038787603378296,0.9100000262260437
212,7.575718336738646e-05,1.0,0.47096264362335205,0.9100000262260437
213,4.271534635336138e-05,1.0,0.46993470191955566,0.9100000262260437
214,3.9673228457104415e-05,1.0,0.46885883808135986,0.9100000262260437
215,0.00010289851343259215,1.0,0.46792107820510864,0.9100000262260437
216,0.00018812244525179267,1.0,0.46796074509620667,0.9100000262260437
217,6.807443423895165e-05,1.0,0.4692430794239044,0.9100000262260437
218,0.0005648231599479914,1.0,0.4577101767063141,0.9200000166893005
219,8.305451774504036e-05,1.0,0.44964665174484253,0.9200000166893005
220,0.00031552082509733737,1.0,0.44948458671569824,0.9200000166893005
221,6.99616430210881e-05,1.0,0.45465728640556335,0.9200000166893005
222,7.313816604437307e-05,1.0,0.45594465732574463,0.9200000166893005
223,0.00016443125787191093,1.0,0.4561295211315155,0.9200000166893005
224,0.00022826877830084413,1.0,0.4561830759048462,0.9200000166893005
225,0.0007073270389810205,1.0,0.45706287026405334,0.9200000166893005
226,0.0001662011054577306,1.0,0.4565381705760956,0.9200000166893005
227,9.840881102718413e-05,1.0,0.4565526247024536,0.9200000166893005
228,0.0006023692549206316,1.0,0.4569321572780609,0.9200000166893005
229,0.00020196136028971523,1.0,0.4571610391139984,0.9200000166893005
230,7.818535959813744e-05,1.0,0.4580638110637665,0.9200000166893005
231,0.0002210436505265534,1.0,0.4600517749786377,0.9200000166893005
232,3.5281125747133046e-05,1.0,0.46022146940231323,0.9200000166893005
233,0.000228698700084351,1.0,0.4592282176017761,0.9200000166893005
234,5.740277993027121e-05,1.0,0.4589400589466095,0.9200000166893005
235,0.00020513735944405198,1.0,0.4594879150390625,0.9200000166893005
236,8.660063031129539e-05,1.0,0.46179187297821045,0.9200000166893005
237,0.00012480869190767407,1.0,0.46082252264022827,0.9200000166893005
238,0.00019029443501494825,1.0,0.4616377353668213,0.9200000166893005
239,7.27070655557327e-05,1.0,0.46124571561813354,0.9200000166893005
240,4.661355342250317e-05,1.0,0.46087539196014404,0.9200000166893005
241,2.4954231776064262e-05,1.0,0.4605664312839508,0.9200000166893005
242,8.478056406602263e-05,1.0,0.460854709148407,0.9200000166893005
243,0.0005017378134652972,1.0,0.4578905403614044,0.9200000166893005
244,5.390640944824554e-05,1.0,0.45730963349342346,0.9200000166893005
245,0.00010515849135117605,1.0,0.45719391107559204,0.9200000166893005
246,0.0002633121912367642,1.0,0.45784318447113037,0.9200000166893005
247,0.0002745081437751651,1.0,0.4599462151527405,0.9200000166893005
248,0.0001415213046129793,1.0,0.46062833070755005,0.9200000166893005
249,0.0001090302539523691,1.0,0.4608292877674103,0.9200000166893005
250,6.472014501923695e-05,1.0,0.4612747132778168,0.9200000166893005
251,3.489744267426431e-05,1.0,0.4614773988723755,0.9200000166893005
252,5.3072064474690706e-05,1.0,0.4618617296218872,0.9200000166893005
253,6.079386002966203e-05,1.0,0.4621766209602356,0.9200000166893005
254,9.534617856843397e-05,1.0,0.46264874935150146,0.9200000166893005
255,6.08193913649302e-05,1.0,0.4628905951976776,0.9200000166893005
256,6.381983985193074e-05,1.0,0.46314120292663574,0.9200000166893005
257,0.000398829608457163,1.0,0.46373602747917175,0.9200000166893005
258,0.00030765458359383047,1.0,0.46424639225006104,0.9200000166893005
259,8.038866508286446e-05,1.0,0.46363940834999084,0.9200000166893005
260,0.0001402662746841088,1.0,0.4640273153781891,0.9200000166893005
261,7.054667366901413e-05,1.0,0.46409186720848083,0.9200000166893005
262,3.349238249938935e-05,1.0,0.464396595954895,0.9200000166893005
263,7.782572356518358e-05,1.0,0.4646572768688202,0.9200000166893005
264,0.00025979234487749636,1.0,0.4649815261363983,0.9200000166893005
265,0.0005250735557638109,1.0,0.46512794494628906,0.9200000166893005
266,0.00017316939192824066,1.0,0.4620822072029114,0.9200000166893005
267,0.0002162248856620863,1.0,0.46011459827423096,0.9200000166893005
268,1.843031532189343e-05,1.0,0.4589501619338989,0.9200000166893005
269,6.516536086564884e-05,1.0,0.4588266611099243,0.9200000166893005
270,4.3579242628766224e-05,1.0,0.4587952494621277,0.9200000166893005
271,6.96473362040706e-05,1.0,0.4589896500110626,0.9200000166893005
272,3.259550794609822e-05,1.0,0.45927780866622925,0.9200000166893005
273,3.5533434129320085e-05,1.0,0.45949313044548035,0.9200000166893005
274,0.00025760545395314693,1.0,0.4601786136627197,0.9200000166893005
275,8.535757660865784e-05,1.0,0.4603053033351898,0.9200000166893005
276,2.5720210032886826e-05,1.0,0.46026611328125,0.9200000166893005
277,0.0002558742417022586,1.0,0.4604112505912781,0.9200000166893005
278,2.450588181091007e-05,1.0,0.4604390859603882,0.9200000166893005
279,0.0005960380658507347,1.0,0.4588626027107239,0.9200000166893005
280,0.00023573570069856942,1.0,0.458217591047287,0.9200000166893005
281,8.365415123989806e-05,1.0,0.4589442014694214,0.9200000166893005
282,0.00025264156283810735,1.0,0.4609619081020355,0.9200000166893005
283,0.0006990008987486362,1.0,0.4554756283760071,0.9200000166893005
284,4.2414903873577714e-05,1.0,0.45474493503570557,0.9200000166893005
285,0.00010988808935508132,1.0,0.4557770788669586,0.9200000166893005
286,0.00012161066842963919,1.0,0.45698508620262146,0.9200000166893005
287,1.644922849663999e-05,1.0,0.457437664270401,0.9200000166893005
288,0.000393012713175267,1.0,0.45962998270988464,0.9200000166893005
289,0.0002931267663370818,1.0,0.46117547154426575,0.9200000166893005
290,5.477013473864645e-05,1.0,0.46039554476737976,0.9200000166893005
291,5.0406521040713415e-05,1.0,0.4604453146457672,0.9200000166893005
292,4.363111293059774e-05,1.0,0.4608982503414154,0.9200000166893005
293,8.480521501041949e-05,1.0,0.4616352915763855,0.9200000166893005
294,5.2776853408431634e-05,1.0,0.4620198905467987,0.9200000166893005
295,0.00023513221822213382,1.0,0.4632316529750824,0.9200000166893005
296,7.685518357902765e-05,1.0,0.4653073251247406,0.9200000166893005
297,0.000227822718443349,1.0,0.46771469712257385,0.9200000166893005
298,8.062087727012113e-05,1.0,0.4688533842563629,0.9200000166893005
299,8.647412323625758e-05,1.0,0.4689840078353882,0.9200000166893005
300,0.002350117778405547,1.0,0.4645293056964874,0.9200000166893005
301,0.00044262956362217665,1.0,0.44734305143356323,0.9200000166893005
302,8.132416405715048e-05,1.0,0.4416525363922119,0.9200000166893005
303,2.291193050041329e-05,1.0,0.43947723507881165,0.9200000166893005
304,5.9996214986313134e-05,1.0,0.4387088716030121,0.9200000166893005
305,9.790544572751969e-05,1.0,0.43960830569267273,0.9200000166893005
306,0.00028530904091894627,1.0,0.44240227341651917,0.9200000166893005
307,3.0091248845565133e-05,1.0,0.44325873255729675,0.9200000166893005
308,0.0003616329049691558,1.0,0.44379493594169617,0.9200000166893005
309,0.0005268820095807314,1.0,0.4463133215904236,0.9200000166893005
310,3.851118526654318e-05,1.0,0.4493563175201416,0.9200000166893005
311,0.00011654933769023046,1.0,0.44951385259628296,0.9200000166893005
312,6.840990681666881e-05,1.0,0.44909629225730896,0.9200000166893005
313,4.548309516394511e-05,1.0,0.448607861995697,0.9200000166893005
314,0.00012017987319268286,1.0,0.44959357380867004,0.9200000166893005
315,3.0344384867930785e-05,1.0,0.44954439997673035,0.9200000166893005
316,0.0001734322722768411,1.0,0.4500390589237213,0.9200000166893005
317,0.00010796164133353159,1.0,0.45021265745162964,0.9200000166893005
318,0.00019566144328564405,1.0,0.4505063593387604,0.9200000166893005
319,0.0002908086171373725,1.0,0.45092669129371643,0.9200000166893005
320,2.660485370142851e-05,1.0,0.45044827461242676,0.9200000166893005
321,0.00012587392120622098,1.0,0.45092886686325073,0.9200000166893005
322,4.619380342774093e-05,1.0,0.4512059688568115,0.9200000166893005
323,8.259205787908286e-05,1.0,0.4516330659389496,0.9200000166893005
324,0.0006538311135955155,1.0,0.45210084319114685,0.9200000166893005
325,0.00037733197677880526,1.0,0.4550432860851288,0.9200000166893005
326,0.0004058404010720551,1.0,0.45705851912498474,0.9200000166893005
327,0.00010234809451503679,1.0,0.45623353123664856,0.9200000166893005
328,2.767178011708893e-05,1.0,0.4554874897003174,0.9200000166893005
329,2.3739143216516823e-05,1.0,0.45528504252433777,0.9200000166893005
330,2.2215937860892154e-05,1.0,0.45515525341033936,0.9200000166893005
331,0.00044507443089969456,1.0,0.4527278244495392,0.9200000166893005
332,7.077990449033678e-05,1.0,0.45080962777137756,0.9200000166893005
333,0.00014495532377623022,1.0,0.4512573182582855,0.9300000071525574
334,5.6926204706542194e-05,1.0,0.4512020945549011,0.9200000166893005
335,3.3168118534376845e-05,1.0,0.45175325870513916,0.9200000166893005
336,2.5019440727191977e-05,1.0,0.4524006247520447,0.9200000166893005
337,5.689516547136009e-05,1.0,0.45315906405448914,0.9200000166893005
338,2.2004949641996063e-05,1.0,0.4536373019218445,0.9200000166893005
339,2.463205237290822e-05,1.0,0.45384693145751953,0.9200000166893005
340,9.969878738047555e-05,1.0,0.45522812008857727,0.9200000166893005
341,0.00017347594257444143,1.0,0.45619669556617737,0.9200000166893005
342,3.9315345929935575e-05,1.0,0.45791178941726685,0.9200000166893005
343,0.0004140356322750449,1.0,0.4527626931667328,0.9200000166893005
344,4.571602039504796e-05,1.0,0.449308305978775,0.9200000166893005
345,7.286929030669853e-05,1.0,0.4493623673915863,0.9200000166893005
346,2.2270591216511093e-05,1.0,0.44964268803596497,0.9200000166893005
347,3.264467159169726e-05,1.0,0.45020902156829834,0.9200000166893005
348,3.91111898352392e-05,1.0,0.4508712887763977,0.9200000166893005
349,1.8075214029522613e-05,1.0,0.45137110352516174,0.9200000166893005
350,0.00028133808518759906,1.0,0.4559002220630646,0.9200000166893005
351,0.00013121495430823416,1.0,0.4628622829914093,0.9200000166893005
352,0.00033934591920115054,1.0,0.46564945578575134,0.9200000166893005
353,4.945849650539458e-05,1.0,0.46628981828689575,0.9200000166893005
354,0.0003407345211599022,1.0,0.4667333960533142,0.9200000166893005
355,3.651931183412671e-05,1.0,0.4659954905509949,0.9200000166893005
356,2.9594701118185185e-05,1.0,0.4647464454174042,0.9200000166893005
357,6.933984695933759e-05,1.0,0.4636192321777344,0.9200000166893005
358,0.0003520000318530947,1.0,0.464558482170105,0.9200000166893005
359,8.271005208371207e-05,1.0,0.4646296799182892,0.9200000166893005
360,0.00019616138888522983,1.0,0.46381109952926636,0.9200000166893005
361,0.00018653528240974993,1.0,0.46482422947883606,0.9200000166893005
362,0.00024268956622108817,1.0,0.4650416672229767,0.9200000166893005
363,2.454376226523891e-05,1.0,0.46403855085372925,0.9200000166893005
364,0.0003428591007832438,1.0,0.46547162532806396,0.9200000166893005
365,4.7807538066990674e-05,1.0,0.4657798409461975,0.9200000166893005
366,3.6039211408933625e-05,1.0,0.4654935598373413,0.9200000166893005
367,8.133016672218218e-05,1.0,0.46537014842033386,0.9200000166893005
368,0.00010439630568725988,1.0,0.4651694893836975,0.9200000166893005
369,6.57538475934416e-05,1.0,0.4645758867263794,0.9200000166893005
370,2.8253351047169417e-05,1.0,0.4641761779785156,0.9200000166893005
371,1.6313351807184517e-05,1.0,0.463897705078125,0.9200000166893005
372,6.482317257905379e-05,1.0,0.4636482894420624,0.9200000166893005
373,0.00024261228099931031,1.0,0.4650561511516571,0.9200000166893005
374,9.614607552066445e-05,1.0,0.4657125174999237,0.9200000166893005
375,8.553436782676727e-05,1.0,0.46585890650749207,0.9200000166893005
376,9.163458162220195e-05,1.0,0.46643614768981934,0.9200000166893005
377,2.086389395117294e-05,1.0,0.4663841724395752,0.9200000166893005
378,0.00013264472363516688,1.0,0.4665009379386902,0.9200000166893005
379,0.000147558530443348,1.0,0.4679509997367859,0.9200000166893005
380,0.0011657746508717537,1.0,0.45987266302108765,0.9300000071525574
381,0.00023001161753199995,1.0,0.45954713225364685,0.9300000071525574
382,7.092407759046182e-05,1.0,0.45979106426239014,0.9300000071525574
383,4.1163824789691716e-05,1.0,0.46055737137794495,0.9300000071525574
384,8.501931733917445e-05,1.0,0.46205008029937744,0.9300000071525574
385,0.00012282891839277,1.0,0.4630611538887024,0.9300000071525574
386,0.0001098868451663293,1.0,0.4630928039550781,0.9300000071525574
387,0.0002462390693835914,1.0,0.4641014039516449,0.9300000071525574
388,2.490636870788876e-05,1.0,0.464863121509552,0.9300000071525574
389,0.00017219882283825427,1.0,0.46374931931495667,0.9300000071525574
390,8.682444604346529e-05,1.0,0.4636077880859375,0.9300000071525574
391,4.0802227886160836e-05,1.0,0.46441271901130676,0.9300000071525574
392,0.0003706484567373991,1.0,0.46448177099227905,0.9300000071525574
393,8.431438618572429e-05,1.0,0.46386536955833435,0.9300000071525574
394,8.214997797040269e-05,1.0,0.46456632018089294,0.9300000071525574
395,4.409096800372936e-05,1.0,0.4652508497238159,0.9300000071525574
396,0.0003971025289501995,1.0,0.47755518555641174,0.9300000071525574
397,3.374417428858578e-05,1.0,0.4811229705810547,0.9300000071525574
398,4.895257734460756e-05,1.0,0.48125556111335754,0.9300000071525574
399,0.00015348703891504556,1.0,0.4798518419265747,0.9300000071525574
400,0.00022880808683112264,1.0,0.47842901945114136,0.9300000071525574
401,2.816964843077585e-05,1.0,0.4795263707637787,0.9300000071525574
402,1.5160604561970104e-05,1.0,0.4791930913925171,0.9300000071525574
403,5.438653897726908e-05,1.0,0.4787195920944214,0.9300000071525574
404,6.253378523979336e-05,1.0,0.4779120683670044,0.9300000071525574
405,4.984064071322791e-05,1.0,0.4769420921802521,0.9300000071525574
406,0.0003704761038534343,1.0,0.47933250665664673,0.9300000071525574
407,3.1221003155224025e-05,1.0,0.48504674434661865,0.9200000166893005
408,3.650134021881968e-05,1.0,0.48602837324142456,0.9200000166893005
409,0.00014082874986343086,1.0,0.48451855778694153,0.9200000166893005
410,3.5529505112208426e-05,1.0,0.4806973934173584,0.9200000166893005
411,2.430180029477924e-05,1.0,0.47851142287254333,0.9200000166893005
412,8.585047908127308e-05,1.0,0.4764619469642639,0.9200000166893005
413,3.666540214908309e-05,1.0,0.4755464792251587,0.9200000166893005
414,1.9569914002204314e-05,1.0,0.4746672511100769,0.9200000166893005
415,5.04229792568367e-05,1.0,0.4743537902832031,0.9200000166893005
416,4.565371636999771e-05,1.0,0.4741381108760834,0.9200000166893005
417,4.02574660256505e-05,1.0,0.4748310446739197,0.9200000166893005
418,0.00017964819562621415,1.0,0.4802779257297516,0.9200000166893005
419,2.705434599192813e-05,1.0,0.4823840856552124,0.9200000166893005
420,2.9600183552247472e-05,1.0,0.48205745220184326,0.9200000166893005
421,2.3762926502968185e-05,1.0,0.4813700020313263,0.9200000166893005
422,3.878392817568965e-05,1.0,0.4808206260204315,0.9200000166893005
423,6.646358087891713e-05,1.0,0.47940605878829956,0.9200000166893005
424,3.6023222492076457e-05,1.0,0.47833526134490967,0.9200000166893005
425,0.000383852981030941,1.0,0.47202277183532715,0.9200000166893005
426,7.650979387108237e-05,1.0,0.4679977297782898,0.9200000166893005
427,0.00015679706120863557,1.0,0.4682091772556305,0.9200000166893005
428,9.209595737047493e-05,1.0,0.4674885869026184,0.9200000166893005
429,0.00014731974806636572,1.0,0.46679556369781494,0.9200000166893005
430,8.44189926283434e-05,1.0,0.4668770134449005,0.9200000166893005
431,0.0001861562195699662,1.0,0.46712052822113037,0.9200000166893005
432,0.00012326646537985653,1.0,0.46958741545677185,0.9200000166893005
433,0.00010980616207234561,1.0,0.468995600938797,0.9200000166893005
434,1.310061907133786e-05,1.0,0.4676113426685333,0.9200000166893005
435,4.216112574795261e-05,1.0,0.46769478917121887,0.9200000166893005
436,2.5456989533267915e-05,1.0,0.4677730202674866,0.9200000166893005
437,3.949020174331963e-05,1.0,0.4683278799057007,0.9200000166893005
438,2.260586916236207e-05,1.0,0.46853965520858765,0.9200000166893005
439,6.669893627986312e-05,1.0,0.4689234793186188,0.9200000166893005
440,0.0001612599880900234,1.0,0.4712733328342438,0.9200000166893005
441,7.781617023283616e-05,1.0,0.4716469645500183,0.9200000166893005
442,3.437159466557205e-05,1.0,0.4709208011627197,0.9200000166893005
443,1.9636088836705312e-05,1.0,0.4704393148422241,0.9200000166893005
444,2.020379906753078e-05,1.0,0.469969242811203,0.9200000166893005
445,3.6945537431165576e-05,1.0,0.4699682593345642,0.9200000166893005
446,0.0003827097243629396,1.0,0.47178542613983154,0.9200000166893005
447,7.854578871047124e-05,1.0,0.47298240661621094,0.9200000166893005
448,0.00021400171681307256,1.0,0.4747391641139984,0.9200000166893005
449,0.00016728308401070535,1.0,0.47566962242126465,0.9200000166893005
450,0.00018438058032188565,1.0,0.47731292247772217,0.9200000166893005
451,2.1774585547973402e-05,1.0,0.4804975092411041,0.9200000166893005
452,0.0004563697148114443,1.0,0.4827057123184204,0.9200000166893005
453,3.010071668541059e-05,1.0,0.49069297313690186,0.9200000166893005
454,5.800126018584706e-05,1.0,0.4917805790901184,0.9200000166893005
455,4.285552495275624e-05,1.0,0.49072787165641785,0.9200000166893005
456,0.0002453742199577391,1.0,0.4921710193157196,0.9200000166893005
457,0.002888597548007965,1.0,0.39915168285369873,0.9300000071525574
458,0.0003276989154983312,1.0,0.41452834010124207,0.9200000166893005
459,0.004405979532748461,1.0,0.4227145314216614,0.9200000166893005
460,0.0008040917455218732,1.0,0.6015328764915466,0.8999999761581421
461,0.001174538629129529,1.0,0.5922836065292358,0.8899999856948853
462,0.00030703359516337514,1.0,0.5952127575874329,0.8799999952316284
463,0.00032616566750220954,1.0,0.5928778052330017,0.8799999952316284
464,0.001125590642914176,1.0,0.5838078856468201,0.8799999952316284
465,0.0006905898917466402,1.0,0.5806573629379272,0.8799999952316284
466,0.00036721426295116544,1.0,0.5718228220939636,0.8799999952316284
467,7.207119051599875e-05,1.0,0.5522415637969971,0.8799999952316284
468,0.00012887982302345335,1.0,0.5437159538269043,0.8899999856948853
469,0.0005840490339323878,1.0,0.524350106716156,0.8899999856948853
470,0.00018782839470077306,1.0,0.5087448358535767,0.8999999761581421
471,8.302692003780976e-05,1.0,0.501609206199646,0.9100000262260437
472,9.326662257080898e-05,1.0,0.4983766973018646,0.9100000262260437
473,6.416086398530751e-05,1.0,0.49620750546455383,0.9100000262260437
474,0.00022851205721963197,1.0,0.4960865378379822,0.9100000262260437
475,0.00037649425212293863,1.0,0.4968791604042053,0.9100000262260437
476,6.29192654741928e-05,1.0,0.4996832311153412,0.9100000262260437
477,7.603019184898585e-05,1.0,0.500531017780304,0.9100000262260437
478,4.988282307749614e-05,1.0,0.49877864122390747,0.9100000262260437
479,6.32291630608961e-05,1.0,0.4957094192504883,0.9100000262260437
480,0.0004902565851807594,1.0,0.4924509525299072,0.9100000262260437
481,5.6208722526207566e-05,1.0,0.49062618613243103,0.9100000262260437
482,0.0004066632245667279,1.0,0.48797932267189026,0.9100000262260437
483,9.262592357117683e-05,1.0,0.4858616590499878,0.9100000262260437
484,0.00025087984977290034,1.0,0.4819839596748352,0.9100000262260437
485,4.819613241124898e-05,1.0,0.477456271648407,0.9100000262260437
486,8.502212585881352e-05,1.0,0.4776464104652405,0.9100000262260437
487,7.079690840328112e-05,1.0,0.47834545373916626,0.9100000262260437
488,5.5846689065219834e-05,1.0,0.4794437885284424,0.9100000262260437
489,0.0001433760771760717,1.0,0.4812951385974884,0.9100000262260437
490,5.5269549193326384e-05,1.0,0.4831598997116089,0.9100000262260437
491,0.00021222040231805295,1.0,0.48569655418395996,0.9100000262260437
492,9.233625314664096e-05,1.0,0.4900275468826294,0.9100000262260437
493,0.00011148858902743086,1.0,0.48917895555496216,0.9100000262260437
494,4.796384382643737e-05,1.0,0.4886738061904907,0.9100000262260437
495,4.302514571463689e-05,1.0,0.4886096119880676,0.9100000262260437
496,0.000190363556612283,1.0,0.4839591979980469,0.9100000262260437
497,0.00014212988025974482,1.0,0.4820619821548462,0.9100000262260437
498,7.953677413752303e-05,1.0,0.4825163185596466,0.9100000262260437
499,5.328403858584352e-05,1.0,0.4834548234939575,0.9100000262260437
500,7.672964420635253e-05,1.0,0.48431023955345154,0.9100000262260437
501,0.0005621566087938845,1.0,0.4937351942062378,0.9100000262260437
502,4.8420879465993494e-05,1.0,0.5111936926841736,0.9100000262260437
503,4.196704685455188e-05,1.0,0.5138540863990784,0.9100000262260437
504,4.446663297130726e-05,1.0,0.5107716917991638,0.9100000262260437
505,2.9069169613649137e-05,1.0,0.5067737102508545,0.9100000262260437
506,7.589869346702471e-05,1.0,0.5012999773025513,0.9100000262260437
507,0.0003382603754289448,1.0,0.49893006682395935,0.9100000262260437
508,9.076094283955172e-05,1.0,0.49728819727897644,0.9100000262260437
509,5.0352482503512874e-05,1.0,0.4959716796875,0.9100000262260437
510,5.640525705530308e-05,1.0,0.4942130148410797,0.9100000262260437
511,0.00011018570512533188,1.0,0.4934641122817993,0.9100000262260437
512,0.00015003384032752365,1.0,0.4909769296646118,0.9100000262260437
513,0.0003943616757169366,1.0,0.48783257603645325,0.9100000262260437
514,4.6783861762378365e-05,1.0,0.4843333959579468,0.9100000262260437
515,0.00023875619808677584,1.0,0.4753766655921936,0.9100000262260437
516,9.713207691675052e-05,1.0,0.47264769673347473,0.9100000262260437
517,0.0001997479994315654,1.0,0.4716441333293915,0.9100000262260437
518,0.00034056208096444607,1.0,0.47853875160217285,0.9100000262260437
519,2.5027071387739852e-05,1.0,0.4927748739719391,0.9100000262260437
520,0.0001025110759655945,1.0,0.49711549282073975,0.9100000262260437
521,2.5891580662573688e-05,1.0,0.49756184220314026,0.9100000262260437
522,0.00015678895579185337,1.0,0.49868202209472656,0.9100000262260437
523,2.8038693926646374e-05,1.0,0.5009710192680359,0.9100000262260437
524,1.285752296098508e-05,1.0,0.5009549856185913,0.9100000262260437
525,0.00010181112884311005,1.0,0.5010953545570374,0.9100000262260437
526,0.00010760940494947135,1.0,0.5008934736251831,0.9100000262260437
527,0.00019195325148757547,1.0,0.49644890427589417,0.9100000262260437
528,3.832500442513265e-05,1.0,0.4940674602985382,0.9100000262260437
529,3.057986396015622e-05,1.0,0.4930906593799591,0.9100000262260437
530,0.0003301235265098512,1.0,0.4919307827949524,0.9100000262260437
531,0.0003520273312460631,1.0,0.4862174987792969,0.9100000262260437
532,3.678732900880277e-05,1.0,0.4818721115589142,0.9100000262260437
533,7.614060450578108e-05,1.0,0.4811965227127075,0.9100000262260437
534,5.532978684641421e-05,1.0,0.4814128875732422,0.9100000262260437
535,7.862048369133845e-05,1.0,0.4816439747810364,0.9100000262260437
536,3.96710165659897e-05,1.0,0.48083069920539856,0.9100000262260437
537,4.602534681907855e-05,1.0,0.4809299409389496,0.9100000262260437
538,2.1321431631804444e-05,1.0,0.4815276861190796,0.9100000262260437
539,5.6716591643635184e-05,1.0,0.481514573097229,0.9100000262260437
540,1.637242348806467e-05,1.0,0.4810314178466797,0.9100000262260437
541,2.945470805570949e-05,1.0,0.4813963770866394,0.9100000262260437
542,3.4773824154399335e-05,1.0,0.481869101524353,0.9100000262260437
543,3.196660691173747e-05,1.0,0.48211658000946045,0.9100000262260437
544,0.00038011581636965275,1.0,0.48487594723701477,0.9100000262260437
545,0.00021731382003054023,1.0,0.48531487584114075,0.9100000262260437
546,0.00025334605015814304,1.0,0.4845181703567505,0.9100000262260437
547,0.00019951682770624757,1.0,0.48174598813056946,0.9100000262260437
548,0.00014988095790613443,1.0,0.47865647077560425,0.9100000262260437
549,5.171268276171759e-05,1.0,0.47908562421798706,0.9100000262260437
550,8.537116809748113e-05,1.0,0.4819057583808899,0.9100000262260437
551,0.00011044069105992094,1.0,0.4833197295665741,0.9100000262260437
552,1.6292849977617152e-05,1.0,0.48480185866355896,0.9100000262260437
553,0.0003522495971992612,1.0,0.4874643385410309,0.9100000262260437
554,4.864631046075374e-05,1.0,0.4955381453037262,0.9100000262260437
555,2.5788231141632423e-05,1.0,0.4974272549152374,0.9100000262260437
556,0.00020481302635744214,1.0,0.4993572235107422,0.9100000262260437
557,4.9573969590710476e-05,1.0,0.4988537132740021,0.9100000262260437
558,0.00011339317279634997,1.0,0.49897170066833496,0.9100000262260437
559,3.203247251803987e-05,1.0,0.49840018153190613,0.9100000262260437
560,2.523496550566051e-05,1.0,0.49607032537460327,0.9100000262260437
561,6.74543043714948e-05,1.0,0.4943496286869049,0.9100000262260437
562,5.772285658167675e-05,1.0,0.49230316281318665,0.9100000262260437
563,2.5509749320917763e-05,1.0,0.4912813603878021,0.9100000262260437
564,2.479969225532841e-05,1.0,0.4906611740589142,0.9100000262260437
565,2.2481581254396588e-05,1.0,0.48987969756126404,0.9100000262260437
566,1.8822129277396016e-05,1.0,0.4894272983074188,0.9100000262260437
567,0.0003421857545617968,1.0,0.48370200395584106,0.9100000262260437
568,0.0002455629874020815,1.0,0.4761674404144287,0.9100000262260437
569,3.384377123438753e-05,1.0,0.4747903347015381,0.9100000262260437
570,5.477009835885838e-05,1.0,0.4749888479709625,0.9100000262260437
571,2.4018232579692267e-05,1.0,0.47494012117385864,0.9100000262260437
572,4.428513420862146e-05,1.0,0.4756569564342499,0.9100000262260437
573,4.818303568754345e-05,1.0,0.4761424958705902,0.9100000262260437
574,2.455380672472529e-05,1.0,0.4760822653770447,0.9100000262260437
575,6.0017340729245916e-05,1.0,0.4755709767341614,0.9100000262260437
576,0.00010104165266966447,1.0,0.47850939631462097,0.9100000262260437
577,2.666411455720663e-05,1.0,0.4794931411743164,0.9100000262260437
578,6.1396713135764e-05,1.0,0.48063644766807556,0.9100000262260437
579,6.430024950532243e-05,1.0,0.48051369190216064,0.9100000262260437
580,5.6501583458157256e-05,1.0,0.48078209161758423,0.9100000262260437
581,0.00012431512004695833,1.0,0.48584437370300293,0.9100000262260437
582,2.6469508156878874e-05,1.0,0.48816290497779846,0.9100000262260437
583,3.423087400733493e-05,1.0,0.48968344926834106,0.9100000262260437
584,0.0007436980376951396,1.0,0.4864933490753174,0.9100000262260437
585,8.461333891318645e-06,1.0,0.4686671197414398,0.9200000166893005
586,4.3977339373668656e-05,1.0,0.4648347496986389,0.9200000166893005
587,5.249779496807605e-05,1.0,0.4657905101776123,0.9200000166893005
588,4.376423385110684e-05,1.0,0.46968674659729004,0.9200000166893005
589,4.6354216465260834e-05,1.0,0.4739820957183838,0.9200000166893005
590,4.740308577311225e-05,1.0,0.4772932827472687,0.9200000166893005
591,2.216449865954928e-05,1.0,0.47929462790489197,0.9200000166893005
592,4.6829005441395566e-05,1.0,0.48165595531463623,0.9200000166893005
593,2.1840243789483793e-05,1.0,0.4833907186985016,0.9200000166893005
594,2.1171199477976188e-05,1.0,0.4851585328578949,0.9200000166893005
595,0.00013894653238821775,1.0,0.4858834445476532,0.9200000166893005
596,1.598298695171252e-05,1.0,0.48611748218536377,0.9200000166893005
597,1.1583150808291975e-05,1.0,0.4861999750137329,0.9200000166893005
598,0.00010751541412901133,1.0,0.49008652567863464,0.9200000166893005
599,2.239199420728255e-05,1.0,0.4945586323738098,0.9100000262260437
600,4.537823042483069e-05,1.0,0.4962497353553772,0.9100000262260437
601,0.00012599900946952403,1.0,0.49665161967277527,0.9100000262260437
602,0.00013204275455791503,1.0,0.5000864267349243,0.9100000262260437
603,4.811591497855261e-05,1.0,0.5010422468185425,0.9100000262260437
604,8.341833745362237e-05,1.0,0.49892836809158325,0.9100000262260437
605,3.12953743559774e-05,1.0,0.4992178976535797,0.9100000262260437
606,0.00027198533643968403,1.0,0.5023025274276733,0.9100000262260437
607,1.1852505849674344e-05,1.0,0.5026578903198242,0.9100000262260437
608,5.7954293879447505e-05,1.0,0.5015337467193604,0.9100000262260437
609,0.00017616283730603755,1.0,0.5012601613998413,0.9100000262260437
610,6.466929789894493e-06,1.0,0.5002856850624084,0.9100000262260437
611,1.4627245036535896e-05,1.0,0.49952954053878784,0.9100000262260437
612,0.00017765775555744767,1.0,0.49996665120124817,0.9100000262260437
613,2.217631299572531e-05,1.0,0.5001173615455627,0.9100000262260437
614,3.7537276512011886e-05,1.0,0.5000321269035339,0.9100000262260437
615,1.8155871657654643e-05,1.0,0.49954864382743835,0.9100000262260437
616,3.677034692373127e-05,1.0,0.4999454617500305,0.9100000262260437
617,1.9993865862488747e-05,1.0,0.5001035928726196,0.9100000262260437
618,2.4093691536108963e-05,1.0,0.5002774596214294,0.9100000262260437
619,3.708279109559953e-05,1.0,0.500694215297699,0.9100000262260437
620,1.6862679331097752e-05,1.0,0.5017394423484802,0.9100000262260437
621,3.744356945389882e-05,1.0,0.5026006102561951,0.9100000262260437
622,4.242887735017575e-05,1.0,0.5030377507209778,0.9100000262260437
623,0.00016022560885176063,1.0,0.48718467354774475,0.9300000071525574
624,1.889634586405009e-05,1.0,0.48213186860084534,0.9300000071525574
625,0.0002358925703447312,1.0,0.48874473571777344,0.9300000071525574
626,9.107159712584689e-05,1.0,0.504209041595459,0.9200000166893005
627,7.383113552350551e-05,1.0,0.5089197754859924,0.9200000166893005
628,1.4592867046303581e-05,1.0,0.506564736366272,0.9200000166893005
629,0.00019138750212732702,1.0,0.5026645660400391,0.9200000166893005
630,7.732986887276638e-06,1.0,0.5002857446670532,0.9200000166893005
631,2.0464667613850906e-05,1.0,0.4986220598220825,0.9200000166893005
632,1.3829900126438588e-05,1.0,0.49763011932373047,0.9200000166893005
633,2.295380545547232e-05,1.0,0.49700242280960083,0.9200000166893005
634,2.267675517941825e-05,1.0,0.49726584553718567,0.9200000166893005
635,8.278949280793313e-06,1.0,0.49655863642692566,0.9200000166893005
636,0.00012745513231493533,1.0,0.49792763590812683,0.9100000262260437
637,1.596503352629952e-05,1.0,0.500392735004425,0.9100000262260437
638,0.00016067962860688567,1.0,0.49993473291397095,0.9200000166893005
639,3.5950084566138685e-05,1.0,0.4995691776275635,0.9200000166893005
640,1.12076031655306e-05,1.0,0.49974533915519714,0.9200000166893005
641,7.741904119029641e-05,1.0,0.5019126534461975,0.9200000166893005
642,0.000142580276587978,1.0,0.5064027905464172,0.9200000166893005
643,2.6072444597957656e-05,1.0,0.5118752121925354,0.9100000262260437
644,3.0981929739937186e-05,1.0,0.5120184421539307,0.9100000262260437
645,2.8285632652114145e-05,1.0,0.5114438533782959,0.9100000262260437
646,4.434787842910737e-05,1.0,0.5113159418106079,0.9200000166893005
647,4.923274445900461e-06,1.0,0.5104988813400269,0.9200000166893005
648,0.00011314533912809566,1.0,0.509944498538971,0.9200000166893005
649,1.0546033990976866e-05,1.0,0.511090874671936,0.9100000262260437
650,5.194052209844813e-05,1.0,0.5092852115631104,0.9100000262260437
651,0.0006865523173473775,1.0,0.5175859332084656,0.9200000166893005
652,0.000598136626649648,1.0,0.4885546863079071,0.9300000071525574
653,6.440788638428785e-06,1.0,0.46608036756515503,0.9200000166893005
654,0.0002515425730962306,1.0,0.46039387583732605,0.9200000166893005
655,6.833094084868208e-05,1.0,0.4564723074436188,0.9200000166893005
656,1.358686677122023e-05,1.0,0.45907431840896606,0.9200000166893005
657,0.00021964265033602715,1.0,0.4681181013584137,0.9300000071525574
658,1.827583218982909e-05,1.0,0.4795515537261963,0.9300000071525574
659,0.00022394920233637094,1.0,0.4924710988998413,0.9300000071525574
660,1.1043131053156685e-05,1.0,0.49980273842811584,0.9200000166893005
661,7.739207649137825e-05,1.0,0.5023031830787659,0.9200000166893005
662,2.5784487661439925e-05,1.0,0.5020548105239868,0.9200000166893005
663,2.261471854581032e-05,1.0,0.5014870166778564,0.9200000166893005
664,9.617882460588589e-05,1.0,0.4993017911911011,0.9300000071525574
665,4.123557300772518e-05,1.0,0.4951309859752655,0.9300000071525574
666,1.1087300663348287e-05,1.0,0.4927929639816284,0.9300000071525574
667,3.489596929284744e-05,1.0,0.49326205253601074,0.9300000071525574
668,8.868921213434078e-06,1.0,0.4938894212245941,0.9300000071525574
669,4.960906153428368e-05,1.0,0.4953114986419678,0.9300000071525574
670,6.290585133683635e-06,1.0,0.49688437581062317,0.9300000071525574
671,1.892832551675383e-05,1.0,0.496087908744812,0.9300000071525574
672,1.75810946529964e-05,1.0,0.49685874581336975,0.9300000071525574
673,3.5037650377489626e-05,1.0,0.4981750547885895,0.9300000071525574
674,1.9947599867009558e-05,1.0,0.5010771751403809,0.9300000071525574
675,0.00011472260666778311,1.0,0.5125738382339478,0.9200000166893005
676,8.04882529337192e-06,1.0,0.5171958804130554,0.9100000262260437
677,3.263173493905924e-05,1.0,0.5182461142539978,0.9100000262260437
678,7.699526577198412e-06,1.0,0.5170167684555054,0.9100000262260437
679,1.2646480172406882e-05,1.0,0.5158460140228271,0.9200000166893005
680,4.031758362543769e-05,1.0,0.5138081908226013,0.9200000166893005
681,9.205118112731725e-05,1.0,0.5131310820579529,0.9200000166893005
682,1.2504772712418344e-05,1.0,0.5147306323051453,0.9100000262260437
683,0.00010082701192004606,1.0,0.5173146724700928,0.9100000262260437
684,9.568807581672445e-05,1.0,0.523149311542511,0.9100000262260437
685,8.99177848623367e-06,1.0,0.5245614051818848,0.9100000262260437
686,0.00013872029376216233,1.0,0.5290197134017944,0.9100000262260437
687,2.4661156203364953e-05,1.0,0.5294594764709473,0.9100000262260437
688,0.00017747629317454994,1.0,0.5145623087882996,0.9300000071525574
689,8.135862117342185e-06,1.0,0.5075187087059021,0.9300000071525574
690,1.616983354324475e-05,1.0,0.5057461261749268,0.9300000071525574
691,0.00016838559531606734,1.0,0.5118269920349121,0.9300000071525574
692,2.6165909730480053e-05,1.0,0.5140787959098816,0.9300000071525574
693,7.943244418129325e-05,1.0,0.518711268901825,0.9300000071525574
694,1.3335434232430998e-05,1.0,0.5242390036582947,0.9200000166893005
695,0.0001888761908048764,1.0,0.5330566167831421,0.9100000262260437
696,0.00013697946269530803,1.0,0.5331425666809082,0.9100000262260437
697,2.3657887140871026e-05,1.0,0.530407726764679,0.9100000262260437
698,1.6575138943153434e-05,1.0,0.5255319476127625,0.9100000262260437
699,0.00012349718599580228,1.0,0.5306739807128906,0.9100000262260437
700,1.5447840269189328e-05,1.0,0.5355075001716614,0.9100000262260437
701,1.301131214859197e-05,1.0,0.5343114137649536,0.9100000262260437
702,1.335789420409128e-05,1.0,0.5306581258773804,0.9100000262260437
703,1.2217481526022311e-05,1.0,0.5276848077774048,0.9100000262260437
704,1.686113864707295e-05,1.0,0.525282084941864,0.9100000262260437
705,2.8955186280654743e-05,1.0,0.5231543779373169,0.9100000262260437
706,3.149727126583457e-05,1.0,0.5218115448951721,0.9100000262260437
707,1.4399939573195297e-05,1.0,0.5207121968269348,0.9100000262260437
708,8.11206155049149e-06,1.0,0.5199441313743591,0.9100000262260437
709,3.080182068515569e-05,1.0,0.5185374617576599,0.9100000262260437
710,1.929794052557554e-05,1.0,0.5174193382263184,0.9100000262260437
711,9.194410267809872e-06,1.0,0.5162900686264038,0.9100000262260437
712,8.988101762952283e-05,1.0,0.5162184834480286,0.9100000262260437
713,0.00012468155182432383,1.0,0.5315618515014648,0.9100000262260437
714,7.2334787546424195e-06,1.0,0.5362722277641296,0.9100000262260437
715,3.015974698428181e-06,1.0,0.5371344685554504,0.9100000262260437
716,1.9300103303976357e-05,1.0,0.5362160801887512,0.9100000262260437
717,0.00027389806928113103,1.0,0.5375619530677795,0.9100000262260437
718,4.5642500481335446e-05,1.0,0.535624623298645,0.9200000166893005
719,9.438776032766327e-06,1.0,0.5341842174530029,0.9200000166893005
720,2.6342324417782947e-05,1.0,0.5327661037445068,0.9200000166893005
721,1.4561965144821443e-05,1.0,0.5313082337379456,0.9200000166893005
722,2.3134503862820566e-05,1.0,0.5276732444763184,0.9200000166893005
723,0.0006723632686771452,1.0,0.5196373462677002,0.9200000166893005
724,3.5130069591104984e-05,1.0,0.5133006572723389,0.9300000071525574
725,3.4197546483483166e-05,1.0,0.5108802318572998,0.9300000071525574
726,0.00023932427575346082,1.0,0.5201996564865112,0.9300000071525574
727,2.4395953005296178e-05,1.0,0.5324580669403076,0.9300000071525574
728,1.5677769624744542e-05,1.0,0.5353477597236633,0.9300000071525574
729,3.360945265740156e-05,1.0,0.535028338432312,0.9300000071525574
730,2.7646083253785037e-05,1.0,0.5323297381401062,0.9300000071525574
731,2.0456283891689964e-05,1.0,0.5281984210014343,0.9300000071525574
732,5.858968506800011e-06,1.0,0.5257280468940735,0.9300000071525574
733,6.087922884034924e-06,1.0,0.5241478681564331,0.9300000071525574
734,8.629388503322843e-06,1.0,0.5230016112327576,0.9300000071525574
735,9.069257430383004e-06,1.0,0.5218088030815125,0.9300000071525574
736,2.1389227185864e-05,1.0,0.5210113525390625,0.9300000071525574
737,9.803413377085235e-06,1.0,0.5187637209892273,0.9300000071525574
738,2.791592851281166e-05,1.0,0.5150710344314575,0.9300000071525574
739,7.134765473892912e-05,1.0,0.5076601505279541,0.9300000071525574
740,2.105101702909451e-05,1.0,0.5040791034698486,0.9300000071525574
741,9.366227459395304e-05,1.0,0.5126855373382568,0.9300000071525574
742,5.199977749725804e-05,1.0,0.5197516083717346,0.9300000071525574
743,0.00011659076699288562,1.0,0.5217141509056091,0.9300000071525574
744,2.376572047069203e-05,1.0,0.5201641917228699,0.9300000071525574
745,4.471484771784162e-06,1.0,0.5190247297286987,0.9300000071525574
746,2.112817674060352e-05,1.0,0.5183839797973633,0.9300000071525574
747,6.030720669514267e-06,1.0,0.5172245502471924,0.9300000071525574
748,0.00017965503502637148,1.0,0.5189971327781677,0.9300000071525574
749,0.0008598369313403964,1.0,0.5655516386032104,0.9200000166893005
750,5.936884190305136e-05,1.0,0.6255193948745728,0.9100000262260437
751,1.973247890418861e-05,1.0,0.6254487037658691,0.9100000262260437
752,1.2808318388124462e-05,1.0,0.6050058603286743,0.9200000166893005
753,3.572217610781081e-05,1.0,0.58181232213974,0.9300000071525574
754,2.959963785542641e-05,1.0,0.5619000792503357,0.9300000071525574
755,3.613151056924835e-05,1.0,0.5449512600898743,0.9200000166893005
756,0.00014963540888857096,1.0,0.5438411235809326,0.9200000166893005
757,1.7146558093372732e-05,1.0,0.5384721159934998,0.9200000166893005
758,8.279723988380283e-05,1.0,0.5287315249443054,0.9200000166893005
759,6.13321253695176e-06,1.0,0.5210981965065002,0.9200000166893005
760,2.600883090053685e-05,1.0,0.5177061557769775,0.9200000166893005
761,6.172573193907738e-06,1.0,0.5162252187728882,0.9200000166893005
762,6.045249756425619e-05,1.0,0.5043317675590515,0.9300000071525574
763,7.420668225677218e-06,1.0,0.4993930757045746,0.9300000071525574
764,6.188079623825615e-06,1.0,0.49824362993240356,0.9300000071525574
765,4.0471036300004926e-06,1.0,0.4978533983230591,0.9300000071525574
766,1.8358061424805783e-05,1.0,0.49830523133277893,0.9300000071525574
767,2.900925392168574e-05,1.0,0.5016190409660339,0.9300000071525574
768,1.1571119102882221e-05,1.0,0.5045666694641113,0.9300000071525574
769,0.0001624084688955918,1.0,0.5038886070251465,0.9300000071525574
770,6.607556861126795e-05,1.0,0.5027770400047302,0.9300000071525574
771,4.161553079029545e-06,1.0,0.5059823393821716,0.9300000071525574
772,0.00016437875456176698,1.0,0.5100455284118652,0.9300000071525574
773,3.126799492747523e-05,1.0,0.5197055339813232,0.9200000166893005
774,3.41763261531014e-05,1.0,0.5289559364318848,0.9200000166893005
775,7.643480785191059e-06,1.0,0.5332887172698975,0.9200000166893005
776,1.2942097782797646e-05,1.0,0.5368230938911438,0.9200000166893005
777,3.825976818916388e-05,1.0,0.5329443216323853,0.9200000166893005
778,1.712346238491591e-05,1.0,0.5303366184234619,0.9200000166893005
779,1.8419354091747664e-05,1.0,0.5301940441131592,0.9200000166893005
780,9.810311894398183e-06,1.0,0.5303770303726196,0.9200000166893005
781,0.0001326646888628602,1.0,0.5238243341445923,0.9200000166893005
782,7.754639955237508e-05,1.0,0.5167200565338135,0.9200000166893005
783,3.660886477518943e-06,1.0,0.5217158794403076,0.9200000166893005
784,0.00011170619109179825,1.0,0.5251653790473938,0.9300000071525574
785,8.259411697508767e-05,1.0,0.5297493934631348,0.9300000071525574
786,5.6460718042217195e-05,1.0,0.5299785137176514,0.9300000071525574
787,1.0344654583605006e-05,1.0,0.530745804309845,0.9300000071525574
788,5.438252628664486e-06,1.0,0.5303723216056824,0.9300000071525574
789,6.991146074142307e-05,1.0,0.5290646553039551,0.9300000071525574
790,5.8542955230223015e-06,1.0,0.5281818509101868,0.9200000166893005
791,4.251848440617323e-05,1.0,0.5336936116218567,0.9200000166893005
792,9.414915439265314e-06,1.0,0.5363524556159973,0.9200000166893005
793,5.4415133490692824e-05,1.0,0.5457507967948914,0.9200000166893005
794,1.706874718365725e-05,1.0,0.5472382307052612,0.9200000166893005
795,7.618495146743953e-06,1.0,0.5473289489746094,0.9200000166893005
796,5.009127107769018e-06,1.0,0.5462117791175842,0.9200000166893005
797,6.096464130678214e-05,1.0,0.5481707453727722,0.9200000166893005
798,4.378518042358337e-06,1.0,0.5475863814353943,0.9200000166893005
799,8.102486390271224e-06,1.0,0.5463014841079712,0.9200000166893005
