,loss,recall,val_loss,val_recall
0,1.9814192056655884,0.7639999985694885,0.6368004679679871,0.9035555720329285
1,0.6486566066741943,0.9359999895095825,0.9992508888244629,0.6073333621025085
2,0.3017262816429138,0.9160000085830688,0.46993908286094666,0.832444429397583
3,0.15565799176692963,0.9480000138282776,0.3984699249267578,0.8584444522857666
4,0.1457338184118271,0.949999988079071,0.39625927805900574,0.8222222328186035
5,0.13221201300621033,0.9480000138282776,0.37035149335861206,0.8684444427490234
6,0.11422989517450333,0.9520000219345093,0.353717178106308,0.8971111178398132
7,0.11534971743822098,0.9520000219345093,0.37416043877601624,0.867555558681488
8,0.10799432545900345,0.9520000219345093,0.32758891582489014,0.9013333320617676
9,0.10092497617006302,0.9539999961853027,0.32395753264427185,0.9117777943611145
10,0.09214404970407486,0.9559999704360962,0.2972637414932251,0.9177777767181396
11,0.10001197457313538,0.9539999961853027,0.3103158175945282,0.913777768611908
12,0.08985932916402817,0.9559999704360962,0.2911222279071808,0.9228888750076294
13,0.09395228326320648,0.9599999785423279,0.30508071184158325,0.9157778024673462
14,0.098372682929039,0.9520000219345093,0.28081056475639343,0.9211111068725586
15,0.08700685948133469,0.9559999704360962,0.2801932096481323,0.9197777509689331
16,0.08351914584636688,0.9599999785423279,0.29889801144599915,0.9222221970558167
17,0.07943134754896164,0.9620000123977661,0.2944081723690033,0.9208889007568359
18,0.07958527654409409,0.9599999785423279,0.28997454047203064,0.9217777848243713
19,0.07928313314914703,0.9620000123977661,0.30223187804222107,0.9279999732971191
20,0.07756336778402328,0.9660000205039978,0.3020183742046356,0.9237777590751648
21,0.0770687535405159,0.9620000123977661,0.29233890771865845,0.9231111407279968
22,0.07270412892103195,0.9639999866485596,0.3129763901233673,0.9208889007568359
23,0.07999146729707718,0.9580000042915344,0.2943821847438812,0.9197777509689331
24,0.06845387071371078,0.9679999947547913,0.292988657951355,0.921999990940094
25,0.05759330838918686,0.972000002861023,0.3031556010246277,0.9224444627761841
26,0.05567286163568497,0.972000002861023,0.30470728874206543,0.9253333210945129
27,0.05415967106819153,0.972000002861023,0.30687597393989563,0.9271110892295837
28,0.06719697266817093,0.9700000286102295,0.3155005872249603,0.9240000247955322
29,0.07345239073038101,0.9660000205039978,0.330310195684433,0.9324444532394409
30,0.06601188331842422,0.9660000205039978,0.3348081111907959,0.9253333210945129
31,0.061735909432172775,0.972000002861023,0.33277013897895813,0.9322222471237183
32,0.06461502611637115,0.9739999771118164,0.3300844132900238,0.9351111054420471
33,0.05183892324566841,0.972000002861023,0.3231115937232971,0.9295555353164673
34,0.04717785120010376,0.9760000109672546,0.34138572216033936,0.9340000152587891
35,0.05415109172463417,0.9700000286102295,0.35783326625823975,0.9311110973358154
36,0.04463489353656769,0.9739999771118164,0.3738046884536743,0.9359999895095825
37,0.045102521777153015,0.972000002861023,0.35695579648017883,0.9279999732971191
38,0.04166216403245926,0.9739999771118164,0.37670016288757324,0.9364444613456726
39,0.04344676807522774,0.9760000109672546,0.3904878795146942,0.9357777833938599
40,0.04918248578906059,0.9779999852180481,0.4117101728916168,0.9308888912200928
41,0.039790742099285126,0.9779999852180481,0.4245792627334595,0.9344444274902344
42,0.04345046356320381,0.9739999771118164,0.39608871936798096,0.9315555691719055
43,0.0370776429772377,0.9779999852180481,0.4143461287021637,0.9340000152587891
44,0.036750443279743195,0.9760000109672546,0.4222370982170105,0.9331111311912537
45,0.03580005466938019,0.9779999852180481,0.4534125030040741,0.9331111311912537
46,0.08110406249761581,0.9679999947547913,0.4702567160129547,0.9311110973358154
47,0.05026676878333092,0.9679999947547913,0.4545224905014038,0.9191111326217651
48,0.0565522201359272,0.9700000286102295,0.4879077672958374,0.9206666946411133
49,0.07585977017879486,0.9660000205039978,0.6598871350288391,0.9173333048820496
50,0.0459134615957737,0.9739999771118164,0.7156198024749756,0.9317777752876282
51,0.043843939900398254,0.9760000109672546,0.6709665656089783,0.929111123085022
52,0.038683805614709854,0.972000002861023,0.5777450799942017,0.9355555772781372
53,0.0318281427025795,0.9779999852180481,0.5353984832763672,0.9268888831138611
54,0.02434575743973255,0.9800000190734863,0.5512736439704895,0.9297778010368347
55,0.026355789974331856,0.9800000190734863,0.560066282749176,0.9111111164093018
56,0.038716163486242294,0.9860000014305115,0.5477400422096252,0.9386666417121887
57,0.05439390987157822,0.9819999933242798,0.6330686211585999,0.9184444546699524
58,0.0428130216896534,0.9800000190734863,0.7164422869682312,0.9331111311912537
59,0.021977311000227928,0.9980000257492065,0.6729015707969666,0.9359999895095825
60,0.011871976777911186,0.9980000257492065,0.6800574660301208,0.93022221326828
61,0.008175203576683998,0.9980000257492065,0.6359091401100159,0.9411110877990723
62,0.0038036894984543324,1.0,0.5900477766990662,0.9337777495384216
63,0.004974916111677885,0.9980000257492065,0.6449989676475525,0.9424444437026978
64,0.0026520914398133755,1.0,0.6872801780700684,0.9368888735771179
65,0.002100408775731921,1.0,0.6951676607131958,0.9386666417121887
66,0.0013857295271009207,1.0,0.6867124438285828,0.9391111135482788
67,0.0008225101046264172,1.0,0.6726701259613037,0.9371111392974854
68,0.0007893131696619093,1.0,0.6671291589736938,0.937333345413208
69,0.0005490462644957006,1.0,0.6687639355659485,0.9380000233650208
70,0.0004501045623328537,1.0,0.667037308216095,0.9380000233650208
71,0.00037521490594372153,1.0,0.6673303246498108,0.9382222294807434
72,0.00035672986996360123,1.0,0.6692132949829102,0.9382222294807434
73,0.0003071339742746204,1.0,0.6727866530418396,0.9382222294807434
74,0.0002599390863906592,1.0,0.6764346361160278,0.9386666417121887
75,0.00024409164325334132,1.0,0.6796890497207642,0.9388889074325562
76,0.0002086913591483608,1.0,0.6841400265693665,0.9393333196640015
77,0.00019257630628999323,1.0,0.6867777705192566,0.9393333196640015
78,0.00019905256340280175,1.0,0.6901928186416626,0.9393333196640015
79,0.00017768236284609884,1.0,0.693242609500885,0.9397777915000916
80,0.00017243674665223807,1.0,0.6974801421165466,0.9399999976158142
81,0.00014403549721464515,1.0,0.7015883326530457,0.9402222037315369
82,0.00014845022815279663,1.0,0.7059242129325867,0.9399999976158142
83,0.00013976295304019004,1.0,0.7091740965843201,0.9395555257797241
84,0.0001318870927207172,1.0,0.7116544246673584,0.9395555257797241
85,0.00013606599532067776,1.0,0.7144393920898438,0.9395555257797241
86,0.00012409793271217495,1.0,0.7174171805381775,0.9395555257797241
87,0.00011612044181674719,1.0,0.7204634547233582,0.9395555257797241
88,0.00012055412662448362,1.0,0.7222878336906433,0.9393333196640015
89,0.0001015775342239067,1.0,0.7247247099876404,0.9391111135482788
90,9.416690591024235e-05,1.0,0.727867841720581,0.9391111135482788
91,9.422370931133628e-05,1.0,0.730594277381897,0.9395555257797241
92,8.87501664692536e-05,1.0,0.7330822348594666,0.9395555257797241
93,8.3334838564042e-05,1.0,0.7359071969985962,0.9395555257797241
94,8.815281034912914e-05,1.0,0.7386599779129028,0.9395555257797241
95,8.617925777798519e-05,1.0,0.740070104598999,0.9395555257797241
96,7.916041067801416e-05,1.0,0.7425129413604736,0.9395555257797241
97,8.129308116622269e-05,1.0,0.7440115809440613,0.9395555257797241
98,7.708998600719497e-05,1.0,0.7452839016914368,0.9395555257797241
99,7.083304080879316e-05,1.0,0.7471004128456116,0.9395555257797241
100,7.199788524303585e-05,1.0,0.7489557862281799,0.9395555257797241
101,7.075594476191327e-05,1.0,0.7503321170806885,0.9393333196640015
102,6.045862755854614e-05,1.0,0.7521840929985046,0.9393333196640015
103,6.056765778339468e-05,1.0,0.7539947628974915,0.9393333196640015
104,6.167756509967148e-05,1.0,0.7561672925949097,0.9393333196640015
105,6.393928197212517e-05,1.0,0.7573105692863464,0.9393333196640015
106,5.4555508540943265e-05,1.0,0.7588468790054321,0.9393333196640015
107,6.022326851962134e-05,1.0,0.7599425315856934,0.9391111135482788
108,6.0297043091850355e-05,1.0,0.761452853679657,0.9391111135482788
109,5.376853732741438e-05,1.0,0.7632325887680054,0.9391111135482788
110,5.9824866184499115e-05,1.0,0.763809859752655,0.9393333196640015
111,5.8294299378758296e-05,1.0,0.7649136185646057,0.9393333196640015
112,5.528355541173369e-05,1.0,0.7658228874206543,0.9393333196640015
113,5.374828106141649e-05,1.0,0.7666406035423279,0.9391111135482788
114,4.98862900712993e-05,1.0,0.7680087089538574,0.9391111135482788
115,4.527458077063784e-05,1.0,0.7697088122367859,0.9388889074325562
116,4.545482079265639e-05,1.0,0.771073043346405,0.9388889074325562
117,5.010879613109864e-05,1.0,0.7723103761672974,0.9388889074325562
118,4.2608429794199765e-05,1.0,0.773314893245697,0.9388889074325562
119,4.3925541831413284e-05,1.0,0.7739274501800537,0.9388889074325562
120,4.390846152091399e-05,1.0,0.7749053239822388,0.9388889074325562
121,4.558100044960156e-05,1.0,0.776206910610199,0.9388889074325562
122,4.445669401320629e-05,1.0,0.7766874432563782,0.9388889074325562
123,3.8583904824918136e-05,1.0,0.7771466970443726,0.9386666417121887
124,3.6940233258064836e-05,1.0,0.7782436013221741,0.9388889074325562
125,3.740582542377524e-05,1.0,0.7795665860176086,0.9388889074325562
126,3.6845041904598475e-05,1.0,0.7809115052223206,0.9391111135482788
127,3.695180203067139e-05,1.0,0.782107949256897,0.9391111135482788
128,3.492153336992487e-05,1.0,0.7832677960395813,0.9391111135482788
129,3.610728163039312e-05,1.0,0.7842103242874146,0.9388889074325562
130,3.383975854376331e-05,1.0,0.7852344512939453,0.9388889074325562
131,3.081380782532506e-05,1.0,0.7857691049575806,0.9388889074325562
132,2.964640225400217e-05,1.0,0.7870669960975647,0.9388889074325562
133,3.2775111321825534e-05,1.0,0.7881576418876648,0.9388889074325562
134,3.307667429908179e-05,1.0,0.7887950539588928,0.9391111135482788
135,3.068508522119373e-05,1.0,0.7892525792121887,0.9386666417121887
136,3.104322240687907e-05,1.0,0.7904537320137024,0.9388889074325562
137,3.016460505023133e-05,1.0,0.7911295890808105,0.9386666417121887
138,2.8543676307890564e-05,1.0,0.7916984558105469,0.9384444355964661
139,2.797288470901549e-05,1.0,0.7926970720291138,0.9386666417121887
140,2.8661725082201883e-05,1.0,0.7934494018554688,0.9386666417121887
141,2.8531769203254953e-05,1.0,0.7941227555274963,0.9384444355964661
142,2.7123267500428483e-05,1.0,0.7950105667114258,0.9384444355964661
143,2.4950575607363135e-05,1.0,0.7959386706352234,0.9384444355964661
144,2.857780418707989e-05,1.0,0.7967888712882996,0.9384444355964661
145,2.5060047846636735e-05,1.0,0.7980157732963562,0.9386666417121887
146,2.4447610485367477e-05,1.0,0.799293577671051,0.9386666417121887
147,2.5502671633148566e-05,1.0,0.8001033663749695,0.9388889074325562
148,2.2911253836355172e-05,1.0,0.8007869124412537,0.9388889074325562
149,2.294475052622147e-05,1.0,0.801426112651825,0.9388889074325562
150,2.195660454162862e-05,1.0,0.8017634749412537,0.9388889074325562
151,2.2121854271972552e-05,1.0,0.8025153279304504,0.9391111135482788
152,2.1056390323792584e-05,1.0,0.8031275272369385,0.9391111135482788
153,2.175189001718536e-05,1.0,0.8039804697036743,0.9391111135482788
154,2.1875055608688854e-05,1.0,0.8045310974121094,0.9391111135482788
155,1.9663853890961036e-05,1.0,0.8049069046974182,0.9391111135482788
156,2.1207308236625977e-05,1.0,0.8054050207138062,0.9391111135482788
157,2.207945908594411e-05,1.0,0.805679976940155,0.9391111135482788
158,1.9567462004488334e-05,1.0,0.8062601685523987,0.9391111135482788
159,2.3050703020999208e-05,1.0,0.8063746690750122,0.9386666417121887
160,1.8679842469282448e-05,1.0,0.8071466088294983,0.9386666417121887
161,1.9273615180281922e-05,1.0,0.8081333637237549,0.9388889074325562
162,1.8895270841312595e-05,1.0,0.8087259531021118,0.9386666417121887
163,1.922430055856239e-05,1.0,0.8094685077667236,0.9386666417121887
164,1.8952119717141613e-05,1.0,0.8099522590637207,0.9388889074325562
165,1.6913636500248685e-05,1.0,0.8108158707618713,0.9388889074325562
166,1.8753773474600166e-05,1.0,0.8118090629577637,0.9393333196640015
167,1.9021072148461826e-05,1.0,0.8125504851341248,0.9393333196640015
168,1.6840007447171956e-05,1.0,0.8132758736610413,0.9393333196640015
169,1.7614371245144866e-05,1.0,0.8139721155166626,0.9393333196640015
170,1.752069510985166e-05,1.0,0.8146438002586365,0.9393333196640015
171,1.6875006622285582e-05,1.0,0.8151232600212097,0.9393333196640015
172,1.916672772495076e-05,1.0,0.8153336048126221,0.9391111135482788
173,1.7898166333907284e-05,1.0,0.8157221674919128,0.9388889074325562
174,1.8236551113659516e-05,1.0,0.8161314725875854,0.9386666417121887
175,1.6889591279323213e-05,1.0,0.8165281414985657,0.9386666417121887
176,1.5771165635669604e-05,1.0,0.8170887231826782,0.9388889074325562
177,1.6434814824606292e-05,1.0,0.8177757263183594,0.9388889074325562
178,1.5955200069583952e-05,1.0,0.8184326887130737,0.9388889074325562
179,1.5421359421452507e-05,1.0,0.8190955519676208,0.9388889074325562
180,1.536195668450091e-05,1.0,0.8196219205856323,0.9388889074325562
181,1.636776141822338e-05,1.0,0.8198084831237793,0.9386666417121887
182,1.70409675774863e-05,1.0,0.8201757669448853,0.9388889074325562
183,1.6026087905629538e-05,1.0,0.8205131888389587,0.9388889074325562
184,1.62627620738931e-05,1.0,0.8207870125770569,0.9386666417121887
185,1.6337507986463606e-05,1.0,0.8211742043495178,0.9386666417121887
186,1.4236066817829851e-05,1.0,0.8215606808662415,0.9384444355964661
187,1.7060418031178415e-05,1.0,0.8220422267913818,0.9388889074325562
188,1.3241337910585571e-05,1.0,0.8223667144775391,0.9384444355964661
189,1.3565339031629264e-05,1.0,0.8227964639663696,0.9384444355964661
190,1.5402269127662294e-05,1.0,0.823340892791748,0.9384444355964661
191,1.5913868992356583e-05,1.0,0.8237358927726746,0.9388889074325562
192,1.566627724969294e-05,1.0,0.8238447308540344,0.9384444355964661
193,1.623269054107368e-05,1.0,0.8238102793693542,0.9384444355964661
194,1.4391875083674677e-05,1.0,0.8240713477134705,0.9384444355964661
195,1.4390700926014688e-05,1.0,0.8243235945701599,0.9384444355964661
196,1.345848068012856e-05,1.0,0.8247085809707642,0.9384444355964661
197,1.5813784557394683e-05,1.0,0.825310230255127,0.9386666417121887
198,1.3712905456486624e-05,1.0,0.8256247043609619,0.9386666417121887
199,1.4104946785664652e-05,1.0,0.8261367082595825,0.9388889074325562
200,1.3177573237044271e-05,1.0,0.8262540102005005,0.9386666417121887
201,1.3726212273468263e-05,1.0,0.8266005516052246,0.9386666417121887
202,1.548771615489386e-05,1.0,0.8266789317131042,0.9388889074325562
203,1.2898804016003851e-05,1.0,0.8269743919372559,0.9388889074325562
204,1.3053097063675523e-05,1.0,0.8271382451057434,0.9386666417121887
205,1.3698948350793216e-05,1.0,0.8274232745170593,0.9388889074325562
206,1.3204794413468335e-05,1.0,0.8277952671051025,0.9388889074325562
207,1.2838680049753748e-05,1.0,0.82805997133255,0.9388889074325562
208,1.2353593774605542e-05,1.0,0.8284411430358887,0.9388889074325562
209,1.3909506378695369e-05,1.0,0.8287678360939026,0.9391111135482788
210,1.1530045412655454e-05,1.0,0.8293242454528809,0.9393333196640015
211,1.3208262316766195e-05,1.0,0.8296571969985962,0.9393333196640015
212,1.1156407708767802e-05,1.0,0.830078661441803,0.9393333196640015
213,1.3212995327194221e-05,1.0,0.8303209543228149,0.9393333196640015
214,1.3093752386339474e-05,1.0,0.8302246928215027,0.9391111135482788
215,1.2373281606414821e-05,1.0,0.830400824546814,0.9391111135482788
216,1.2627399883058388e-05,1.0,0.830539345741272,0.9391111135482788
217,1.2803424397134222e-05,1.0,0.8309881687164307,0.9391111135482788
218,1.2775415598298423e-05,1.0,0.8314263820648193,0.9391111135482788
219,1.2093546502001118e-05,1.0,0.8318410515785217,0.9391111135482788
220,1.3765849871560931e-05,1.0,0.8320179581642151,0.9391111135482788
221,1.2886352124041878e-05,1.0,0.8322818875312805,0.9391111135482788
222,1.1615706171141937e-05,1.0,0.8324881792068481,0.9391111135482788
223,1.2547801816253923e-05,1.0,0.8327277898788452,0.9391111135482788
224,1.1483213711471763e-05,1.0,0.8330014944076538,0.9391111135482788
225,1.2378673091006931e-05,1.0,0.8331978917121887,0.9391111135482788
226,1.190015518659493e-05,1.0,0.8334099054336548,0.9391111135482788
227,1.126950064644916e-05,1.0,0.8337355852127075,0.9391111135482788
228,1.2869825695815962e-05,1.0,0.8339738249778748,0.9393333196640015
229,1.076174339686986e-05,1.0,0.8341847658157349,0.9393333196640015
230,1.0869499419641215e-05,1.0,0.8344270586967468,0.9393333196640015
231,1.0900283086812124e-05,1.0,0.834646463394165,0.9393333196640015
232,1.3529132957046386e-05,1.0,0.8348325490951538,0.9393333196640015
233,1.2124318345740903e-05,1.0,0.8351536989212036,0.9393333196640015
234,1.0033285434474237e-05,1.0,0.8354219794273376,0.9393333196640015
235,1.347330635326216e-05,1.0,0.8356459736824036,0.9393333196640015
236,1.3738785128225572e-05,1.0,0.8355822563171387,0.9393333196640015
237,1.1608586646616459e-05,1.0,0.8356947302818298,0.9393333196640015
238,1.0625462891766801e-05,1.0,0.8357998728752136,0.9393333196640015
239,1.1186803931195755e-05,1.0,0.836013674736023,0.9393333196640015
240,1.0786548045871314e-05,1.0,0.8362290263175964,0.9393333196640015
241,9.973505257221404e-06,1.0,0.8363978862762451,0.9393333196640015
242,1.0384850611444563e-05,1.0,0.836596667766571,0.9393333196640015
243,1.0309202480129898e-05,1.0,0.8367013335227966,0.9393333196640015
244,1.1555946912267245e-05,1.0,0.836879312992096,0.9393333196640015
245,9.631839020585176e-06,1.0,0.8369837999343872,0.9393333196640015
246,9.981179573514964e-06,1.0,0.8371053338050842,0.9393333196640015
247,1.2031702681269962e-05,1.0,0.8371885418891907,0.9393333196640015
248,1.1795917089330032e-05,1.0,0.8372414112091064,0.9393333196640015
249,1.1416951565479394e-05,1.0,0.8373372554779053,0.9391111135482788
250,1.1023485058103688e-05,1.0,0.8375651836395264,0.9393333196640015
251,1.0172797374252696e-05,1.0,0.8377700448036194,0.9393333196640015
252,1.0134871445188764e-05,1.0,0.8380256295204163,0.9393333196640015
253,9.180695087707136e-06,1.0,0.8382118940353394,0.9393333196640015
254,1.0560617738519795e-05,1.0,0.8383544087409973,0.9393333196640015
255,1.1006637578248046e-05,1.0,0.8387121558189392,0.9393333196640015
256,1.1022638318536337e-05,1.0,0.8389663696289062,0.9393333196640015
257,1.1220778105780482e-05,1.0,0.8390635251998901,0.9393333196640015
258,1.0349015610700008e-05,1.0,0.8391333818435669,0.9393333196640015
259,1.1179006833117455e-05,1.0,0.8391190767288208,0.9393333196640015
260,1.0506641956453677e-05,1.0,0.83916836977005,0.9393333196640015
261,9.924223377311137e-06,1.0,0.8392728567123413,0.9393333196640015
262,9.590588888386264e-06,1.0,0.8394193053245544,0.9393333196640015
263,1.0461902093084063e-05,1.0,0.8394752740859985,0.9393333196640015
264,1.0424380889162421e-05,1.0,0.839613676071167,0.9393333196640015
265,1.166813035524683e-05,1.0,0.839765727519989,0.9393333196640015
266,1.024947596306447e-05,1.0,0.8398478627204895,0.9393333196640015
267,1.0747377928055357e-05,1.0,0.8398948311805725,0.9391111135482788
268,9.645870704844128e-06,1.0,0.8400765061378479,0.9391111135482788
269,1.0372877113695722e-05,1.0,0.8402256965637207,0.9391111135482788
270,9.665850484452676e-06,1.0,0.8404461741447449,0.9391111135482788
271,9.704077456262894e-06,1.0,0.8406280279159546,0.9391111135482788
272,8.957292266131844e-06,1.0,0.8408000469207764,0.9391111135482788
273,9.401563147548586e-06,1.0,0.8409626483917236,0.9391111135482788
274,1.0096180631080642e-05,1.0,0.8410629630088806,0.9391111135482788
275,1.0596273568808101e-05,1.0,0.841199517250061,0.9393333196640015
276,8.856471140461508e-06,1.0,0.8412732481956482,0.9391111135482788
277,9.974586646421812e-06,1.0,0.8414616584777832,0.9391111135482788
278,1.048868398356717e-05,1.0,0.8415634632110596,0.9391111135482788
279,1.1007272405549884e-05,1.0,0.8417709469795227,0.9391111135482788
280,8.864127266861033e-06,1.0,0.8417961597442627,0.9391111135482788
281,9.647640581533778e-06,1.0,0.841946005821228,0.9391111135482788
282,9.753806807566434e-06,1.0,0.8419671058654785,0.9391111135482788
283,1.0348843716201372e-05,1.0,0.8421216607093811,0.9391111135482788
284,1.0238456525257789e-05,1.0,0.8422423005104065,0.9391111135482788
285,9.253277312382124e-06,1.0,0.8423838019371033,0.9391111135482788
286,9.54570532485377e-06,1.0,0.8424283862113953,0.9391111135482788
287,9.26051870919764e-06,1.0,0.842528223991394,0.9391111135482788
288,8.66997470438946e-06,1.0,0.8426114916801453,0.9391111135482788
289,1.0013261089625303e-05,1.0,0.8427655696868896,0.9391111135482788
290,9.833088370214682e-06,1.0,0.8429343700408936,0.9393333196640015
291,9.19126523513114e-06,1.0,0.8430784344673157,0.9393333196640015
292,9.266816050512716e-06,1.0,0.843205451965332,0.9393333196640015
293,8.726050509721972e-06,1.0,0.843333899974823,0.9393333196640015
294,9.709873665997293e-06,1.0,0.8434171080589294,0.9393333196640015
295,8.068487659329548e-06,1.0,0.843549907207489,0.9393333196640015
296,9.585993211658206e-06,1.0,0.8436059951782227,0.9393333196640015
297,9.07329740584828e-06,1.0,0.8437489867210388,0.9393333196640015
298,8.19125216366956e-06,1.0,0.8438506126403809,0.9393333196640015
299,1.0421658771520015e-05,1.0,0.8438674807548523,0.9393333196640015
300,9.207453331327997e-06,1.0,0.8439715504646301,0.9393333196640015
301,9.247337402484845e-06,1.0,0.8440729379653931,0.9393333196640015
302,9.577673154126387e-06,1.0,0.8442702889442444,0.9393333196640015
303,8.678583071741741e-06,1.0,0.8444610834121704,0.9393333196640015
304,9.18235400604317e-06,1.0,0.844487190246582,0.9393333196640015
305,8.857691682351287e-06,1.0,0.844475269317627,0.9393333196640015
306,9.014254828798585e-06,1.0,0.8445715308189392,0.9393333196640015
307,9.838375262916088e-06,1.0,0.8446503281593323,0.9393333196640015
308,8.401902960031293e-06,1.0,0.8447512984275818,0.9393333196640015
309,1.0092399861605372e-05,1.0,0.84483802318573,0.9393333196640015
310,9.120404683926608e-06,1.0,0.8448584079742432,0.9393333196640015
311,1.0700238817662466e-05,1.0,0.844817578792572,0.9393333196640015
312,8.237005204136949e-06,1.0,0.8447973728179932,0.9393333196640015
313,8.503677236149088e-06,1.0,0.8448899984359741,0.9393333196640015
314,1.0636375918693375e-05,1.0,0.8448206186294556,0.9393333196640015
315,8.94067397894105e-06,1.0,0.8448168039321899,0.9393333196640015
316,8.8963261077879e-06,1.0,0.8449015021324158,0.9391111135482788
317,8.886045179679058e-06,1.0,0.8449601531028748,0.9391111135482788
318,9.121896255237516e-06,1.0,0.8450967073440552,0.9391111135482788
319,8.751707355258986e-06,1.0,0.8452001810073853,0.9391111135482788
320,9.3421658675652e-06,1.0,0.8452991247177124,0.9391111135482788
321,8.760262062423863e-06,1.0,0.8453778028488159,0.9391111135482788
322,1.0332852070860099e-05,1.0,0.8456097841262817,0.9393333196640015
323,9.722341019369196e-06,1.0,0.8457421660423279,0.9393333196640015
324,8.55570579005871e-06,1.0,0.8458391427993774,0.9393333196640015
325,8.233021617343184e-06,1.0,0.8459547162055969,0.9393333196640015
326,9.643345038057305e-06,1.0,0.8460035920143127,0.9393333196640015
327,8.083206921583042e-06,1.0,0.846085786819458,0.9393333196640015
328,8.6236204879242e-06,1.0,0.8461402058601379,0.9393333196640015
329,8.71267093316419e-06,1.0,0.846189022064209,0.9393333196640015
330,8.52616267366102e-06,1.0,0.8462907075881958,0.9393333196640015
331,8.21370576886693e-06,1.0,0.8463881015777588,0.9393333196640015
332,9.404985576111358e-06,1.0,0.846453845500946,0.9393333196640015
333,8.702112609171309e-06,1.0,0.8464721441268921,0.9393333196640015
334,8.304502443934325e-06,1.0,0.8465582132339478,0.9393333196640015
335,8.894468010112178e-06,1.0,0.8466739058494568,0.9393333196640015
336,8.612333658675198e-06,1.0,0.8467712998390198,0.9393333196640015
337,9.243203749065287e-06,1.0,0.8469240069389343,0.9393333196640015
338,9.611339919501916e-06,1.0,0.8470039367675781,0.9393333196640015
339,9.567063898430206e-06,1.0,0.8470880389213562,0.9393333196640015
340,9.190065611619502e-06,1.0,0.8471584320068359,0.9393333196640015
341,7.804792403476313e-06,1.0,0.8471820950508118,0.9393333196640015
342,8.12734924693359e-06,1.0,0.8473008871078491,0.9393333196640015
343,9.336782568425406e-06,1.0,0.8473619818687439,0.9393333196640015
344,9.130469152296428e-06,1.0,0.8474129438400269,0.9393333196640015
345,7.73380361351883e-06,1.0,0.8474752306938171,0.9393333196640015
346,8.535675078746863e-06,1.0,0.8475525975227356,0.9393333196640015
347,8.21336743683787e-06,1.0,0.847644567489624,0.9393333196640015
348,7.959561116877012e-06,1.0,0.8477409482002258,0.9393333196640015
349,1.0454155017214362e-05,1.0,0.8477646708488464,0.9393333196640015
350,8.250296559708659e-06,1.0,0.8477526307106018,0.9393333196640015
351,9.455597137275618e-06,1.0,0.8477866649627686,0.9393333196640015
352,7.606242434121668e-06,1.0,0.8478238582611084,0.9393333196640015
353,7.90379817772191e-06,1.0,0.8478981256484985,0.9393333196640015
354,8.157989213941619e-06,1.0,0.848011314868927,0.9393333196640015
355,8.069408067967743e-06,1.0,0.8481385111808777,0.9393333196640015
356,7.777697646815795e-06,1.0,0.8482701182365417,0.9393333196640015
357,8.218811672122683e-06,1.0,0.8483999967575073,0.9393333196640015
358,8.96110122994287e-06,1.0,0.8484413027763367,0.9393333196640015
359,7.529959930252517e-06,1.0,0.848508358001709,0.9393333196640015
360,8.948396498453803e-06,1.0,0.8485332131385803,0.9393333196640015
361,9.22025901672896e-06,1.0,0.8484898805618286,0.9393333196640015
362,7.97337997937575e-06,1.0,0.8484700918197632,0.9393333196640015
363,8.625586815469433e-06,1.0,0.8484941720962524,0.9391111135482788
364,8.530354534741491e-06,1.0,0.8485700488090515,0.9393333196640015
365,8.021037501748651e-06,1.0,0.848626434803009,0.9391111135482788
366,8.042875379032921e-06,1.0,0.8487122058868408,0.9393333196640015
367,7.99246299720835e-06,1.0,0.8487906455993652,0.9393333196640015
368,7.29608927940717e-06,1.0,0.8489352464675903,0.9393333196640015
369,7.670370905543678e-06,1.0,0.8490508794784546,0.9393333196640015
370,7.566591648355825e-06,1.0,0.849153995513916,0.9393333196640015
371,8.041015462367795e-06,1.0,0.8493184447288513,0.9391111135482788
372,7.4258141466998495e-06,1.0,0.8494939804077148,0.9391111135482788
373,8.051274562603794e-06,1.0,0.8495905995368958,0.9391111135482788
374,7.727061529294588e-06,1.0,0.8496444821357727,0.9391111135482788
375,8.561655704397708e-06,1.0,0.8496505618095398,0.9391111135482788
376,7.909015948825981e-06,1.0,0.8497992753982544,0.9391111135482788
377,8.108272595563903e-06,1.0,0.8499215245246887,0.9391111135482788
378,7.917198672657833e-06,1.0,0.8499850034713745,0.9391111135482788
379,8.667156180308666e-06,1.0,0.8500770926475525,0.9391111135482788
380,7.628862022102112e-06,1.0,0.8500552177429199,0.9391111135482788
381,8.40070606500376e-06,1.0,0.8500778079032898,0.9391111135482788
382,8.359246749023441e-06,1.0,0.8501863479614258,0.9391111135482788
383,7.67086476116674e-06,1.0,0.8502217531204224,0.9391111135482788
384,7.365498731815023e-06,1.0,0.8503067493438721,0.9391111135482788
385,7.913710760476533e-06,1.0,0.8503494262695312,0.9391111135482788
386,9.697712812339887e-06,1.0,0.8504108190536499,0.9391111135482788
387,7.045543952699518e-06,1.0,0.850406289100647,0.9391111135482788
388,7.172159712354187e-06,1.0,0.8505529761314392,0.9391111135482788
389,7.483266017516144e-06,1.0,0.850676953792572,0.9391111135482788
390,7.793788427079562e-06,1.0,0.8508086800575256,0.9391111135482788
391,9.053878784470726e-06,1.0,0.8509692549705505,0.9391111135482788
392,8.605196853750385e-06,1.0,0.8510224223136902,0.9391111135482788
393,7.180494321801234e-06,1.0,0.8511046171188354,0.9391111135482788
394,7.26414555174415e-06,1.0,0.8512518405914307,0.9391111135482788
395,7.546889264631318e-06,1.0,0.8514018058776855,0.9391111135482788
396,7.395002739940537e-06,1.0,0.8514896631240845,0.9391111135482788
397,7.730131073913071e-06,1.0,0.8516564965248108,0.9391111135482788
398,6.902550467202673e-06,1.0,0.8517583608627319,0.9391111135482788
399,7.82393544795923e-06,1.0,0.8518967628479004,0.9391111135482788
400,7.86087639426114e-06,1.0,0.8520474433898926,0.9391111135482788
401,7.999478839337826e-06,1.0,0.8522112369537354,0.9391111135482788
402,8.380271538044326e-06,1.0,0.8523232936859131,0.9391111135482788
403,7.867746717238333e-06,1.0,0.8524232506752014,0.9391111135482788
404,7.03381829225691e-06,1.0,0.8525164127349854,0.9391111135482788
405,7.988211109477561e-06,1.0,0.8526611924171448,0.9391111135482788
406,7.755951628496405e-06,1.0,0.8527281880378723,0.9391111135482788
407,7.260594429681078e-06,1.0,0.8528004288673401,0.9391111135482788
408,7.048654879326932e-06,1.0,0.852881908416748,0.9391111135482788
409,7.1907420533534605e-06,1.0,0.8529670238494873,0.9391111135482788
410,7.66982338973321e-06,1.0,0.8531033396720886,0.9391111135482788
411,7.116139840945834e-06,1.0,0.8531864285469055,0.9391111135482788
412,8.652600627101492e-06,1.0,0.8532620668411255,0.9391111135482788
413,7.334674137382535e-06,1.0,0.8532295227050781,0.9391111135482788
414,7.229486982396338e-06,1.0,0.8532772064208984,0.9391111135482788
415,6.4755763560242485e-06,1.0,0.853405773639679,0.9391111135482788
416,7.190476026153192e-06,1.0,0.8534077405929565,0.9393333196640015
417,7.113990250218194e-06,1.0,0.8534610271453857,0.9393333196640015
418,7.270056812558323e-06,1.0,0.8535223007202148,0.9393333196640015
419,7.276492851815419e-06,1.0,0.8535948395729065,0.9393333196640015
420,6.467754701589001e-06,1.0,0.8535963296890259,0.9393333196640015
421,8.356258149433415e-06,1.0,0.8536772131919861,0.9393333196640015
422,7.325214937736746e-06,1.0,0.8537374138832092,0.9393333196640015
423,7.760173502902035e-06,1.0,0.8538471460342407,0.9393333196640015
424,7.294761871889932e-06,1.0,0.8539077639579773,0.9393333196640015
425,6.6495435930846725e-06,1.0,0.8540634512901306,0.9393333196640015
426,7.012203695921926e-06,1.0,0.8542032837867737,0.9393333196640015
427,7.4072495408472605e-06,1.0,0.8543322086334229,0.9393333196640015
428,7.115519565559225e-06,1.0,0.854457437992096,0.9393333196640015
429,7.132539849408204e-06,1.0,0.8546158671379089,0.9391111135482788
430,7.27862197891227e-06,1.0,0.8547114133834839,0.9393333196640015
431,7.0073938331916e-06,1.0,0.8548792600631714,0.9393333196640015
432,7.783013643347658e-06,1.0,0.855021059513092,0.9393333196640015
433,6.229554855963215e-06,1.0,0.8551642298698425,0.9393333196640015
434,6.130173005658435e-06,1.0,0.8553950786590576,0.9393333196640015
435,7.052865839796141e-06,1.0,0.8554385900497437,0.9391111135482788
436,7.661315976292826e-06,1.0,0.8555326461791992,0.9393333196640015
437,7.271670710906619e-06,1.0,0.8555872440338135,0.9393333196640015
438,6.853619197499938e-06,1.0,0.8556259870529175,0.9393333196640015
439,6.661222414550139e-06,1.0,0.8557901382446289,0.9393333196640015
440,7.89924797572894e-06,1.0,0.8559796214103699,0.9393333196640015
441,7.291894689842593e-06,1.0,0.8560912609100342,0.9393333196640015
442,7.402252322208369e-06,1.0,0.8560974597930908,0.9393333196640015
443,6.291503268585075e-06,1.0,0.8561899065971375,0.9393333196640015
444,6.574007784365676e-06,1.0,0.8562616109848022,0.9393333196640015
445,6.598675099667162e-06,1.0,0.8564279675483704,0.9393333196640015
446,6.346831014525378e-06,1.0,0.8565356731414795,0.9393333196640015
447,6.95774679115857e-06,1.0,0.8566985726356506,0.9393333196640015
448,6.766756541765062e-06,1.0,0.8567073941230774,0.9393333196640015
449,6.556128028023522e-06,1.0,0.8568612337112427,0.9393333196640015
450,6.5980671024590265e-06,1.0,0.8569865822792053,0.9393333196640015
451,6.432464488170808e-06,1.0,0.8571746945381165,0.9393333196640015
452,7.175636255851714e-06,1.0,0.857442319393158,0.9393333196640015
453,6.425494575523771e-06,1.0,0.8575382828712463,0.9393333196640015
454,6.003767794027226e-06,1.0,0.8576827049255371,0.9393333196640015
455,7.091635325195966e-06,1.0,0.8578240871429443,0.9393333196640015
456,6.291987119766418e-06,1.0,0.8578958511352539,0.9393333196640015
457,6.284315986704314e-06,1.0,0.8580001592636108,0.9393333196640015
458,6.520160695799859e-06,1.0,0.8581146001815796,0.9393333196640015
459,7.159168944781413e-06,1.0,0.8581889867782593,0.9393333196640015
460,7.063374141580425e-06,1.0,0.8581486940383911,0.9393333196640015
461,7.348308372456813e-06,1.0,0.8582815527915955,0.9393333196640015
462,6.810668764956063e-06,1.0,0.8583981990814209,0.9393333196640015
463,6.674828000541311e-06,1.0,0.8584952354431152,0.9393333196640015
464,5.857181804458378e-06,1.0,0.8585134744644165,0.9393333196640015
465,7.846443622838706e-06,1.0,0.8586682081222534,0.9393333196640015
466,6.48743252895656e-06,1.0,0.8586465716362,0.9393333196640015
467,6.488420240202686e-06,1.0,0.8586915135383606,0.9393333196640015
468,6.020229648129316e-06,1.0,0.8588446974754333,0.9393333196640015
469,7.332066616072552e-06,1.0,0.8590592741966248,0.9393333196640015
470,7.159344022511505e-06,1.0,0.8590925335884094,0.9393333196640015
471,7.315269613172859e-06,1.0,0.8590909838676453,0.9393333196640015
472,6.647443115070928e-06,1.0,0.8590748310089111,0.9393333196640015
473,6.333092642307747e-06,1.0,0.8592094779014587,0.9391111135482788
474,6.204016699484782e-06,1.0,0.8592790961265564,0.9391111135482788
475,5.549186880671186e-06,1.0,0.8594037294387817,0.9391111135482788
476,6.1208211263874546e-06,1.0,0.8595991730690002,0.9393333196640015
477,6.333734290819848e-06,1.0,0.8597451448440552,0.9393333196640015
478,6.234750344447093e-06,1.0,0.859968364238739,0.9393333196640015
479,6.552500508405501e-06,1.0,0.8601906299591064,0.9393333196640015
480,6.0052680055378005e-06,1.0,0.8603388667106628,0.9393333196640015
481,5.95299934502691e-06,1.0,0.8605966567993164,0.9393333196640015
482,6.9419797910086345e-06,1.0,0.860791802406311,0.9393333196640015
483,5.822791536047589e-06,1.0,0.8610095381736755,0.9393333196640015
484,6.1310429373406805e-06,1.0,0.8609888553619385,0.9393333196640015
485,5.310535016178619e-06,1.0,0.861068069934845,0.9393333196640015
486,5.9076746765640564e-06,1.0,0.8612298369407654,0.9393333196640015
487,5.8957748478860594e-06,1.0,0.8613998889923096,0.9393333196640015
488,6.511514584417455e-06,1.0,0.8615041971206665,0.9393333196640015
489,6.060992745915428e-06,1.0,0.8615784645080566,0.9393333196640015
490,6.390127509803278e-06,1.0,0.8617492318153381,0.9393333196640015
491,5.9875642364204396e-06,1.0,0.8619229793548584,0.9393333196640015
492,5.538690402318025e-06,1.0,0.8619990944862366,0.9393333196640015
493,5.406870513979811e-06,1.0,0.8622129559516907,0.9393333196640015
494,6.3445904743275605e-06,1.0,0.8623853921890259,0.9393333196640015
495,6.101226517785108e-06,1.0,0.8625316619873047,0.9393333196640015
496,5.983717528579291e-06,1.0,0.8626547455787659,0.9393333196640015
497,5.829288056702353e-06,1.0,0.8628047704696655,0.9393333196640015
498,5.505068202182883e-06,1.0,0.8630251288414001,0.9393333196640015
499,6.02210411670967e-06,1.0,0.8631159067153931,0.9393333196640015
500,5.657630936184432e-06,1.0,0.8632026314735413,0.9393333196640015
501,5.889032763661817e-06,1.0,0.8633096814155579,0.9393333196640015
502,5.628013695968548e-06,1.0,0.8634034991264343,0.9393333196640015
503,5.4256861403700896e-06,1.0,0.8635253310203552,0.9393333196640015
504,5.943364612903679e-06,1.0,0.8635866045951843,0.9393333196640015
505,5.555565621762071e-06,1.0,0.863716721534729,0.9393333196640015
506,6.886185019538971e-06,1.0,0.8637505769729614,0.9393333196640015
507,5.674518433806952e-06,1.0,0.8637822866439819,0.9395555257797241
508,5.613501343759708e-06,1.0,0.8638924956321716,0.9393333196640015
509,5.174644684302621e-06,1.0,0.8639925122261047,0.9393333196640015
510,5.361995135899633e-06,1.0,0.8642173409461975,0.9393333196640015
511,5.3400808610604145e-06,1.0,0.8643855452537537,0.9393333196640015
512,5.191805030335672e-06,1.0,0.8645800948143005,0.9393333196640015
513,5.261178102955455e-06,1.0,0.8647028803825378,0.9393333196640015
514,5.244486146693816e-06,1.0,0.8648149371147156,0.9393333196640015
515,6.040356765879551e-06,1.0,0.8650104999542236,0.9393333196640015
516,5.6981921261467505e-06,1.0,0.865198016166687,0.9393333196640015
517,5.243069608695805e-06,1.0,0.8653407692909241,0.9393333196640015
518,5.796323875983944e-06,1.0,0.8654470443725586,0.9393333196640015
519,5.0480448408052325e-06,1.0,0.8655966520309448,0.9393333196640015
520,5.465230060508475e-06,1.0,0.8657075762748718,0.9395555257797241
521,4.906226877210429e-06,1.0,0.8658789992332458,0.9395555257797241
522,5.7274310165666975e-06,1.0,0.8660266399383545,0.9395555257797241
523,5.166044502402656e-06,1.0,0.866161048412323,0.9395555257797241
524,5.230151145951822e-06,1.0,0.8662307858467102,0.9395555257797241
525,5.6473886616004165e-06,1.0,0.8664292693138123,0.9395555257797241
526,5.218205842538737e-06,1.0,0.8665613532066345,0.9397777915000916
527,4.649451057048282e-06,1.0,0.8667426109313965,0.9397777915000916
528,4.581771008815849e-06,1.0,0.8669372200965881,0.9397777915000916
529,5.888774921913864e-06,1.0,0.8669969439506531,0.9397777915000916
530,4.604166406352306e-06,1.0,0.8670842051506042,0.9397777915000916
531,4.8971846808854025e-06,1.0,0.8672387599945068,0.9397777915000916
532,5.3121916607778985e-06,1.0,0.8673524856567383,0.9397777915000916
533,4.949365120410221e-06,1.0,0.8675722479820251,0.9397777915000916
534,4.820577942155069e-06,1.0,0.8677896857261658,0.9397777915000916
535,6.068903076084098e-06,1.0,0.867861807346344,0.9397777915000916
536,4.863765752816107e-06,1.0,0.8679318428039551,0.9395555257797241
537,4.725968665297842e-06,1.0,0.8680254817008972,0.9395555257797241
538,5.006095761928009e-06,1.0,0.8681666851043701,0.9395555257797241
539,4.925271696265554e-06,1.0,0.8683172464370728,0.9397777915000916
540,5.389370926422998e-06,1.0,0.8683466911315918,0.9397777915000916
541,4.59653529105708e-06,1.0,0.8684568405151367,0.9395555257797241
542,7.297102911252296e-06,1.0,0.8683899641036987,0.9393333196640015
543,5.247346962278243e-06,1.0,0.8683885335922241,0.9395555257797241
544,4.982247901352821e-06,1.0,0.8683914542198181,0.9393333196640015
545,4.6167601794877555e-06,1.0,0.8684796690940857,0.9393333196640015
546,4.7841626837907825e-06,1.0,0.8686342239379883,0.9393333196640015
547,5.595576567429816e-06,1.0,0.8686901926994324,0.9393333196640015
548,5.684802090399899e-06,1.0,0.8686544299125671,0.9393333196640015
549,4.8962115215545055e-06,1.0,0.8688013553619385,0.9393333196640015
550,4.607516984833637e-06,1.0,0.8691439628601074,0.9393333196640015
551,5.438761490950128e-06,1.0,0.8694300055503845,0.9393333196640015
552,5.07803315485944e-06,1.0,0.8696978688240051,0.9395555257797241
553,4.7212188292178325e-06,1.0,0.86989825963974,0.9395555257797241
554,4.960770183970453e-06,1.0,0.8701241612434387,0.9395555257797241
555,4.716893727163551e-06,1.0,0.870345950126648,0.9395555257797241
556,4.378164248919347e-06,1.0,0.8705180883407593,0.9395555257797241
557,4.746006197819952e-06,1.0,0.8707327842712402,0.9397777915000916
558,4.858250122197205e-06,1.0,0.8709011673927307,0.9397777915000916
559,4.494027052714955e-06,1.0,0.8710864782333374,0.9397777915000916
560,4.626546342478832e-06,1.0,0.871250331401825,0.9397777915000916
561,4.285898285161238e-06,1.0,0.871341347694397,0.9397777915000916
562,4.5302294893190265e-06,1.0,0.8715196251869202,0.9397777915000916
563,4.741897555504693e-06,1.0,0.8715372085571289,0.9397777915000916
564,4.149999313085573e-06,1.0,0.8716763854026794,0.9397777915000916
565,4.891359822067898e-06,1.0,0.8717334866523743,0.9397777915000916
566,4.154293492319994e-06,1.0,0.8719152808189392,0.9397777915000916
567,4.6265495257102884e-06,1.0,0.8720757365226746,0.9397777915000916
568,4.622965207090601e-06,1.0,0.8721734881401062,0.9397777915000916
569,4.614615590980975e-06,1.0,0.8722005486488342,0.9397777915000916
570,4.59676630271133e-06,1.0,0.8722831606864929,0.9395555257797241
571,4.303066361899255e-06,1.0,0.8724214434623718,0.9395555257797241
572,4.70568920718506e-06,1.0,0.87263023853302,0.9395555257797241
573,4.751480901177274e-06,1.0,0.8727684617042542,0.9397777915000916
574,4.434205038705841e-06,1.0,0.8729366064071655,0.9397777915000916
575,5.331401553121395e-06,1.0,0.8731473684310913,0.9397777915000916
576,4.7178823479043785e-06,1.0,0.873171329498291,0.9397777915000916
577,5.326699465513229e-06,1.0,0.873293399810791,0.9397777915000916
578,4.1752500692382455e-06,1.0,0.8733446598052979,0.9397777915000916
579,3.9435385588149074e-06,1.0,0.8734551072120667,0.9395555257797241
580,5.007953859603731e-06,1.0,0.8734711408615112,0.9395555257797241
581,4.3883769649255555e-06,1.0,0.8736118078231812,0.9395555257797241
582,4.522149083641125e-06,1.0,0.873932957649231,0.9399999976158142
583,4.592240657075308e-06,1.0,0.8739715814590454,0.9399999976158142
584,4.221977633278584e-06,1.0,0.8741612434387207,0.9399999976158142
585,4.311141765356297e-06,1.0,0.8743395805358887,0.9399999976158142
586,4.987884494767059e-06,1.0,0.8744910955429077,0.9399999976158142
587,4.335706762503833e-06,1.0,0.8745512962341309,0.9399999976158142
588,4.569783868646482e-06,1.0,0.8746721744537354,0.9399999976158142
589,5.602297733275918e-06,1.0,0.8745322823524475,0.9397777915000916
590,3.9945539356267545e-06,1.0,0.8744972348213196,0.9395555257797241
591,4.42725877292105e-06,1.0,0.8745853304862976,0.9395555257797241
592,4.205317054584157e-06,1.0,0.8747474551200867,0.9395555257797241
593,3.854148417303804e-06,1.0,0.8749951720237732,0.9395555257797241
594,3.5308830774738453e-06,1.0,0.8753286004066467,0.9395555257797241
595,4.5505280468205456e-06,1.0,0.8756970763206482,0.9397777915000916
596,3.953313807869563e-06,1.0,0.8759867548942566,0.9399999976158142
597,4.466844075068366e-06,1.0,0.8761085867881775,0.9397777915000916
598,4.451327185961418e-06,1.0,0.876236081123352,0.9399999976158142
599,4.431542947713751e-06,1.0,0.8764110803604126,0.9399999976158142
600,3.666295469884062e-06,1.0,0.8765851259231567,0.9399999976158142
601,4.010081283922773e-06,1.0,0.8768513202667236,0.9399999976158142
602,4.4172297748446e-06,1.0,0.8769800662994385,0.9399999976158142
603,4.331898708187509e-06,1.0,0.8770567178726196,0.9397777915000916
604,4.01555325879599e-06,1.0,0.877191424369812,0.9399999976158142
605,3.817650394921657e-06,1.0,0.8773488998413086,0.9399999976158142
606,4.0825038922776e-06,1.0,0.8774684071540833,0.9399999976158142
607,4.14664282288868e-06,1.0,0.8776500821113586,0.9399999976158142
608,3.712510078912601e-06,1.0,0.8777351379394531,0.9399999976158142
609,3.6438862025534036e-06,1.0,0.8779167532920837,0.9399999976158142
610,4.348329184722388e-06,1.0,0.8782683610916138,0.9399999976158142
611,3.5058558296441333e-06,1.0,0.8785653710365295,0.9399999976158142
612,3.986680894740857e-06,1.0,0.8786476850509644,0.9399999976158142
613,3.6663018363469746e-06,1.0,0.8788899779319763,0.9399999976158142
614,3.6803457987844013e-06,1.0,0.878980815410614,0.9399999976158142
615,3.6126430131844245e-06,1.0,0.8791558146476746,0.9399999976158142
616,4.209376129438169e-06,1.0,0.8794456124305725,0.9399999976158142
617,4.037000053358497e-06,1.0,0.87965989112854,0.9399999976158142
618,3.6150233881926397e-06,1.0,0.8797205686569214,0.9399999976158142
619,4.15833892475348e-06,1.0,0.8799267411231995,0.9399999976158142
620,4.037688086100388e-06,1.0,0.8800451159477234,0.9399999976158142
621,3.6991982597101014e-06,1.0,0.8802916407585144,0.9397777915000916
622,3.9564151848026086e-06,1.0,0.8804946541786194,0.9397777915000916
623,3.711302497322322e-06,1.0,0.8803930282592773,0.9399999976158142
624,3.801689899773919e-06,1.0,0.8804112076759338,0.9399999976158142
625,3.22620257975359e-06,1.0,0.880699634552002,0.9399999976158142
626,3.973347702412866e-06,1.0,0.8808474540710449,0.9399999976158142
627,3.6386536521604285e-06,1.0,0.8809692859649658,0.9397777915000916
628,3.4238314583490137e-06,1.0,0.8810952305793762,0.9397777915000916
629,3.625516228566994e-06,1.0,0.8812500238418579,0.9397777915000916
630,3.8984862840152346e-06,1.0,0.8813978433609009,0.9397777915000916
631,4.1216226236429065e-06,1.0,0.8816933035850525,0.9397777915000916
632,3.9406786527251825e-06,1.0,0.8818261027336121,0.9397777915000916
633,3.8696362025802955e-06,1.0,0.8820932507514954,0.9397777915000916
634,3.4591153053042945e-06,1.0,0.8822773098945618,0.9397777915000916
635,3.4703141409409e-06,1.0,0.8824542164802551,0.9397777915000916
636,3.7001423152105417e-06,1.0,0.8826414942741394,0.9397777915000916
637,3.3942708341783145e-06,1.0,0.8827692866325378,0.9397777915000916
638,3.1108074836083688e-06,1.0,0.882962167263031,0.9397777915000916
639,3.59380123882147e-06,1.0,0.8831456303596497,0.9397777915000916
640,3.64505649486091e-06,1.0,0.8830685019493103,0.9397777915000916
641,3.828155513474485e-06,1.0,0.8833063840866089,0.9397777915000916
642,3.635289658632246e-06,1.0,0.8834865093231201,0.9397777915000916
643,4.022189841634827e-06,1.0,0.883662223815918,0.9397777915000916
644,3.3809183150879107e-06,1.0,0.8837913274765015,0.9397777915000916
645,3.3339599667669972e-06,1.0,0.8839561939239502,0.9397777915000916
646,4.0119452933140565e-06,1.0,0.8842360973358154,0.9397777915000916
647,3.5492298593453597e-06,1.0,0.8844289779663086,0.9397777915000916
648,3.2121176900545834e-06,1.0,0.8845383524894714,0.9397777915000916
649,3.0919668461137917e-06,1.0,0.8846413493156433,0.9397777915000916
650,3.3120204534498043e-06,1.0,0.8847975730895996,0.9397777915000916
651,2.9494026421161834e-06,1.0,0.8850568532943726,0.9397777915000916
652,3.639300302893389e-06,1.0,0.8851191401481628,0.9397777915000916
653,3.6474443732004147e-06,1.0,0.8852053284645081,0.9397777915000916
654,3.623116981543717e-06,1.0,0.8852642178535461,0.9397777915000916
655,2.8731230941048125e-06,1.0,0.8853824734687805,0.9397777915000916
656,3.196628767909715e-06,1.0,0.885589599609375,0.9397777915000916
657,3.1587217108608456e-06,1.0,0.8857969045639038,0.9397777915000916
658,3.1155598207988078e-06,1.0,0.8859227299690247,0.9397777915000916
659,3.1756476346345153e-06,1.0,0.8861739635467529,0.9397777915000916
660,3.194958480889909e-06,1.0,0.8864297866821289,0.9397777915000916
661,3.406902351343888e-06,1.0,0.8866223096847534,0.9397777915000916
662,3.096023192483699e-06,1.0,0.8868955969810486,0.9397777915000916
663,2.9172206268412992e-06,1.0,0.8871265053749084,0.9397777915000916
664,2.8955253128515324e-06,1.0,0.8873745799064636,0.9397777915000916
665,3.1379845495393965e-06,1.0,0.8875114321708679,0.9397777915000916
666,3.191140876879217e-06,1.0,0.8876152038574219,0.9397777915000916
667,3.7780664570163935e-06,1.0,0.8874858617782593,0.9397777915000916
668,3.3406327020202298e-06,1.0,0.8876669406890869,0.9397777915000916
669,3.229289859518758e-06,1.0,0.8879492282867432,0.9397777915000916
670,3.642900537670357e-06,1.0,0.8880968689918518,0.9397777915000916
671,3.4488025448808912e-06,1.0,0.8881547451019287,0.9397777915000916
672,2.9699001515837153e-06,1.0,0.8882477283477783,0.9395555257797241
673,3.4819981920009013e-06,1.0,0.8885656595230103,0.9395555257797241
674,2.5214658307959326e-06,1.0,0.8888063430786133,0.9397777915000916
675,3.0635790153610287e-06,1.0,0.8889723420143127,0.9397777915000916
676,2.736032456596149e-06,1.0,0.8891893029212952,0.9397777915000916
677,2.7019341359846294e-06,1.0,0.8893873691558838,0.9397777915000916
678,3.0192520625860197e-06,1.0,0.8896424174308777,0.9397777915000916
679,2.9360387543420075e-06,1.0,0.8897765874862671,0.9397777915000916
680,2.973930122607271e-06,1.0,0.8899085521697998,0.9397777915000916
681,3.0373753361345734e-06,1.0,0.8899226188659668,0.9397777915000916
682,2.8344918518996565e-06,1.0,0.8900616765022278,0.9397777915000916
683,3.3898918445629533e-06,1.0,0.8900040984153748,0.9397777915000916
684,2.6225454803352477e-06,1.0,0.890112578868866,0.9397777915000916
685,2.855717184502282e-06,1.0,0.8902914524078369,0.9397777915000916
686,2.68644475909241e-06,1.0,0.8904961943626404,0.9397777915000916
687,2.9753875878668623e-06,1.0,0.8907838463783264,0.9397777915000916
688,2.893376176871243e-06,1.0,0.8910968899726868,0.9397777915000916
689,2.9172222184570273e-06,1.0,0.8912851810455322,0.9397777915000916
690,2.6614120542944875e-06,1.0,0.8913875222206116,0.9397777915000916
691,3.2599982660030946e-06,1.0,0.8914580345153809,0.9397777915000916
692,2.6437703581905225e-06,1.0,0.8915849924087524,0.9397777915000916
693,2.8583335733856075e-06,1.0,0.8916993737220764,0.9397777915000916
694,2.6523509859543992e-06,1.0,0.8918117880821228,0.9397777915000916
695,2.5998954242822947e-06,1.0,0.8922330737113953,0.9397777915000916
696,2.9210355023678858e-06,1.0,0.8926605582237244,0.9397777915000916
697,2.830434368661372e-06,1.0,0.8929639458656311,0.9397777915000916
698,2.782749788821093e-06,1.0,0.8929860591888428,0.9397777915000916
699,2.59463490692724e-06,1.0,0.893119752407074,0.9397777915000916
700,2.6816796889761463e-06,1.0,0.8932095766067505,0.9397777915000916
701,2.5972683488362236e-06,1.0,0.8934823274612427,0.9397777915000916
702,2.563423549872823e-06,1.0,0.8936447501182556,0.9397777915000916
703,2.413469928796985e-06,1.0,0.8938811421394348,0.9397777915000916
704,2.6931190859613707e-06,1.0,0.8941319584846497,0.9397777915000916
705,3.098385604971554e-06,1.0,0.8941169381141663,0.9397777915000916
706,2.413704805803718e-06,1.0,0.8943232297897339,0.9397777915000916
707,2.6010818601207575e-06,1.0,0.8945109844207764,0.9397777915000916
708,2.466142177581787e-06,1.0,0.8947061896324158,0.9395555257797241
709,2.468060756655177e-06,1.0,0.8949460983276367,0.9397777915000916
710,2.979920736834174e-06,1.0,0.8951377868652344,0.9397777915000916
711,2.6010834517364856e-06,1.0,0.8952973484992981,0.9395555257797241
712,2.6544755655777408e-06,1.0,0.8954984545707703,0.9397777915000916
713,2.6439975044922903e-06,1.0,0.8955624103546143,0.9397777915000916
714,2.6995464850188e-06,1.0,0.8957147598266602,0.9397777915000916
715,3.019710220542038e-06,1.0,0.8955820202827454,0.9395555257797241
716,2.4978548935905565e-06,1.0,0.8956894874572754,0.9395555257797241
717,2.8335202841844875e-06,1.0,0.8957195281982422,0.9395555257797241
718,3.055713932553772e-06,1.0,0.8958303332328796,0.9395555257797241
719,2.5279055080318358e-06,1.0,0.8959722518920898,0.9395555257797241
720,2.4222833872045157e-06,1.0,0.896278440952301,0.9395555257797241
721,2.658769972185837e-06,1.0,0.8965155482292175,0.9395555257797241
722,2.6015579805971356e-06,1.0,0.8966345191001892,0.9397777915000916
723,2.4349212708330015e-06,1.0,0.8966999650001526,0.9397777915000916
724,2.6940483621729072e-06,1.0,0.8968669176101685,0.9397777915000916
725,2.6199172680207994e-06,1.0,0.8969701528549194,0.9397777915000916
726,3.2194959658227162e-06,1.0,0.8970177173614502,0.9397777915000916
727,2.369597950746538e-06,1.0,0.8971595168113708,0.9397777915000916
728,2.6554423584457254e-06,1.0,0.8975013494491577,0.9397777915000916
729,2.279712816743995e-06,1.0,0.8978469371795654,0.9397777915000916
730,2.502154984540539e-06,1.0,0.898047685623169,0.9397777915000916
731,2.5507663394819247e-06,1.0,0.8982214331626892,0.9397777915000916
732,2.194128683186136e-06,1.0,0.898377537727356,0.9397777915000916
733,2.42704345509992e-06,1.0,0.8984469175338745,0.9397777915000916
734,2.2809133497503353e-06,1.0,0.898761510848999,0.9397777915000916
735,2.3083271116774995e-06,1.0,0.8991155624389648,0.9399999976158142
736,2.375553776801098e-06,1.0,0.8993567228317261,0.9399999976158142
737,2.1030509742558934e-06,1.0,0.8995882868766785,0.9399999976158142
738,2.325727564311819e-06,1.0,0.9000651836395264,0.9399999976158142
739,2.31690455620992e-06,1.0,0.9002836346626282,0.9399999976158142
740,2.1454818579513812e-06,1.0,0.9005485773086548,0.9399999976158142
741,2.038684897343046e-06,1.0,0.9007068276405334,0.9399999976158142
742,2.425618959023268e-06,1.0,0.9008449912071228,0.9399999976158142
743,2.360292228331673e-06,1.0,0.9009321928024292,0.9399999976158142
744,2.2813824216427747e-06,1.0,0.9011455774307251,0.9399999976158142
745,2.467332251399057e-06,1.0,0.9012665152549744,0.9399999976158142
746,2.4115468022500863e-06,1.0,0.9015214443206787,0.9399999976158142
747,2.1218793335719965e-06,1.0,0.9015188813209534,0.9399999976158142
748,2.068248022624175e-06,1.0,0.9017333984375,0.9399999976158142
749,2.240130925201811e-06,1.0,0.9017482995986938,0.9399999976158142
750,2.1562173060374334e-06,1.0,0.9019125699996948,0.9399999976158142
751,2.3002146463113604e-06,1.0,0.9021878838539124,0.9399999976158142
752,2.022706212301273e-06,1.0,0.9024796485900879,0.9399999976158142
753,2.0954207684553694e-06,1.0,0.9026875495910645,0.9399999976158142
754,2.110446985170711e-06,1.0,0.9028801918029785,0.9399999976158142
755,2.04368848244485e-06,1.0,0.9029801487922668,0.9399999976158142
756,2.3052261894918047e-06,1.0,0.9033334851264954,0.9399999976158142
757,2.5302665562776383e-06,1.0,0.9034220576286316,0.9399999976158142
758,2.288999439770123e-06,1.0,0.9033762812614441,0.9399999976158142
759,2.23488768824609e-06,1.0,0.9034299254417419,0.9399999976158142
760,2.238936303911032e-06,1.0,0.9035835862159729,0.9399999976158142
761,1.9051744857279118e-06,1.0,0.9038287997245789,0.9399999976158142
762,2.153123659809353e-06,1.0,0.9040533304214478,0.9399999976158142
763,2.3883972062321845e-06,1.0,0.9039427638053894,0.9397777915000916
764,2.0162681266810978e-06,1.0,0.9040107727050781,0.9397777915000916
765,2.1545497475017328e-06,1.0,0.9041551351547241,0.9397777915000916
766,2.0889874576823786e-06,1.0,0.9043115377426147,0.9397777915000916
767,1.938065906870179e-06,1.0,0.9042820334434509,0.9397777915000916
768,2.116639961968758e-06,1.0,0.904430627822876,0.9397777915000916
769,2.0803988718398614e-06,1.0,0.9046453237533569,0.9397777915000916
770,1.94856488633377e-06,1.0,0.9050255417823792,0.9397777915000916
771,2.0820723420911236e-06,1.0,0.9052265882492065,0.9397777915000916
772,2.082545506709721e-06,1.0,0.9056012630462646,0.9399999976158142
773,2.401784513494931e-06,1.0,0.9058895707130432,0.9399999976158142
774,1.9776532553805737e-06,1.0,0.9061825275421143,0.9399999976158142
775,1.934974079631502e-06,1.0,0.9064714908599854,0.9399999976158142
776,1.7723770042721299e-06,1.0,0.9068618416786194,0.9399999976158142
777,2.0577467694238294e-06,1.0,0.9070456027984619,0.9402222037315369
778,2.3052091364661464e-06,1.0,0.9072427749633789,0.9399999976158142
779,1.716351903269242e-06,1.0,0.9074679613113403,0.9399999976158142
780,1.9960079953307286e-06,1.0,0.907684326171875,0.9399999976158142
781,2.6039065232907888e-06,1.0,0.9077548384666443,0.9399999976158142
782,2.070391701636254e-06,1.0,0.9077954292297363,0.9399999976158142
783,1.906357510961243e-06,1.0,0.9079033136367798,0.9397777915000916
784,1.7926436157722492e-06,1.0,0.9082629084587097,0.9399999976158142
785,2.108760327246273e-06,1.0,0.9086602926254272,0.9402222037315369
786,1.7809620658226777e-06,1.0,0.9089607000350952,0.9402222037315369
787,2.151438593500643e-06,1.0,0.9091691374778748,0.9402222037315369
788,1.8610606957736309e-06,1.0,0.9090831279754639,0.9402222037315369
789,1.711579557195364e-06,1.0,0.9094169735908508,0.9402222037315369
790,1.9685892311827047e-06,1.0,0.9098260998725891,0.9402222037315369
791,2.0415316157595953e-06,1.0,0.9098975658416748,0.9402222037315369
792,2.449411567795323e-06,1.0,0.9101794958114624,0.9402222037315369
793,1.9740657535294304e-06,1.0,0.910599946975708,0.9402222037315369
794,1.7938335759026813e-06,1.0,0.9107987284660339,0.9402222037315369
795,1.8481863435226842e-06,1.0,0.9110947251319885,0.9402222037315369
796,1.6021542705857428e-06,1.0,0.9113605618476868,0.9402222037315369
797,1.6522205896762898e-06,1.0,0.9116736054420471,0.9402222037315369
798,1.7499643263363396e-06,1.0,0.9118371605873108,0.9402222037315369
799,1.5592405588904512e-06,1.0,0.9120644330978394,0.9402222037315369
