,loss,recall,val_loss,val_recall
0,1.7218501567840576,0.006000000052154064,1.6723840236663818,0.0
1,1.7284624576568604,0.012000000104308128,1.6482038497924805,0.0
2,1.6829482316970825,0.017999999225139618,1.6241121292114258,0.0
3,1.666223406791687,0.00800000037997961,1.600574254989624,0.0
4,1.6402627229690552,0.004000000189989805,1.577181339263916,0.0
5,1.5961111783981323,0.01600000075995922,1.553647518157959,0.0
6,1.591829538345337,0.014000000432133675,1.530643105506897,0.0
7,1.5686938762664795,0.009999999776482582,1.5080004930496216,0.0
8,1.563818335533142,0.00800000037997961,1.4850882291793823,0.0
9,1.49598228931427,0.01600000075995922,1.462957739830017,0.0
10,1.5207297801971436,0.01600000075995922,1.4408143758773804,0.0
11,1.4601186513900757,0.014000000432133675,1.4192782640457153,0.0
12,1.4859199523925781,0.017999999225139618,1.3974432945251465,0.0
13,1.452630639076233,0.017999999225139618,1.376094102859497,0.0
14,1.4035710096359253,0.01600000075995922,1.3552663326263428,0.0
15,1.42291259765625,0.01600000075995922,1.3344417810440063,0.0
16,1.3834840059280396,0.026000000536441803,1.3137034177780151,0.0
17,1.3689097166061401,0.03400000184774399,1.2929102182388306,0.0
18,1.3474467992782593,0.03400000184774399,1.2731369733810425,0.0
19,1.3420171737670898,0.03799999877810478,1.2532318830490112,0.0
20,1.359541654586792,0.026000000536441803,1.2332743406295776,0.0
21,1.3036320209503174,0.04600000008940697,1.2136894464492798,0.0
22,1.2663524150848389,0.057999998331069946,1.1951359510421753,0.0
23,1.2782193422317505,0.04399999976158142,1.1764501333236694,0.0
24,1.243215799331665,0.05000000074505806,1.1580668687820435,0.0
25,1.2380399703979492,0.06800000369548798,1.1396843194961548,0.0
26,1.2179739475250244,0.07000000029802322,1.121565341949463,0.0
27,1.1702265739440918,0.1080000028014183,1.104270100593567,0.0
28,1.1747205257415771,0.1120000034570694,1.087072730064392,0.0
29,1.1390749216079712,0.11400000005960464,1.0702197551727295,0.0
30,1.1509320735931396,0.10599999874830246,1.0533925294876099,0.0
31,1.123686671257019,0.12999999523162842,1.0370171070098877,0.0
32,1.0934408903121948,0.12600000202655792,1.0209180116653442,0.0
33,1.0792688131332397,0.1420000046491623,1.0052886009216309,0.0
34,1.0800672769546509,0.15399999916553497,0.9894922971725464,0.0
35,1.067996621131897,0.18199999630451202,0.9743388891220093,0.00022222222469281405
36,1.024369716644287,0.17399999499320984,0.9595338702201843,0.0026666666381061077
37,1.0350936651229858,0.17599999904632568,0.9447665810585022,0.011111111380159855
38,0.9989122748374939,0.23800000548362732,0.9304435849189758,0.03333333507180214
39,1.0035570859909058,0.21199999749660492,0.9162409901618958,0.07555555552244186
40,0.9853010177612305,0.25200000405311584,0.9024576544761658,0.12955555319786072
41,0.9733054637908936,0.2639999985694885,0.8888351321220398,0.19422222673892975
42,0.9775370955467224,0.25999999046325684,0.8752643465995789,0.25600001215934753
43,0.9419866800308228,0.3140000104904175,0.8621737957000732,0.31422221660614014
44,0.9407173991203308,0.3059999942779541,0.8491693139076233,0.38955554366111755
45,0.9125474691390991,0.3100000023841858,0.8365048766136169,0.44688889384269714
46,0.9052354693412781,0.34599998593330383,0.8242111802101135,0.5068888664245605
47,0.9229491949081421,0.36399999260902405,0.8123518824577332,0.5624444484710693
48,0.8611107468605042,0.421999990940094,0.8006445169448853,0.5988888740539551
49,0.8535711169242859,0.4259999990463257,0.7894513607025146,0.6348888874053955
50,0.868642270565033,0.4300000071525574,0.7781423330307007,0.6633333563804626
51,0.8677757382392883,0.4320000112056732,0.7672251462936401,0.6844444274902344
52,0.8314614295959473,0.492000013589859,0.7566209435462952,0.7046666741371155
53,0.8447803854942322,0.44600000977516174,0.7460276484489441,0.7215555310249329
54,0.8079500794410706,0.5080000162124634,0.7358655333518982,0.7364444732666016
55,0.8204981684684753,0.4659999907016754,0.7256383299827576,0.7526666522026062
56,0.8040323853492737,0.5239999890327454,0.71595698595047,0.7608888745307922
57,0.7983569502830505,0.5180000066757202,0.7063132524490356,0.7699999809265137
58,0.7847051024436951,0.5519999861717224,0.6969529390335083,0.7804444432258606
59,0.7862934470176697,0.5360000133514404,0.6878130435943604,0.7893333435058594
60,0.7678103446960449,0.5740000009536743,0.678978681564331,0.7946666479110718
61,0.7637088298797607,0.5839999914169312,0.6702353954315186,0.8004444241523743
62,0.7731200456619263,0.5699999928474426,0.6616993546485901,0.8071110844612122
63,0.7263971567153931,0.6499999761581421,0.6536574363708496,0.8124444484710693
64,0.7250264883041382,0.6359999775886536,0.6456767320632935,0.8171111345291138
65,0.7182914018630981,0.6240000128746033,0.6379842162132263,0.8211110830307007
66,0.7179775238037109,0.6579999923706055,0.630422830581665,0.8253333568572998
67,0.7156779170036316,0.6600000262260437,0.6229513883590698,0.8277778029441833
68,0.6949301958084106,0.6880000233650208,0.6158750057220459,0.8328889012336731
69,0.6864211559295654,0.6840000152587891,0.6087501049041748,0.835777759552002
70,0.6948035359382629,0.6660000085830688,0.6016187071800232,0.8388888835906982
71,0.6870886087417603,0.699999988079071,0.5948145985603333,0.8413333296775818
72,0.6561127305030823,0.7300000190734863,0.5882540345191956,0.8435555696487427
73,0.6686182618141174,0.6840000152587891,0.5817448496818542,0.8455555438995361
74,0.6480324864387512,0.734000027179718,0.5755017995834351,0.8479999899864197
75,0.667452335357666,0.7160000205039978,0.5693466663360596,0.8504444360733032
76,0.6175760626792908,0.7459999918937683,0.5634822249412537,0.8526666760444641
77,0.6295990347862244,0.7559999823570251,0.5576150417327881,0.855555534362793
78,0.6126059293746948,0.7760000228881836,0.5519394874572754,0.8577777743339539
79,0.6323847770690918,0.7620000243186951,0.5465078353881836,0.8595555424690247
80,0.6226022839546204,0.7680000066757202,0.5412650108337402,0.8602222204208374
81,0.6162148714065552,0.765999972820282,0.5359578728675842,0.8613333106040955
82,0.6116111874580383,0.7540000081062317,0.5309849381446838,0.8624444603919983
83,0.5872649550437927,0.777999997138977,0.5260570645332336,0.8648889064788818
84,0.5750327706336975,0.7919999957084656,0.5212409496307373,0.8666666746139526
85,0.5925084948539734,0.7900000214576721,0.516414225101471,0.867555558681488
86,0.5863565802574158,0.7919999957084656,0.5118791460990906,0.8691111207008362
87,0.5945656299591064,0.7879999876022339,0.5073926448822021,0.8702222108840942
88,0.5830745697021484,0.7839999794960022,0.5029296875,0.8711110949516296
89,0.5626465678215027,0.8180000185966492,0.49873247742652893,0.871999979019165
90,0.5642099976539612,0.828000009059906,0.49473366141319275,0.8726666569709778
91,0.5760309100151062,0.8059999942779541,0.4906902611255646,0.8742222189903259
92,0.5716357827186584,0.8059999942779541,0.48676133155822754,0.8744444251060486
93,0.5580145120620728,0.8059999942779541,0.4829460680484772,0.8755555748939514
94,0.5437843203544617,0.828000009059906,0.4791651964187622,0.8757777810096741
95,0.5612289905548096,0.8299999833106995,0.47540634870529175,0.8771111369132996
96,0.5301865339279175,0.8320000171661377,0.471743106842041,0.8777777552604675
97,0.5527510643005371,0.8259999752044678,0.4681662917137146,0.879111111164093
98,0.5381761193275452,0.8379999995231628,0.4647921621799469,0.8802222013473511
99,0.5233826637268066,0.8240000009536743,0.4615209400653839,0.8804444670677185
100,0.52940434217453,0.8259999752044678,0.45829904079437256,0.8813333511352539
101,0.5189930200576782,0.8420000076293945,0.4550565481185913,0.8820000290870667
102,0.5125731229782104,0.8539999723434448,0.4519917666912079,0.8826666474342346
103,0.5082274675369263,0.8600000143051147,0.4490293860435486,0.882888913154602
104,0.5087605118751526,0.8460000157356262,0.44619110226631165,0.88355553150177
105,0.4888211786746979,0.8640000224113464,0.44342756271362305,0.8844444155693054
106,0.5028443932533264,0.8519999980926514,0.4406816065311432,0.8851110935211182
107,0.4916771948337555,0.8619999885559082,0.4380459785461426,0.8855555653572083
108,0.4930858314037323,0.8500000238418579,0.4354464113712311,0.8857777714729309
109,0.4837934970855713,0.8579999804496765,0.43296346068382263,0.8857777714729309
110,0.47325536608695984,0.871999979019165,0.43053367733955383,0.8866666555404663
111,0.48899590969085693,0.8700000047683716,0.4281470477581024,0.887333333492279
112,0.4727608561515808,0.8740000128746033,0.4258108139038086,0.8877778053283691
113,0.4831939935684204,0.8659999966621399,0.4235122799873352,0.8882222175598145
114,0.4706997573375702,0.8799999952316284,0.4213200509548187,0.8884444236755371
115,0.4682253897190094,0.8740000128746033,0.41898825764656067,0.8886666893959045
116,0.47120165824890137,0.8600000143051147,0.4167692959308624,0.8886666893959045
117,0.47834211587905884,0.8579999804496765,0.41469311714172363,0.8891111016273499
118,0.4690071940422058,0.8740000128746033,0.41275209188461304,0.8893333077430725
119,0.4676756262779236,0.871999979019165,0.41067808866500854,0.8893333077430725
120,0.475401908159256,0.8679999709129333,0.40869203209877014,0.8897777795791626
121,0.4634808897972107,0.8679999709129333,0.40691661834716797,0.8897777795791626
122,0.44853657484054565,0.8679999709129333,0.40510785579681396,0.8902222514152527
123,0.4610629081726074,0.8539999723434448,0.40321487188339233,0.890666663646698
124,0.46046990156173706,0.8740000128746033,0.40142324566841125,0.8911111354827881
125,0.4405483603477478,0.8799999952316284,0.39962470531463623,0.8913333415985107
126,0.4539790749549866,0.8759999871253967,0.3978744447231293,0.8913333415985107
127,0.45911797881126404,0.8799999952316284,0.3962496817111969,0.891777753829956
128,0.44245779514312744,0.8859999775886536,0.39463382959365845,0.8920000195503235
129,0.43672841787338257,0.8840000033378601,0.39316824078559875,0.8922222256660461
130,0.44417229294776917,0.8820000290870667,0.39158597588539124,0.8924444317817688
131,0.4564870297908783,0.8679999709129333,0.39006784558296204,0.8924444317817688
132,0.4274395704269409,0.8799999952316284,0.3885844051837921,0.8926666378974915
133,0.4184630215167999,0.8920000195503235,0.38721176981925964,0.8928889036178589
134,0.4385969340801239,0.871999979019165,0.3857790231704712,0.8931111097335815
135,0.43798306584358215,0.8880000114440918,0.3844107389450073,0.8935555815696716
136,0.4290470480918884,0.8840000033378601,0.38317781686782837,0.8942221999168396
137,0.4271804690361023,0.8920000195503235,0.3819279372692108,0.8942221999168396
138,0.4296143352985382,0.8899999856948853,0.3806173801422119,0.8946666717529297
139,0.42032501101493835,0.8859999775886536,0.37941378355026245,0.8946666717529297
140,0.4259437024593353,0.8920000195503235,0.37827232480049133,0.8946666717529297
141,0.4182724058628082,0.8939999938011169,0.37705931067466736,0.895111083984375
142,0.421040803194046,0.878000020980835,0.37588024139404297,0.895111083984375
143,0.40795421600341797,0.8939999938011169,0.37476664781570435,0.8953333497047424
144,0.41993099451065063,0.8920000195503235,0.3736373484134674,0.8957777619361877
145,0.4042852222919464,0.8899999856948853,0.37254950404167175,0.8957777619361877
146,0.4103776812553406,0.8939999938011169,0.3715308606624603,0.8957777619361877
147,0.4100308418273926,0.8920000195503235,0.3704935908317566,0.8960000276565552
148,0.4132046103477478,0.8980000019073486,0.36954599618911743,0.8964444398880005
149,0.40432003140449524,0.8999999761581421,0.368514746427536,0.8964444398880005
150,0.4040318727493286,0.8960000276565552,0.36753225326538086,0.8964444398880005
151,0.4036702811717987,0.8980000019073486,0.366546094417572,0.8966666460037231
152,0.4175877869129181,0.906000018119812,0.36562874913215637,0.8971111178398132
153,0.37951716780662537,0.9039999842643738,0.3647726774215698,0.8971111178398132
154,0.40032777190208435,0.9020000100135803,0.36381474137306213,0.8973333239555359
155,0.3946709632873535,0.9020000100135803,0.3629569113254547,0.8975555300712585
156,0.39395052194595337,0.9020000100135803,0.36208996176719666,0.897777795791626
157,0.39570721983909607,0.8920000195503235,0.3612281382083893,0.8982222080230713
158,0.3878479301929474,0.9039999842643738,0.3603511154651642,0.8982222080230713
159,0.38220053911209106,0.906000018119812,0.3595196604728699,0.8982222080230713
160,0.3932908773422241,0.9079999923706055,0.3587409555912018,0.8982222080230713
161,0.38222989439964294,0.8939999938011169,0.35792937874794006,0.8982222080230713
162,0.3834284842014313,0.8980000019073486,0.35716670751571655,0.8982222080230713
163,0.38919880986213684,0.9100000262260437,0.3564472496509552,0.8982222080230713
164,0.3997522294521332,0.8980000019073486,0.355759859085083,0.8982222080230713
165,0.3811551332473755,0.906000018119812,0.35497888922691345,0.8982222080230713
166,0.391986608505249,0.8920000195503235,0.3542512357234955,0.8984444737434387
167,0.3749085068702698,0.8999999761581421,0.35355204343795776,0.8984444737434387
168,0.3733924329280853,0.9139999747276306,0.35286417603492737,0.8986666798591614
169,0.3803997337818146,0.8939999938011169,0.3522217273712158,0.8984444737434387
170,0.3699040710926056,0.8960000276565552,0.35152167081832886,0.8986666798591614
171,0.388304740190506,0.8999999761581421,0.350887656211853,0.8986666798591614
172,0.3712010383605957,0.9079999923706055,0.3502102494239807,0.898888885974884
173,0.37110084295272827,0.8960000276565552,0.3494991958141327,0.8993333578109741
174,0.37662386894226074,0.8999999761581421,0.34879353642463684,0.8993333578109741
175,0.3814299404621124,0.8980000019073486,0.34816092252731323,0.8995555639266968
176,0.38263678550720215,0.9139999747276306,0.3476068079471588,0.8997777700424194
177,0.3681134283542633,0.9100000262260437,0.3470691442489624,0.8999999761581421
178,0.3818890154361725,0.8980000019073486,0.3464338183403015,0.8999999761581421
179,0.36897510290145874,0.8960000276565552,0.34575244784355164,0.8999999761581421
180,0.377667635679245,0.9079999923706055,0.3451402485370636,0.8999999761581421
181,0.3738262355327606,0.9079999923706055,0.34462451934814453,0.8999999761581421
182,0.36862149834632874,0.9020000100135803,0.3441358208656311,0.8999999761581421
183,0.37240758538246155,0.9079999923706055,0.34356772899627686,0.8999999761581421
184,0.36454975605010986,0.9100000262260437,0.3430127203464508,0.9002222418785095
185,0.3570510447025299,0.9039999842643738,0.34251314401626587,0.9004444479942322
186,0.36311572790145874,0.8999999761581421,0.3419110178947449,0.9011111259460449
187,0.35333409905433655,0.9139999747276306,0.341413676738739,0.9011111259460449
188,0.3476686477661133,0.9100000262260437,0.3409264087677002,0.9013333320617676
189,0.3570733964443207,0.9039999842643738,0.3404300808906555,0.9013333320617676
190,0.3472563624382019,0.9079999923706055,0.33992815017700195,0.9013333320617676
191,0.36044153571128845,0.9079999923706055,0.33944588899612427,0.9015555381774902
192,0.35967203974723816,0.9079999923706055,0.33898064494132996,0.9015555381774902
193,0.3639095723628998,0.9100000262260437,0.33847516775131226,0.9015555381774902
194,0.3629336655139923,0.9100000262260437,0.33799678087234497,0.9015555381774902
195,0.34954455494880676,0.9100000262260437,0.3374931812286377,0.9015555381774902
196,0.35460516810417175,0.9079999923706055,0.33698374032974243,0.9015555381774902
197,0.35433128476142883,0.9079999923706055,0.3365020453929901,0.9017778038978577
198,0.36249276995658875,0.906000018119812,0.33602210879325867,0.9017778038978577
199,0.35698309540748596,0.8999999761581421,0.33555924892425537,0.9017778038978577
200,0.36010345816612244,0.906000018119812,0.3351747989654541,0.9020000100135803
201,0.3554728627204895,0.8999999761581421,0.3347453474998474,0.902222216129303
202,0.34473955631256104,0.9100000262260437,0.3343317210674286,0.902222216129303
203,0.3525218367576599,0.9039999842643738,0.3338775634765625,0.9024444222450256
204,0.37208735942840576,0.9079999923706055,0.3334334194660187,0.9024444222450256
205,0.3512892425060272,0.906000018119812,0.3330339789390564,0.9026666879653931
206,0.359092116355896,0.9120000004768372,0.33264756202697754,0.9028888940811157
207,0.36096346378326416,0.8939999938011169,0.3321305811405182,0.9028888940811157
208,0.3582284450531006,0.9020000100135803,0.33177125453948975,0.9028888940811157
209,0.34267088770866394,0.9139999747276306,0.3313892185688019,0.9031111001968384
210,0.3353789746761322,0.9079999923706055,0.3309720456600189,0.903333306312561
211,0.3473514914512634,0.9100000262260437,0.3304908871650696,0.9037777781486511
212,0.3563334047794342,0.9139999747276306,0.33009129762649536,0.9037777781486511
213,0.34156158566474915,0.9200000166893005,0.3297267258167267,0.9037777781486511
214,0.3405199646949768,0.9020000100135803,0.3293164074420929,0.9037777781486511
215,0.3355167508125305,0.9120000004768372,0.32891082763671875,0.9037777781486511
216,0.32948288321495056,0.9120000004768372,0.3285258412361145,0.9037777781486511
217,0.3399465084075928,0.9139999747276306,0.32815515995025635,0.9037777781486511
218,0.33855974674224854,0.9120000004768372,0.32769712805747986,0.9035555720329285
219,0.33093518018722534,0.9079999923706055,0.3273066580295563,0.9037777781486511
220,0.34011831879615784,0.8999999761581421,0.32690879702568054,0.9037777781486511
221,0.3345455825328827,0.9079999923706055,0.32661738991737366,0.9039999842643738
222,0.3506467640399933,0.906000018119812,0.3262757956981659,0.9039999842643738
223,0.33010250329971313,0.9160000085830688,0.3259681761264801,0.9039999842643738
224,0.3407677114009857,0.8999999761581421,0.3256568908691406,0.9039999842643738
225,0.3537493944168091,0.9139999747276306,0.32533565163612366,0.9039999842643738
226,0.3490636944770813,0.9079999923706055,0.3250317871570587,0.9042222499847412
227,0.3385479152202606,0.9179999828338623,0.32466092705726624,0.9044444561004639
228,0.3299674391746521,0.9179999828338623,0.32432302832603455,0.9044444561004639
229,0.3296913206577301,0.9139999747276306,0.3239841163158417,0.9044444561004639
230,0.3359242379665375,0.9120000004768372,0.3236292898654938,0.9044444561004639
231,0.3290144205093384,0.9100000262260437,0.3233051598072052,0.9044444561004639
232,0.3175976276397705,0.921999990940094,0.32302427291870117,0.9046666622161865
233,0.35131093859672546,0.9100000262260437,0.32268938422203064,0.9046666622161865
234,0.3317125141620636,0.9079999923706055,0.32240596413612366,0.9048888683319092
235,0.3319084644317627,0.9139999747276306,0.32204294204711914,0.9048888683319092
236,0.33251169323921204,0.9079999923706055,0.321767657995224,0.9048888683319092
237,0.3183610439300537,0.9160000085830688,0.3214816749095917,0.9048888683319092
238,0.33801382780075073,0.9100000262260437,0.3211503028869629,0.9048888683319092
239,0.324684739112854,0.9200000166893005,0.3208279609680176,0.9053333401679993
240,0.34345144033432007,0.9079999923706055,0.32047393918037415,0.9053333401679993
241,0.3318968415260315,0.9120000004768372,0.32013747096061707,0.9053333401679993
242,0.3218544125556946,0.9160000085830688,0.31983888149261475,0.9053333401679993
243,0.33043092489242554,0.9120000004768372,0.31954488158226013,0.9053333401679993
244,0.32493749260902405,0.9020000100135803,0.3192075788974762,0.9053333401679993
245,0.31713220477104187,0.9160000085830688,0.31892091035842896,0.9053333401679993
246,0.31805798411369324,0.9179999828338623,0.31864118576049805,0.9053333401679993
247,0.33193448185920715,0.9120000004768372,0.3183339834213257,0.9053333401679993
248,0.326560914516449,0.9120000004768372,0.3179866075515747,0.9053333401679993
249,0.31976357102394104,0.9139999747276306,0.3176399767398834,0.9053333401679993
250,0.32195526361465454,0.9139999747276306,0.31726548075675964,0.9055555462837219
251,0.3217090368270874,0.9179999828338623,0.31696367263793945,0.9055555462837219
252,0.33121854066848755,0.9139999747276306,0.3167049288749695,0.9055555462837219
253,0.32110756635665894,0.9200000166893005,0.3163982033729553,0.9055555462837219
254,0.3366627097129822,0.9200000166893005,0.31611454486846924,0.9057777523994446
255,0.3244746923446655,0.9179999828338623,0.3158654272556305,0.9057777523994446
256,0.3332281708717346,0.9179999828338623,0.31553587317466736,0.9057777523994446
257,0.32158124446868896,0.9139999747276306,0.3152647614479065,0.9057777523994446
258,0.31342869997024536,0.9139999747276306,0.3150162994861603,0.9057777523994446
259,0.32587018609046936,0.9100000262260437,0.31474971771240234,0.9057777523994446
260,0.3098737895488739,0.9139999747276306,0.3144351541996002,0.9057777523994446
261,0.3199467360973358,0.9100000262260437,0.3141610324382782,0.9057777523994446
262,0.31024497747421265,0.9160000085830688,0.3139178454875946,0.9057777523994446
263,0.3171434998512268,0.9160000085830688,0.31359824538230896,0.9057777523994446
264,0.32053709030151367,0.9139999747276306,0.3133556842803955,0.9057777523994446
265,0.313694566488266,0.9139999747276306,0.313086599111557,0.9057777523994446
266,0.3226708471775055,0.9120000004768372,0.31280186772346497,0.9057777523994446
267,0.32026422023773193,0.9160000085830688,0.3125602602958679,0.9057777523994446
268,0.3277881145477295,0.9179999828338623,0.31229791045188904,0.9057777523994446
269,0.31456872820854187,0.9120000004768372,0.31211915612220764,0.906000018119812
270,0.3104233145713806,0.921999990940094,0.3118773102760315,0.9062222242355347
271,0.3065856099128723,0.9120000004768372,0.31160056591033936,0.9062222242355347
272,0.30784133076667786,0.9120000004768372,0.31138554215431213,0.9062222242355347
273,0.32398560643196106,0.9120000004768372,0.31110647320747375,0.9062222242355347
274,0.3001583218574524,0.9160000085830688,0.3108472526073456,0.9062222242355347
275,0.3165663182735443,0.9160000085830688,0.31065255403518677,0.9062222242355347
276,0.3090614378452301,0.9139999747276306,0.3103882670402527,0.9064444303512573
277,0.3201579451560974,0.9200000166893005,0.31013384461402893,0.9064444303512573
278,0.31968700885772705,0.9200000166893005,0.3099147081375122,0.9066666960716248
279,0.3100275695323944,0.9120000004768372,0.3096463084220886,0.9066666960716248
280,0.31287112832069397,0.9160000085830688,0.30942487716674805,0.9066666960716248
281,0.2951904237270355,0.9200000166893005,0.30912595987319946,0.9066666960716248
282,0.31398624181747437,0.9179999828338623,0.3088495135307312,0.9066666960716248
283,0.31524088978767395,0.9160000085830688,0.3086088299751282,0.9066666960716248
284,0.3190220892429352,0.9079999923706055,0.30837953090667725,0.9066666960716248
285,0.30749666690826416,0.9100000262260437,0.3081362247467041,0.9066666960716248
286,0.3116247057914734,0.9179999828338623,0.3078528940677643,0.9066666960716248
287,0.30760806798934937,0.9200000166893005,0.30761080980300903,0.9066666960716248
288,0.30144479870796204,0.9259999990463257,0.3073493242263794,0.9066666960716248
289,0.3027644157409668,0.921999990940094,0.30711081624031067,0.9066666960716248
290,0.32048851251602173,0.9200000166893005,0.3068503141403198,0.9066666960716248
291,0.3217813968658447,0.9079999923706055,0.30659040808677673,0.9068889021873474
292,0.3228975534439087,0.9179999828338623,0.30632874369621277,0.9068889021873474
293,0.30216509103775024,0.9160000085830688,0.30609527230262756,0.9068889021873474
294,0.30000045895576477,0.9200000166893005,0.3058672547340393,0.9071111083030701
295,0.31236618757247925,0.9160000085830688,0.30560097098350525,0.9073333144187927
296,0.3040338456630707,0.9100000262260437,0.3053781986236572,0.9073333144187927
297,0.3039380609989166,0.921999990940094,0.30513855814933777,0.9073333144187927
298,0.3196246922016144,0.9179999828338623,0.3049212098121643,0.9073333144187927
299,0.316424161195755,0.9259999990463257,0.3046836853027344,0.9073333144187927
300,0.29485946893692017,0.9179999828338623,0.30436980724334717,0.9073333144187927
301,0.30829086899757385,0.9259999990463257,0.3041422963142395,0.9075555801391602
302,0.3086884021759033,0.921999990940094,0.30388110876083374,0.9077777862548828
303,0.3069225251674652,0.921999990940094,0.30365580320358276,0.9077777862548828
304,0.32180750370025635,0.9139999747276306,0.3034164309501648,0.9077777862548828
305,0.31840160489082336,0.9139999747276306,0.30320408940315247,0.9077777862548828
306,0.326501727104187,0.9160000085830688,0.3029665946960449,0.9077777862548828
307,0.29972946643829346,0.9160000085830688,0.3027569055557251,0.9077777862548828
308,0.29555174708366394,0.9200000166893005,0.30255547165870667,0.9077777862548828
309,0.3091980814933777,0.9240000247955322,0.30240878462791443,0.9079999923706055
310,0.29610028862953186,0.9139999747276306,0.3022211790084839,0.9079999923706055
311,0.30976346135139465,0.9179999828338623,0.301923930644989,0.9079999923706055
312,0.3083117604255676,0.9139999747276306,0.30169451236724854,0.9082221984863281
313,0.2967197597026825,0.9179999828338623,0.3014843761920929,0.9082221984863281
314,0.2940428853034973,0.9200000166893005,0.30126136541366577,0.9084444642066956
315,0.3077237010002136,0.9160000085830688,0.3010283410549164,0.9086666703224182
316,0.31416356563568115,0.9200000166893005,0.30080702900886536,0.9086666703224182
317,0.3086983859539032,0.9120000004768372,0.30054399371147156,0.9086666703224182
318,0.28904470801353455,0.9200000166893005,0.30031758546829224,0.9086666703224182
319,0.32172828912734985,0.9240000247955322,0.30007338523864746,0.9086666703224182
320,0.29940006136894226,0.921999990940094,0.2998028099536896,0.9088888764381409
321,0.3036591410636902,0.9200000166893005,0.2995777726173401,0.9086666703224182
322,0.3161493241786957,0.9160000085830688,0.2992698848247528,0.9088888764381409
323,0.29511758685112,0.9200000166893005,0.29910850524902344,0.9088888764381409
324,0.29741454124450684,0.921999990940094,0.2988913059234619,0.9088888764381409
325,0.30340608954429626,0.9120000004768372,0.29867681860923767,0.9091110825538635
326,0.2862909436225891,0.9160000085830688,0.2984674274921417,0.9091110825538635
327,0.31615063548088074,0.9120000004768372,0.29825058579444885,0.9091110825538635
328,0.2841230034828186,0.9179999828338623,0.29809021949768066,0.9091110825538635
329,0.29528942704200745,0.9120000004768372,0.297864705324173,0.9091110825538635
330,0.2826405167579651,0.9179999828338623,0.29768940806388855,0.9091110825538635
331,0.3054366707801819,0.9139999747276306,0.2974063456058502,0.909333348274231
332,0.3061649799346924,0.9160000085830688,0.297203004360199,0.9095555543899536
333,0.3106134831905365,0.9179999828338623,0.29694274067878723,0.9097777605056763
334,0.3071255385875702,0.9240000247955322,0.29675519466400146,0.9097777605056763
335,0.28514567017555237,0.9200000166893005,0.29657191038131714,0.9097777605056763
336,0.3034941852092743,0.9160000085830688,0.2963481843471527,0.9097777605056763
337,0.30808088183403015,0.9200000166893005,0.2961619794368744,0.9095555543899536
338,0.303891122341156,0.9160000085830688,0.29599034786224365,0.9095555543899536
339,0.2900184094905853,0.9179999828338623,0.2958320677280426,0.9095555543899536
340,0.2980189323425293,0.9200000166893005,0.29564782977104187,0.9097777605056763
341,0.28708088397979736,0.9179999828338623,0.2954709827899933,0.9097777605056763
342,0.3056288957595825,0.9160000085830688,0.2952587902545929,0.9100000262260437
343,0.31261301040649414,0.9139999747276306,0.2951053977012634,0.9100000262260437
344,0.29180628061294556,0.9200000166893005,0.2949409484863281,0.9100000262260437
345,0.3034597635269165,0.9200000166893005,0.2947390079498291,0.9102222323417664
346,0.303413063287735,0.9120000004768372,0.2945101857185364,0.9102222323417664
347,0.29237258434295654,0.9160000085830688,0.29433178901672363,0.9102222323417664
348,0.3039092719554901,0.9160000085830688,0.2940584719181061,0.9102222323417664
349,0.2903280556201935,0.921999990940094,0.293840616941452,0.910444438457489
350,0.29989564418792725,0.9179999828338623,0.29363274574279785,0.9106666445732117
351,0.3002395033836365,0.9139999747276306,0.29344454407691956,0.9106666445732117
352,0.29295289516448975,0.9120000004768372,0.2932436764240265,0.9106666445732117
353,0.2875499129295349,0.9240000247955322,0.2930680811405182,0.9106666445732117
354,0.2811580300331116,0.9240000247955322,0.29283860325813293,0.9106666445732117
355,0.289590448141098,0.9160000085830688,0.29265040159225464,0.9106666445732117
356,0.2906666100025177,0.9160000085830688,0.2924801707267761,0.9106666445732117
357,0.28675833344459534,0.9200000166893005,0.2922903895378113,0.9106666445732117
358,0.29452842473983765,0.9200000166893005,0.2921343445777893,0.910444438457489
359,0.2750035524368286,0.9259999990463257,0.29197603464126587,0.9106666445732117
360,0.2925480306148529,0.9240000247955322,0.29185545444488525,0.910444438457489
361,0.27875152230262756,0.9240000247955322,0.29165196418762207,0.910444438457489
362,0.28137409687042236,0.9120000004768372,0.29147887229919434,0.910444438457489
363,0.2929556965827942,0.9179999828338623,0.29126113653182983,0.9106666445732117
364,0.2867658734321594,0.9160000085830688,0.29103603959083557,0.9106666445732117
365,0.29259151220321655,0.9160000085830688,0.2908512055873871,0.9106666445732117
366,0.27614134550094604,0.9120000004768372,0.2907317578792572,0.9106666445732117
367,0.2823641896247864,0.9120000004768372,0.2905617952346802,0.9108889102935791
368,0.29374510049819946,0.9200000166893005,0.29040804505348206,0.9106666445732117
369,0.2943958342075348,0.9139999747276306,0.29028573632240295,0.9108889102935791
370,0.287289023399353,0.9179999828338623,0.2901463806629181,0.9108889102935791
371,0.27913960814476013,0.921999990940094,0.2900151312351227,0.9106666445732117
372,0.2595210075378418,0.9240000247955322,0.2898344397544861,0.9108889102935791
373,0.28945401310920715,0.9179999828338623,0.2896963655948639,0.9108889102935791
374,0.2823123633861542,0.9240000247955322,0.28953805565834045,0.9108889102935791
375,0.2795831561088562,0.9240000247955322,0.2893804907798767,0.9108889102935791
376,0.3024263381958008,0.9120000004768372,0.2891508936882019,0.9108889102935791
377,0.2839936316013336,0.9200000166893005,0.2889817953109741,0.9108889102935791
378,0.2875501215457916,0.9200000166893005,0.28884968161582947,0.9111111164093018
379,0.29548197984695435,0.9160000085830688,0.28873538970947266,0.9108889102935791
380,0.28861886262893677,0.9139999747276306,0.288546621799469,0.9111111164093018
381,0.2885587513446808,0.9179999828338623,0.2883702218532562,0.9108889102935791
382,0.2945896089076996,0.9139999747276306,0.28815582394599915,0.9111111164093018
383,0.2895992398262024,0.9120000004768372,0.28799501061439514,0.9111111164093018
384,0.2795482277870178,0.9179999828338623,0.2877671420574188,0.9111111164093018
385,0.28392133116722107,0.9200000166893005,0.28761717677116394,0.9111111164093018
386,0.2755546271800995,0.9259999990463257,0.2874046564102173,0.9111111164093018
387,0.2845853269100189,0.921999990940094,0.287205308675766,0.9111111164093018
388,0.2859063744544983,0.9179999828338623,0.28703445196151733,0.9111111164093018
389,0.29452455043792725,0.921999990940094,0.2868720293045044,0.9111111164093018
390,0.28577837347984314,0.9240000247955322,0.2866705358028412,0.9111111164093018
391,0.29138725996017456,0.921999990940094,0.28643009066581726,0.9111111164093018
392,0.27215707302093506,0.9160000085830688,0.286249577999115,0.9111111164093018
393,0.2851814329624176,0.9279999732971191,0.2860621213912964,0.9111111164093018
394,0.28230470418930054,0.9160000085830688,0.2858763337135315,0.9111111164093018
395,0.27595415711402893,0.9240000247955322,0.28574138879776,0.9111111164093018
396,0.26941508054733276,0.9240000247955322,0.285551518201828,0.9111111164093018
397,0.27837473154067993,0.921999990940094,0.2854083776473999,0.9111111164093018
398,0.27208495140075684,0.9200000166893005,0.28524816036224365,0.9111111164093018
399,0.27917149662971497,0.9259999990463257,0.2851390540599823,0.9115555286407471
400,0.2780863046646118,0.9240000247955322,0.28494417667388916,0.9115555286407471
401,0.28519028425216675,0.9279999732971191,0.2847995162010193,0.9115555286407471
402,0.27079397439956665,0.9179999828338623,0.28463315963745117,0.9115555286407471
403,0.2696159780025482,0.921999990940094,0.2844964265823364,0.9115555286407471
404,0.27438393235206604,0.9139999747276306,0.28438353538513184,0.9115555286407471
405,0.2686620354652405,0.9279999732971191,0.2842612564563751,0.9117777943611145
406,0.29338347911834717,0.9139999747276306,0.2841121256351471,0.9117777943611145
407,0.2933184802532196,0.9240000247955322,0.2838803231716156,0.9117777943611145
408,0.28203603625297546,0.9200000166893005,0.2837141454219818,0.9117777943611145
409,0.2906363606452942,0.9179999828338623,0.2835654616355896,0.9117777943611145
410,0.26461371779441833,0.921999990940094,0.28338369727134705,0.9117777943611145
411,0.2817174792289734,0.9179999828338623,0.2831966280937195,0.9117777943611145
412,0.28162673115730286,0.9179999828338623,0.2830028235912323,0.9117777943611145
413,0.2656092345714569,0.9259999990463257,0.28281667828559875,0.9117777943611145
414,0.27508780360221863,0.921999990940094,0.2826956510543823,0.9120000004768372
415,0.28071966767311096,0.9179999828338623,0.2825005352497101,0.9120000004768372
416,0.27543020248413086,0.921999990940094,0.2823716700077057,0.9120000004768372
417,0.28334009647369385,0.9200000166893005,0.2822394073009491,0.9120000004768372
418,0.2827364504337311,0.9179999828338623,0.282045841217041,0.9120000004768372
419,0.27917537093162537,0.9200000166893005,0.28188562393188477,0.9120000004768372
420,0.28285932540893555,0.9200000166893005,0.28176870942115784,0.9120000004768372
421,0.2832224369049072,0.921999990940094,0.2815456688404083,0.9120000004768372
422,0.2844392657279968,0.921999990940094,0.28137433528900146,0.9120000004768372
423,0.26860740780830383,0.9179999828338623,0.2811441421508789,0.9120000004768372
424,0.2745235860347748,0.921999990940094,0.2809962034225464,0.9120000004768372
425,0.2641542851924896,0.9200000166893005,0.28083112835884094,0.9120000004768372
426,0.27811792492866516,0.9139999747276306,0.2807275652885437,0.9120000004768372
427,0.27493998408317566,0.921999990940094,0.2805556356906891,0.9122222065925598
428,0.291321337223053,0.921999990940094,0.28036147356033325,0.9122222065925598
429,0.27365192770957947,0.9179999828338623,0.2802198827266693,0.9122222065925598
430,0.2689661979675293,0.921999990940094,0.28005754947662354,0.9122222065925598
431,0.2744333744049072,0.9259999990463257,0.2798696458339691,0.9126666784286499
432,0.2704012393951416,0.9259999990463257,0.27973002195358276,0.9128888845443726
433,0.27518534660339355,0.921999990940094,0.2796367108821869,0.9128888845443726
434,0.2648977041244507,0.921999990940094,0.27955126762390137,0.9128888845443726
435,0.27429619431495667,0.921999990940094,0.27937811613082886,0.9128888845443726
436,0.28495246171951294,0.921999990940094,0.2792060673236847,0.9128888845443726
437,0.27476736903190613,0.9240000247955322,0.27906695008277893,0.9128888845443726
438,0.26959410309791565,0.9279999732971191,0.2789030075073242,0.9128888845443726
439,0.2655033469200134,0.9240000247955322,0.2787225842475891,0.9128888845443726
440,0.2553449273109436,0.9279999732971191,0.27862659096717834,0.9128888845443726
441,0.2634233832359314,0.9240000247955322,0.2784685790538788,0.9128888845443726
442,0.27987757325172424,0.9139999747276306,0.2783844470977783,0.9128888845443726
443,0.26755309104919434,0.9240000247955322,0.27825552225112915,0.9128888845443726
444,0.27632594108581543,0.9179999828338623,0.27806493639945984,0.9128888845443726
445,0.2752637565135956,0.9179999828338623,0.2779364287853241,0.9128888845443726
446,0.2615866959095001,0.9259999990463257,0.2778641879558563,0.9128888845443726
447,0.26476892828941345,0.9200000166893005,0.2776401937007904,0.9128888845443726
448,0.26976582407951355,0.9179999828338623,0.2774907052516937,0.9128888845443726
449,0.2818852961063385,0.9139999747276306,0.27731674909591675,0.9128888845443726
450,0.2733060121536255,0.9240000247955322,0.2772085964679718,0.9128888845443726
451,0.2704589366912842,0.921999990940094,0.2770976722240448,0.9128888845443726
452,0.26581525802612305,0.9240000247955322,0.2769812345504761,0.9128888845443726
453,0.26320716738700867,0.9200000166893005,0.2768213450908661,0.9128888845443726
454,0.2746722102165222,0.921999990940094,0.27670058608055115,0.9128888845443726
455,0.2664438784122467,0.9259999990463257,0.2765229344367981,0.9128888845443726
456,0.2761046290397644,0.9160000085830688,0.27638110518455505,0.9128888845443726
457,0.27496883273124695,0.9179999828338623,0.27630263566970825,0.9128888845443726
458,0.26552754640579224,0.921999990940094,0.2761988043785095,0.9128888845443726
459,0.2832106649875641,0.9160000085830688,0.2760409414768219,0.9128888845443726
460,0.2656169533729553,0.9179999828338623,0.27591732144355774,0.9128888845443726
461,0.26969093084335327,0.9240000247955322,0.2758220136165619,0.9131110906600952
462,0.2705634534358978,0.9200000166893005,0.2757114768028259,0.9131110906600952
463,0.27994492650032043,0.921999990940094,0.27551212906837463,0.9131110906600952
464,0.2745976746082306,0.9259999990463257,0.2753406763076782,0.9131110906600952
465,0.27689099311828613,0.9240000247955322,0.27511996030807495,0.9131110906600952
466,0.2592430114746094,0.9240000247955322,0.27495077252388,0.9131110906600952
467,0.2693328261375427,0.921999990940094,0.27476292848587036,0.9131110906600952
468,0.25673186779022217,0.9259999990463257,0.27461162209510803,0.9131110906600952
469,0.27386775612831116,0.921999990940094,0.2744605839252472,0.9131110906600952
470,0.276315838098526,0.921999990940094,0.2743281424045563,0.9131110906600952
471,0.26380693912506104,0.9160000085830688,0.2741340398788452,0.9131110906600952
472,0.27538031339645386,0.9279999732971191,0.27393200993537903,0.9131110906600952
473,0.26788032054901123,0.921999990940094,0.2737794518470764,0.9133333563804626
474,0.26894626021385193,0.9240000247955322,0.27362364530563354,0.9133333563804626
475,0.26019805669784546,0.921999990940094,0.27356579899787903,0.9133333563804626
476,0.2733776271343231,0.9160000085830688,0.273409903049469,0.9133333563804626
477,0.2522335648536682,0.921999990940094,0.2732343375682831,0.9133333563804626
478,0.27103763818740845,0.9179999828338623,0.273101270198822,0.9133333563804626
479,0.263060599565506,0.9279999732971191,0.2729268968105316,0.9133333563804626
480,0.267101526260376,0.921999990940094,0.27281850576400757,0.9133333563804626
481,0.2587229609489441,0.9279999732971191,0.2727212905883789,0.9133333563804626
482,0.2703196406364441,0.9240000247955322,0.27254652976989746,0.9133333563804626
483,0.2669685184955597,0.9240000247955322,0.2723788619041443,0.9133333563804626
484,0.2616504430770874,0.921999990940094,0.2722371220588684,0.9133333563804626
485,0.26493513584136963,0.9279999732971191,0.2721252143383026,0.9133333563804626
486,0.26672276854515076,0.9200000166893005,0.2720268666744232,0.9133333563804626
487,0.2718140184879303,0.9259999990463257,0.2719251215457916,0.9133333563804626
488,0.2596798837184906,0.921999990940094,0.2717796862125397,0.9133333563804626
489,0.26963168382644653,0.9240000247955322,0.271605908870697,0.9133333563804626
490,0.2719092071056366,0.9179999828338623,0.27149444818496704,0.9133333563804626
491,0.26530423760414124,0.9200000166893005,0.27132487297058105,0.9133333563804626
492,0.2680050730705261,0.9259999990463257,0.2711932361125946,0.9133333563804626
493,0.2512895464897156,0.9240000247955322,0.2711077630519867,0.9133333563804626
494,0.26274144649505615,0.9179999828338623,0.27100419998168945,0.9133333563804626
495,0.2529543340206146,0.9240000247955322,0.27083513140678406,0.9133333563804626
496,0.25780415534973145,0.921999990940094,0.27069148421287537,0.9133333563804626
497,0.2674609422683716,0.9200000166893005,0.27054813504219055,0.9133333563804626
498,0.26683470606803894,0.9240000247955322,0.27039775252342224,0.9133333563804626
499,0.2588288486003876,0.9240000247955322,0.2702608108520508,0.9133333563804626
500,0.2774524986743927,0.9240000247955322,0.2701524794101715,0.9133333563804626
501,0.2691713869571686,0.9200000166893005,0.27003660798072815,0.9133333563804626
502,0.2605251967906952,0.9200000166893005,0.2698762118816376,0.9133333563804626
503,0.24890312552452087,0.921999990940094,0.26980000734329224,0.9133333563804626
504,0.25303301215171814,0.9240000247955322,0.269709974527359,0.9133333563804626
505,0.23530422151088715,0.9240000247955322,0.2695506811141968,0.9133333563804626
506,0.26380765438079834,0.9200000166893005,0.26947906613349915,0.9133333563804626
507,0.2737516462802887,0.9200000166893005,0.26940277218818665,0.9133333563804626
508,0.26106226444244385,0.9160000085830688,0.2692510783672333,0.9133333563804626
509,0.2633894979953766,0.9240000247955322,0.26914095878601074,0.9133333563804626
510,0.25885432958602905,0.9240000247955322,0.2690153419971466,0.9133333563804626
511,0.2497478574514389,0.9240000247955322,0.26883673667907715,0.9133333563804626
512,0.26015838980674744,0.9200000166893005,0.2686760425567627,0.9133333563804626
513,0.2602648437023163,0.9240000247955322,0.26859018206596375,0.9131110906600952
514,0.2686323821544647,0.9279999732971191,0.26854151487350464,0.9131110906600952
515,0.2680906653404236,0.9240000247955322,0.26842278242111206,0.9131110906600952
516,0.28218480944633484,0.9179999828338623,0.26839810609817505,0.9131110906600952
517,0.26003167033195496,0.9259999990463257,0.2682439088821411,0.9131110906600952
518,0.2638300061225891,0.9160000085830688,0.26812097430229187,0.9131110906600952
519,0.2662951350212097,0.9259999990463257,0.2679827809333801,0.9131110906600952
520,0.2655508518218994,0.921999990940094,0.26782944798469543,0.9131110906600952
521,0.2610538899898529,0.9200000166893005,0.2676231265068054,0.9131110906600952
522,0.26543688774108887,0.9240000247955322,0.2675246000289917,0.9131110906600952
523,0.278984010219574,0.921999990940094,0.26736125349998474,0.9131110906600952
524,0.2708476483821869,0.921999990940094,0.2672055959701538,0.9131110906600952
525,0.25508904457092285,0.9160000085830688,0.26709190011024475,0.9131110906600952
526,0.25050872564315796,0.9300000071525574,0.26702967286109924,0.9131110906600952
527,0.26857662200927734,0.921999990940094,0.2669256329536438,0.9131110906600952
528,0.2640540599822998,0.9279999732971191,0.26683709025382996,0.9131110906600952
529,0.2745929956436157,0.9200000166893005,0.26676106452941895,0.9133333563804626
530,0.26324784755706787,0.9259999990463257,0.2666358947753906,0.9133333563804626
531,0.2760779857635498,0.9200000166893005,0.2665596902370453,0.9135555624961853
532,0.26676586270332336,0.9200000166893005,0.26651448011398315,0.9135555624961853
533,0.25925135612487793,0.9240000247955322,0.26640844345092773,0.9135555624961853
534,0.2534080147743225,0.9259999990463257,0.2662583887577057,0.9135555624961853
535,0.24984879791736603,0.9279999732971191,0.2661281228065491,0.9135555624961853
536,0.25825780630111694,0.921999990940094,0.2659832239151001,0.9135555624961853
537,0.2516036033630371,0.9240000247955322,0.2658841907978058,0.9135555624961853
538,0.27047985792160034,0.921999990940094,0.26574206352233887,0.9135555624961853
539,0.27877041697502136,0.9139999747276306,0.2656084895133972,0.9135555624961853
540,0.2546006739139557,0.9259999990463257,0.26552101969718933,0.9135555624961853
541,0.25487592816352844,0.9240000247955322,0.2654120624065399,0.913777768611908
542,0.26148998737335205,0.921999990940094,0.2653079032897949,0.913777768611908
543,0.262871116399765,0.9200000166893005,0.2652091383934021,0.913777768611908
544,0.2463894933462143,0.9200000166893005,0.265087366104126,0.913777768611908
545,0.24239438772201538,0.9240000247955322,0.2649565041065216,0.913777768611908
546,0.25758096575737,0.9279999732971191,0.2648316025733948,0.913777768611908
547,0.2475701868534088,0.9259999990463257,0.26474565267562866,0.9139999747276306
548,0.2651790678501129,0.921999990940094,0.2646656036376953,0.9139999747276306
549,0.28326910734176636,0.9200000166893005,0.26452526450157166,0.9139999747276306
550,0.26018226146698,0.921999990940094,0.2644593119621277,0.9139999747276306
551,0.2523518204689026,0.9259999990463257,0.2643898129463196,0.9139999747276306
552,0.25610584020614624,0.921999990940094,0.2643004357814789,0.9139999747276306
553,0.2539108991622925,0.9100000262260437,0.26412805914878845,0.9139999747276306
554,0.259211003780365,0.9240000247955322,0.263992577791214,0.9139999747276306
555,0.25194138288497925,0.9240000247955322,0.26385846734046936,0.9139999747276306
556,0.2524453103542328,0.921999990940094,0.2637867331504822,0.9139999747276306
557,0.2587699592113495,0.9179999828338623,0.26368194818496704,0.9139999747276306
558,0.25518321990966797,0.9160000085830688,0.2636159658432007,0.9139999747276306
559,0.2544291019439697,0.9200000166893005,0.26349949836730957,0.9139999747276306
560,0.24608443677425385,0.9279999732971191,0.2633221447467804,0.9139999747276306
561,0.2613629996776581,0.9179999828338623,0.263189435005188,0.9139999747276306
562,0.2598585784435272,0.9240000247955322,0.2630402743816376,0.9139999747276306
563,0.2501225173473358,0.921999990940094,0.262980580329895,0.9139999747276306
564,0.2541334629058838,0.9259999990463257,0.26288652420043945,0.9139999747276306
565,0.26149243116378784,0.9240000247955322,0.2627543807029724,0.9139999747276306
566,0.25071656703948975,0.921999990940094,0.2626175880432129,0.9139999747276306
567,0.25582802295684814,0.921999990940094,0.2624676525592804,0.9139999747276306
568,0.23745068907737732,0.9259999990463257,0.26231178641319275,0.9139999747276306
569,0.23936934769153595,0.9279999732971191,0.2621834874153137,0.9139999747276306
570,0.25654327869415283,0.9240000247955322,0.2621009051799774,0.9139999747276306
571,0.2533494830131531,0.9240000247955322,0.26200389862060547,0.9139999747276306
572,0.26602834463119507,0.9200000166893005,0.2618408203125,0.914222240447998
573,0.25174039602279663,0.9259999990463257,0.26172852516174316,0.914222240447998
574,0.2571965456008911,0.921999990940094,0.26161128282546997,0.9139999747276306
575,0.25448134541511536,0.9240000247955322,0.2614991366863251,0.9139999747276306
576,0.273962140083313,0.9240000247955322,0.2614087760448456,0.9144444465637207
577,0.24433758854866028,0.9259999990463257,0.26137855648994446,0.9144444465637207
578,0.23996078968048096,0.9240000247955322,0.2612295150756836,0.9144444465637207
579,0.24829605221748352,0.921999990940094,0.2611623704433441,0.9144444465637207
580,0.24969013035297394,0.9240000247955322,0.2610556483268738,0.9144444465637207
581,0.24778158962726593,0.9200000166893005,0.26099109649658203,0.9144444465637207
582,0.25100740790367126,0.9240000247955322,0.26090651750564575,0.9146666526794434
583,0.24232923984527588,0.9240000247955322,0.26075097918510437,0.9146666526794434
584,0.24200433492660522,0.9240000247955322,0.2606551945209503,0.9144444465637207
585,0.26827698945999146,0.9240000247955322,0.26059088110923767,0.9146666526794434
586,0.25448423624038696,0.9259999990463257,0.26048338413238525,0.9146666526794434
587,0.2545078992843628,0.9200000166893005,0.26036933064460754,0.9146666526794434
588,0.24126866459846497,0.9179999828338623,0.260331928730011,0.9146666526794434
589,0.25568148493766785,0.9200000166893005,0.2602836787700653,0.9144444465637207
590,0.25959065556526184,0.9240000247955322,0.2601926028728485,0.9144444465637207
591,0.24452374875545502,0.9259999990463257,0.26012513041496277,0.9146666526794434
592,0.2526812255382538,0.9179999828338623,0.26005321741104126,0.9146666526794434
593,0.2511656582355499,0.9200000166893005,0.2598939538002014,0.9146666526794434
594,0.25589168071746826,0.921999990940094,0.2598322927951813,0.9146666526794434
595,0.2613959312438965,0.9179999828338623,0.2596912980079651,0.9146666526794434
596,0.24783341586589813,0.921999990940094,0.25958478450775146,0.9146666526794434
597,0.24913057684898376,0.9259999990463257,0.25951772928237915,0.9146666526794434
598,0.2403942048549652,0.9279999732971191,0.2594400644302368,0.9146666526794434
599,0.24913600087165833,0.9200000166893005,0.25932592153549194,0.9146666526794434
600,0.2386704385280609,0.9240000247955322,0.25922584533691406,0.9146666526794434
601,0.2527778744697571,0.9240000247955322,0.25908201932907104,0.9148889183998108
602,0.2634437382221222,0.9200000166893005,0.2590121030807495,0.9148889183998108
603,0.25143420696258545,0.9279999732971191,0.258929580450058,0.9148889183998108
604,0.24899886548519135,0.9279999732971191,0.25886714458465576,0.9148889183998108
605,0.24716447293758392,0.9179999828338623,0.25876232981681824,0.9148889183998108
606,0.25344720482826233,0.921999990940094,0.2586148679256439,0.9148889183998108
607,0.23827335238456726,0.9279999732971191,0.25852328538894653,0.9151111245155334
608,0.2488902062177658,0.9240000247955322,0.2584418058395386,0.9151111245155334
609,0.22986237704753876,0.9259999990463257,0.2583703398704529,0.9151111245155334
610,0.24211257696151733,0.921999990940094,0.2582567036151886,0.9151111245155334
611,0.24327422678470612,0.9259999990463257,0.2581670582294464,0.9151111245155334
612,0.23917332291603088,0.9300000071525574,0.2580980360507965,0.9151111245155334
613,0.24085912108421326,0.9240000247955322,0.2580011188983917,0.9151111245155334
614,0.2470589131116867,0.9240000247955322,0.2578502595424652,0.9151111245155334
615,0.26156097650527954,0.9259999990463257,0.25768232345581055,0.9151111245155334
616,0.23588018119335175,0.9240000247955322,0.2576443552970886,0.9151111245155334
617,0.23359929025173187,0.9279999732971191,0.257525771856308,0.9151111245155334
618,0.2597609758377075,0.9179999828338623,0.25737544894218445,0.9151111245155334
619,0.26397255063056946,0.9139999747276306,0.25729700922966003,0.9151111245155334
620,0.24662025272846222,0.9300000071525574,0.25725212693214417,0.9151111245155334
621,0.22332750260829926,0.9240000247955322,0.2571771442890167,0.9153333306312561
622,0.24852077662944794,0.921999990940094,0.25710538029670715,0.9153333306312561
623,0.23445679247379303,0.9300000071525574,0.2570025622844696,0.9153333306312561
624,0.24982693791389465,0.9259999990463257,0.2569449245929718,0.9153333306312561
625,0.2412777543067932,0.9279999732971191,0.2568853199481964,0.9153333306312561
626,0.24332590401172638,0.9300000071525574,0.25682878494262695,0.9153333306312561
627,0.2450396716594696,0.9240000247955322,0.25677233934402466,0.9153333306312561
628,0.26415666937828064,0.921999990940094,0.2566768229007721,0.9153333306312561
629,0.2413281798362732,0.9259999990463257,0.2565225660800934,0.9153333306312561
630,0.24197790026664734,0.9240000247955322,0.25643062591552734,0.9153333306312561
631,0.2397463619709015,0.9240000247955322,0.25634968280792236,0.9155555367469788
632,0.23597827553749084,0.9200000166893005,0.2562878727912903,0.9155555367469788
633,0.23043660819530487,0.9179999828338623,0.2561819553375244,0.9157778024673462
634,0.25459954142570496,0.9259999990463257,0.2561091482639313,0.9157778024673462
635,0.24479983747005463,0.921999990940094,0.25601622462272644,0.9157778024673462
636,0.2590806484222412,0.9160000085830688,0.25589585304260254,0.9157778024673462
637,0.25772371888160706,0.9259999990463257,0.2558004558086395,0.9157778024673462
638,0.22730211913585663,0.9240000247955322,0.2557627260684967,0.9157778024673462
639,0.2565114200115204,0.9200000166893005,0.25572583079338074,0.9157778024673462
640,0.23920071125030518,0.9279999732971191,0.25565603375434875,0.9157778024673462
641,0.24320632219314575,0.921999990940094,0.2555609941482544,0.9157778024673462
642,0.2365056574344635,0.9300000071525574,0.25549402832984924,0.9157778024673462
643,0.23619011044502258,0.921999990940094,0.25542762875556946,0.9157778024673462
644,0.24315370619297028,0.9240000247955322,0.2553672194480896,0.9157778024673462
645,0.24078132212162018,0.9259999990463257,0.2552800476551056,0.9157778024673462
646,0.24337899684906006,0.9240000247955322,0.25515902042388916,0.9157778024673462
647,0.2491186112165451,0.9240000247955322,0.25506073236465454,0.9157778024673462
648,0.2503417134284973,0.921999990940094,0.2550113797187805,0.9157778024673462
649,0.2436053603887558,0.9259999990463257,0.2549286186695099,0.9160000085830688
650,0.23880821466445923,0.9259999990463257,0.2548430263996124,0.9160000085830688
651,0.23637332022190094,0.9259999990463257,0.2547661364078522,0.9160000085830688
652,0.23611268401145935,0.921999990940094,0.25467509031295776,0.9162222146987915
653,0.23440417647361755,0.9279999732971191,0.25455573201179504,0.9162222146987915
654,0.23921708762645721,0.9200000166893005,0.2544287443161011,0.9162222146987915
655,0.23152197897434235,0.9240000247955322,0.25435611605644226,0.9162222146987915
656,0.25478625297546387,0.9160000085830688,0.25426122546195984,0.9162222146987915
657,0.25182321667671204,0.9200000166893005,0.2541393041610718,0.9162222146987915
658,0.23854202032089233,0.921999990940094,0.25403720140457153,0.9162222146987915
659,0.24266257882118225,0.9259999990463257,0.2539176046848297,0.9162222146987915
660,0.24327559769153595,0.9279999732971191,0.25387871265411377,0.9162222146987915
661,0.23345384001731873,0.9240000247955322,0.25383272767066956,0.9162222146987915
662,0.24344901740550995,0.9259999990463257,0.2537367641925812,0.9162222146987915
663,0.22015011310577393,0.9279999732971191,0.25362271070480347,0.9162222146987915
664,0.24772073328495026,0.9240000247955322,0.2535317540168762,0.9162222146987915
665,0.2414928674697876,0.9259999990463257,0.25350311398506165,0.9162222146987915
666,0.23057827353477478,0.9279999732971191,0.25339922308921814,0.9162222146987915
667,0.23392429947853088,0.9279999732971191,0.2533007562160492,0.9160000085830688
668,0.24867162108421326,0.9200000166893005,0.2532385587692261,0.9160000085830688
669,0.24651269614696503,0.9279999732971191,0.2531684339046478,0.9160000085830688
670,0.2281867414712906,0.921999990940094,0.2530733644962311,0.9160000085830688
671,0.23742467164993286,0.9259999990463257,0.25298669934272766,0.9160000085830688
672,0.23789142072200775,0.9279999732971191,0.2529070973396301,0.9160000085830688
673,0.2480553835630417,0.9259999990463257,0.2527986168861389,0.9160000085830688
674,0.23582294583320618,0.9240000247955322,0.2527461051940918,0.9160000085830688
675,0.22854021191596985,0.9279999732971191,0.2526548504829407,0.9160000085830688
676,0.21933752298355103,0.9279999732971191,0.2526291608810425,0.9160000085830688
677,0.23574404418468475,0.9240000247955322,0.25254136323928833,0.9160000085830688
678,0.24156905710697174,0.9279999732971191,0.25243324041366577,0.9160000085830688
679,0.24061158299446106,0.9319999814033508,0.2523227334022522,0.9160000085830688
680,0.24289247393608093,0.9240000247955322,0.2521935701370239,0.9160000085830688
681,0.24188600480556488,0.9300000071525574,0.2521609961986542,0.9160000085830688
682,0.24695611000061035,0.9179999828338623,0.25216108560562134,0.9160000085830688
683,0.22880108654499054,0.921999990940094,0.2521152198314667,0.9160000085830688
684,0.24762116372585297,0.9179999828338623,0.25203242897987366,0.9160000085830688
685,0.2431536316871643,0.9279999732971191,0.2519548833370209,0.9160000085830688
686,0.24668101966381073,0.9300000071525574,0.2519078254699707,0.9160000085830688
687,0.23960702121257782,0.9200000166893005,0.2517745792865753,0.9160000085830688
688,0.22600606083869934,0.921999990940094,0.25166055560112,0.9160000085830688
689,0.2431470900774002,0.9200000166893005,0.251591295003891,0.9160000085830688
690,0.23287896811962128,0.9259999990463257,0.2515033185482025,0.9160000085830688
691,0.2384447455406189,0.9300000071525574,0.2514156997203827,0.9160000085830688
692,0.2203686237335205,0.9240000247955322,0.2513827383518219,0.9160000085830688
693,0.23808996379375458,0.9200000166893005,0.25127702951431274,0.9160000085830688
694,0.22960799932479858,0.9300000071525574,0.25120607018470764,0.9160000085830688
695,0.23673973977565765,0.9300000071525574,0.25109973549842834,0.9160000085830688
696,0.2365158647298813,0.9279999732971191,0.25102877616882324,0.9160000085830688
697,0.23946014046669006,0.9279999732971191,0.25096067786216736,0.9160000085830688
698,0.23156754672527313,0.9279999732971191,0.2508872449398041,0.9160000085830688
699,0.24151423573493958,0.9300000071525574,0.25080981850624084,0.9160000085830688
700,0.22924721240997314,0.9240000247955322,0.25073739886283875,0.9160000085830688
701,0.21495646238327026,0.9259999990463257,0.2506828010082245,0.9160000085830688
702,0.2477390319108963,0.9200000166893005,0.250593900680542,0.9160000085830688
703,0.23522692918777466,0.9240000247955322,0.25051790475845337,0.9160000085830688
704,0.24438661336898804,0.9259999990463257,0.2504272758960724,0.9160000085830688
705,0.22693799436092377,0.9319999814033508,0.25040721893310547,0.9160000085830688
706,0.2281755954027176,0.9279999732971191,0.25030189752578735,0.9160000085830688
707,0.22587333619594574,0.921999990940094,0.2502274811267853,0.9160000085830688
708,0.23785166442394257,0.9279999732971191,0.2502361834049225,0.9162222146987915
709,0.24181002378463745,0.9300000071525574,0.2501024305820465,0.9162222146987915
710,0.24112598598003387,0.9179999828338623,0.24996568262577057,0.9162222146987915
711,0.24701406061649323,0.921999990940094,0.24984809756278992,0.9162222146987915
712,0.23514896631240845,0.9279999732971191,0.2498294562101364,0.9162222146987915
713,0.23427094519138336,0.9319999814033508,0.2497931867837906,0.9162222146987915
714,0.22538307309150696,0.9259999990463257,0.24974025785923004,0.9162222146987915
715,0.22473177313804626,0.9200000166893005,0.2496512532234192,0.9162222146987915
716,0.24055179953575134,0.9259999990463257,0.24963127076625824,0.9162222146987915
717,0.24722100794315338,0.921999990940094,0.24961523711681366,0.9162222146987915
718,0.2445768564939499,0.9279999732971191,0.2495322823524475,0.9162222146987915
719,0.24154260754585266,0.9240000247955322,0.24948255717754364,0.9162222146987915
720,0.24204793572425842,0.9279999732971191,0.2493986338376999,0.9162222146987915
721,0.2315208464860916,0.9259999990463257,0.24935869872570038,0.9162222146987915
722,0.2292167693376541,0.9300000071525574,0.2492976039648056,0.9162222146987915
723,0.23346886038780212,0.9240000247955322,0.24927034974098206,0.9162222146987915
724,0.2318291962146759,0.9259999990463257,0.24918758869171143,0.9162222146987915
725,0.23472128808498383,0.9300000071525574,0.24914048612117767,0.9162222146987915
726,0.2464294284582138,0.9240000247955322,0.24908000230789185,0.9162222146987915
727,0.23535089194774628,0.9279999732971191,0.24901798367500305,0.9162222146987915
728,0.2371526062488556,0.9240000247955322,0.2489084154367447,0.9162222146987915
729,0.21979406476020813,0.9279999732971191,0.24884790182113647,0.9164444208145142
730,0.2422485500574112,0.921999990940094,0.24874629080295563,0.9164444208145142
731,0.23499521613121033,0.921999990940094,0.24871481955051422,0.9164444208145142
732,0.22360676527023315,0.9259999990463257,0.24860230088233948,0.9164444208145142
733,0.2421613484621048,0.9259999990463257,0.24852213263511658,0.9164444208145142
734,0.23618993163108826,0.9259999990463257,0.24847756326198578,0.9164444208145142
735,0.23555679619312286,0.9200000166893005,0.24839216470718384,0.9164444208145142
736,0.23016995191574097,0.9279999732971191,0.2484077662229538,0.9164444208145142
737,0.23500393331050873,0.9300000071525574,0.2483915537595749,0.9164444208145142
738,0.2317274808883667,0.921999990940094,0.24840465188026428,0.9164444208145142
739,0.2402893453836441,0.9259999990463257,0.2483205497264862,0.9164444208145142
740,0.23445409536361694,0.9319999814033508,0.24823744595050812,0.9164444208145142
741,0.24575723707675934,0.9279999732971191,0.24812400341033936,0.9164444208145142
742,0.23930111527442932,0.9259999990463257,0.24806900322437286,0.9164444208145142
743,0.24161097407341003,0.9279999732971191,0.24802370369434357,0.9164444208145142
744,0.2220158725976944,0.9259999990463257,0.24798749387264252,0.9164444208145142
745,0.238581120967865,0.9259999990463257,0.24794721603393555,0.9164444208145142
746,0.24600940942764282,0.9240000247955322,0.24792549014091492,0.9164444208145142
747,0.22481566667556763,0.9279999732971191,0.2479194849729538,0.9166666865348816
748,0.24232281744480133,0.9259999990463257,0.24789027869701385,0.9166666865348816
749,0.24205097556114197,0.921999990940094,0.24788989126682281,0.9166666865348816
750,0.24003495275974274,0.921999990940094,0.24784237146377563,0.9166666865348816
751,0.2443135678768158,0.9279999732971191,0.24781641364097595,0.9166666865348816
752,0.23115679621696472,0.9259999990463257,0.24780690670013428,0.9166666865348816
753,0.2519107460975647,0.9259999990463257,0.24777723848819733,0.9164444208145142
754,0.23462072014808655,0.9279999732971191,0.24766790866851807,0.9164444208145142
755,0.23166589438915253,0.9240000247955322,0.24764683842658997,0.9164444208145142
756,0.2281157523393631,0.921999990940094,0.24751098453998566,0.9164444208145142
757,0.2439987063407898,0.9300000071525574,0.2474190592765808,0.9164444208145142
758,0.23198820650577545,0.9300000071525574,0.2473456710577011,0.9164444208145142
759,0.23887619376182556,0.9300000071525574,0.24725814163684845,0.9164444208145142
760,0.24654223024845123,0.9300000071525574,0.24714338779449463,0.9164444208145142
761,0.22964602708816528,0.9279999732971191,0.24713075160980225,0.9164444208145142
762,0.23059973120689392,0.9259999990463257,0.24711574614048004,0.9164444208145142
763,0.24191023409366608,0.9300000071525574,0.2470693290233612,0.9164444208145142
764,0.232662171125412,0.921999990940094,0.24699409306049347,0.9164444208145142
765,0.22948747873306274,0.9259999990463257,0.2468557357788086,0.9164444208145142
766,0.23310993611812592,0.921999990940094,0.24676966667175293,0.9164444208145142
767,0.22794657945632935,0.9259999990463257,0.24672681093215942,0.9164444208145142
768,0.23613785207271576,0.921999990940094,0.24659906327724457,0.9164444208145142
769,0.22649307548999786,0.9300000071525574,0.24650822579860687,0.9164444208145142
770,0.22480852901935577,0.9300000071525574,0.2464439570903778,0.9162222146987915
771,0.2388910949230194,0.9300000071525574,0.2463623583316803,0.9162222146987915
772,0.23650003969669342,0.921999990940094,0.24634255468845367,0.9164444208145142
773,0.22878918051719666,0.9240000247955322,0.24629563093185425,0.9164444208145142
774,0.222584068775177,0.9279999732971191,0.24622564017772675,0.9162222146987915
775,0.2303081750869751,0.9259999990463257,0.24615825712680817,0.9162222146987915
776,0.22935090959072113,0.9240000247955322,0.24610820412635803,0.9162222146987915
777,0.23482778668403625,0.9259999990463257,0.2460729479789734,0.9164444208145142
778,0.234314426779747,0.921999990940094,0.2460288554430008,0.9164444208145142
779,0.2280159741640091,0.9279999732971191,0.24599701166152954,0.9164444208145142
780,0.22054024040699005,0.9200000166893005,0.24593622982501984,0.9164444208145142
781,0.22939850389957428,0.9240000247955322,0.2458629310131073,0.9164444208145142
782,0.2317182570695877,0.9300000071525574,0.2458193600177765,0.9164444208145142
783,0.2462502419948578,0.9279999732971191,0.24569140374660492,0.9164444208145142
784,0.22735154628753662,0.9279999732971191,0.24566128849983215,0.9164444208145142
785,0.22704383730888367,0.9240000247955322,0.24561366438865662,0.9164444208145142
786,0.22317039966583252,0.9319999814033508,0.245535746216774,0.9164444208145142
787,0.23607409000396729,0.9240000247955322,0.24547146260738373,0.9164444208145142
788,0.23928768932819366,0.9240000247955322,0.24547241628170013,0.9164444208145142
789,0.2356770783662796,0.921999990940094,0.2454700469970703,0.9164444208145142
790,0.22683873772621155,0.9240000247955322,0.2454383671283722,0.9166666865348816
791,0.23425786197185516,0.9279999732971191,0.2453853338956833,0.9168888926506042
792,0.22495977580547333,0.9259999990463257,0.24528160691261292,0.9168888926506042
793,0.23017776012420654,0.9279999732971191,0.24524164199829102,0.9168888926506042
794,0.2524889409542084,0.921999990940094,0.24517317116260529,0.9168888926506042
795,0.2401544451713562,0.9240000247955322,0.2451038956642151,0.9168888926506042
796,0.22734887897968292,0.9240000247955322,0.24508927762508392,0.9168888926506042
797,0.23078708350658417,0.9279999732971191,0.2450776845216751,0.9168888926506042
798,0.22937163710594177,0.9259999990463257,0.24501724541187286,0.9168888926506042
799,0.2360152304172516,0.9200000166893005,0.24494875967502594,0.9168888926506042
800,0.22785496711730957,0.9279999732971191,0.2448929250240326,0.9171110987663269
801,0.22863517701625824,0.9259999990463257,0.24483776092529297,0.9171110987663269
802,0.2182120680809021,0.9200000166893005,0.2448095977306366,0.9171110987663269
803,0.22865845263004303,0.921999990940094,0.24473936855793,0.9171110987663269
804,0.23738659918308258,0.9259999990463257,0.24469248950481415,0.9171110987663269
805,0.2359168529510498,0.9319999814033508,0.24460893869400024,0.9171110987663269
806,0.21664994955062866,0.9240000247955322,0.2445356398820877,0.9171110987663269
807,0.23492419719696045,0.9279999732971191,0.24448353052139282,0.9173333048820496
808,0.22369016706943512,0.9240000247955322,0.2444382607936859,0.9173333048820496
809,0.2320524901151657,0.921999990940094,0.24439868330955505,0.917555570602417
810,0.2251855880022049,0.9319999814033508,0.24434618651866913,0.917555570602417
811,0.2256624400615692,0.9300000071525574,0.24434922635555267,0.917555570602417
812,0.2309129685163498,0.9240000247955322,0.24432650208473206,0.917555570602417
813,0.23116877675056458,0.9300000071525574,0.24425624310970306,0.917555570602417
814,0.22006182372570038,0.9279999732971191,0.24419419467449188,0.917555570602417
815,0.22750040888786316,0.9240000247955322,0.24411596357822418,0.917555570602417
816,0.23797698318958282,0.9259999990463257,0.24406901001930237,0.917555570602417
817,0.22724905610084534,0.9259999990463257,0.24402166903018951,0.917555570602417
818,0.2250378429889679,0.9240000247955322,0.24394987523555756,0.917555570602417
819,0.22236494719982147,0.9240000247955322,0.2439037561416626,0.917555570602417
820,0.2196962535381317,0.9300000071525574,0.24383114278316498,0.917555570602417
821,0.2318960279226303,0.9300000071525574,0.24380747973918915,0.9177777767181396
822,0.2336159646511078,0.9259999990463257,0.24374742805957794,0.9177777767181396
823,0.21707560122013092,0.9240000247955322,0.24369938671588898,0.9177777767181396
824,0.2287798672914505,0.9279999732971191,0.24369186162948608,0.9179999828338623
825,0.2266225516796112,0.9319999814033508,0.24361363053321838,0.9179999828338623
826,0.22696644067764282,0.9259999990463257,0.24352750182151794,0.9179999828338623
827,0.22228987514972687,0.9240000247955322,0.24346821010112762,0.9182222485542297
828,0.23726896941661835,0.9259999990463257,0.2433941811323166,0.9182222485542297
829,0.22239869832992554,0.9259999990463257,0.24338535964488983,0.9182222485542297
830,0.23693251609802246,0.9279999732971191,0.24332603812217712,0.9182222485542297
831,0.2239457666873932,0.9279999732971191,0.2433127462863922,0.9182222485542297
832,0.2268696278333664,0.9259999990463257,0.24327774345874786,0.9184444546699524
833,0.24009494483470917,0.9359999895095825,0.24323485791683197,0.918666660785675
834,0.24059554934501648,0.9200000166893005,0.24318046867847443,0.918666660785675
835,0.2230934351682663,0.9279999732971191,0.2430640161037445,0.918666660785675
836,0.22177241742610931,0.9300000071525574,0.2429880052804947,0.918666660785675
837,0.22287563979625702,0.9279999732971191,0.2429010421037674,0.918666660785675
838,0.23179428279399872,0.9279999732971191,0.24282275140285492,0.918666660785675
839,0.22878745198249817,0.9279999732971191,0.24278753995895386,0.918666660785675
840,0.22387471795082092,0.9279999732971191,0.2427535504102707,0.918666660785675
841,0.23583215475082397,0.9240000247955322,0.2427242547273636,0.9188888669013977
842,0.231343612074852,0.9300000071525574,0.24265964329242706,0.9188888669013977
843,0.24174395203590393,0.9279999732971191,0.2425927221775055,0.9188888669013977
844,0.2255735993385315,0.921999990940094,0.24260647594928741,0.9188888669013977
845,0.23593074083328247,0.9259999990463257,0.24247927963733673,0.9188888669013977
846,0.234185129404068,0.9319999814033508,0.24243435263633728,0.9188888669013977
847,0.21938566863536835,0.9259999990463257,0.24233414232730865,0.9191111326217651
848,0.21715356409549713,0.9300000071525574,0.24230699241161346,0.9193333387374878
849,0.21872854232788086,0.9340000152587891,0.24229630827903748,0.9197777509689331
850,0.21733058989048004,0.9240000247955322,0.24227365851402283,0.9197777509689331
851,0.22095918655395508,0.9279999732971191,0.24224381148815155,0.9197777509689331
852,0.21577799320220947,0.9340000152587891,0.24223586916923523,0.9195555448532104
853,0.2275640219449997,0.9160000085830688,0.24217410385608673,0.9195555448532104
854,0.22671982645988464,0.9259999990463257,0.24212563037872314,0.9197777509689331
855,0.23876436054706573,0.9279999732971191,0.2420351803302765,0.9197777509689331
856,0.21981622278690338,0.9359999895095825,0.2419726848602295,0.9200000166893005
857,0.21968121826648712,0.9300000071525574,0.24193817377090454,0.9200000166893005
858,0.22678862512111664,0.9259999990463257,0.2419060319662094,0.9200000166893005
859,0.21250048279762268,0.9300000071525574,0.24180686473846436,0.9200000166893005
860,0.21861277520656586,0.9279999732971191,0.2418021708726883,0.9202222228050232
861,0.22285014390945435,0.9319999814033508,0.24179251492023468,0.9202222228050232
862,0.22078633308410645,0.9279999732971191,0.24167217314243317,0.9206666946411133
863,0.22228215634822845,0.9259999990463257,0.2416609674692154,0.9206666946411133
864,0.22387978434562683,0.9259999990463257,0.2416478395462036,0.9208889007568359
865,0.2446768432855606,0.9259999990463257,0.2415824681520462,0.9208889007568359
866,0.20983655750751495,0.9300000071525574,0.2415735125541687,0.9208889007568359
867,0.23188459873199463,0.9240000247955322,0.24150018393993378,0.9208889007568359
868,0.2357134073972702,0.9340000152587891,0.24146655201911926,0.9211111068725586
869,0.21326343715190887,0.9279999732971191,0.2414703518152237,0.9211111068725586
870,0.22723039984703064,0.9279999732971191,0.24147026240825653,0.9213333129882812
871,0.22327731549739838,0.9200000166893005,0.241403266787529,0.9213333129882812
872,0.22395050525665283,0.9359999895095825,0.24133872985839844,0.9213333129882812
873,0.2285969853401184,0.9319999814033508,0.2413034737110138,0.9215555787086487
874,0.2314736545085907,0.9259999990463257,0.24131178855895996,0.9215555787086487
875,0.23058171570301056,0.9279999732971191,0.24126622080802917,0.9215555787086487
876,0.21587207913398743,0.9279999732971191,0.24123084545135498,0.9215555787086487
877,0.2343965470790863,0.9279999732971191,0.24118494987487793,0.9215555787086487
878,0.22413769364356995,0.9279999732971191,0.24117490649223328,0.9215555787086487
879,0.22418718039989471,0.9319999814033508,0.24110980331897736,0.9215555787086487
880,0.2092086523771286,0.9279999732971191,0.24106396734714508,0.9215555787086487
881,0.24088679254055023,0.9279999732971191,0.2410099059343338,0.9215555787086487
882,0.2208922803401947,0.9240000247955322,0.24105222523212433,0.9215555787086487
883,0.22351688146591187,0.9279999732971191,0.2409948706626892,0.9215555787086487
884,0.22441546618938446,0.9240000247955322,0.24100501835346222,0.9215555787086487
885,0.22554196417331696,0.9300000071525574,0.24097096920013428,0.9215555787086487
886,0.23961476981639862,0.9259999990463257,0.240888312458992,0.9215555787086487
887,0.2319846898317337,0.9240000247955322,0.240754172205925,0.921999990940094
888,0.2142004668712616,0.9279999732971191,0.24070852994918823,0.9222221970558167
889,0.21059997379779816,0.9359999895095825,0.2406751811504364,0.9222221970558167
890,0.21985918283462524,0.9200000166893005,0.24063099920749664,0.9224444627761841
891,0.2239210605621338,0.9279999732971191,0.24061870574951172,0.9226666688919067
892,0.2300409972667694,0.9340000152587891,0.24059198796749115,0.9226666688919067
893,0.21742483973503113,0.9279999732971191,0.24055446684360504,0.9226666688919067
894,0.23442763090133667,0.9319999814033508,0.24050837755203247,0.9226666688919067
895,0.2184639871120453,0.9240000247955322,0.24048136174678802,0.9226666688919067
896,0.22002866864204407,0.9340000152587891,0.24042735993862152,0.9226666688919067
897,0.22742435336112976,0.9300000071525574,0.24040372669696808,0.9226666688919067
898,0.22112484276294708,0.9259999990463257,0.2403811365365982,0.9226666688919067
899,0.23220014572143555,0.9279999732971191,0.24033042788505554,0.9226666688919067
900,0.21376438438892365,0.9259999990463257,0.2403390258550644,0.9226666688919067
901,0.22740958631038666,0.9240000247955322,0.24030043184757233,0.9226666688919067
902,0.2352466881275177,0.9279999732971191,0.24020951986312866,0.9228888750076294
903,0.22028028964996338,0.9279999732971191,0.24016891419887543,0.9228888750076294
904,0.22831061482429504,0.9259999990463257,0.24013927578926086,0.9228888750076294
905,0.21891982853412628,0.9259999990463257,0.24009256064891815,0.9228888750076294
906,0.218025803565979,0.9300000071525574,0.24006310105323792,0.9228888750076294
907,0.2342228889465332,0.9279999732971191,0.2400069385766983,0.9228888750076294
908,0.21165013313293457,0.9300000071525574,0.2399846464395523,0.9228888750076294
909,0.22289694845676422,0.9340000152587891,0.23990876972675323,0.9228888750076294
910,0.21395957469940186,0.9279999732971191,0.2398824393749237,0.9228888750076294
911,0.22524282336235046,0.9240000247955322,0.23987050354480743,0.9228888750076294
912,0.2303350418806076,0.9259999990463257,0.23983287811279297,0.9231111407279968
913,0.2207370549440384,0.9259999990463257,0.239838644862175,0.9231111407279968
914,0.2182723730802536,0.9319999814033508,0.23981434106826782,0.9231111407279968
915,0.21410071849822998,0.9240000247955322,0.239795982837677,0.9231111407279968
916,0.22486847639083862,0.9259999990463257,0.2397276759147644,0.9233333468437195
917,0.20189756155014038,0.9319999814033508,0.23969395458698273,0.9233333468437195
918,0.21444329619407654,0.9179999828338623,0.23966750502586365,0.9233333468437195
919,0.21309268474578857,0.9359999895095825,0.23961681127548218,0.9233333468437195
920,0.2108895480632782,0.9340000152587891,0.23959307372570038,0.9233333468437195
921,0.23193879425525665,0.9240000247955322,0.23952439427375793,0.9233333468437195
922,0.21908508241176605,0.9240000247955322,0.2394983172416687,0.9233333468437195
923,0.21780677139759064,0.9319999814033508,0.23942168056964874,0.9233333468437195
924,0.2101649045944214,0.9259999990463257,0.23931637406349182,0.9233333468437195
925,0.21730385720729828,0.9240000247955322,0.23924897611141205,0.9233333468437195
926,0.2241571694612503,0.9300000071525574,0.2391919493675232,0.9233333468437195
927,0.21500888466835022,0.9340000152587891,0.23913359642028809,0.9233333468437195
928,0.22300659120082855,0.9300000071525574,0.2391519844532013,0.9233333468437195
929,0.23963019251823425,0.9279999732971191,0.23920504748821259,0.9233333468437195
930,0.2146751880645752,0.9300000071525574,0.23916631937026978,0.9235555529594421
931,0.2118818163871765,0.9300000071525574,0.23914185166358948,0.9235555529594421
932,0.2121385633945465,0.9279999732971191,0.2391391396522522,0.9235555529594421
933,0.20497816801071167,0.9300000071525574,0.23912595212459564,0.9237777590751648
934,0.2146661877632141,0.9279999732971191,0.23909245431423187,0.9237777590751648
935,0.23297610878944397,0.9319999814033508,0.23902910947799683,0.9237777590751648
936,0.2393776774406433,0.9300000071525574,0.23891973495483398,0.9237777590751648
937,0.2106909155845642,0.9240000247955322,0.2388426959514618,0.9240000247955322
938,0.22994299232959747,0.9259999990463257,0.23878854513168335,0.9240000247955322
939,0.21723809838294983,0.9259999990463257,0.23881284892559052,0.9240000247955322
940,0.21056301891803741,0.9340000152587891,0.23877263069152832,0.9240000247955322
941,0.21702001988887787,0.9259999990463257,0.238760843873024,0.9240000247955322
942,0.22669290006160736,0.9319999814033508,0.2387324422597885,0.9242222309112549
943,0.22331665456295013,0.9279999732971191,0.23875130712985992,0.9244444370269775
944,0.20683974027633667,0.9240000247955322,0.238729789853096,0.9246666431427002
945,0.21512563526630402,0.9340000152587891,0.23867668211460114,0.9246666431427002
946,0.20982205867767334,0.9319999814033508,0.2386097013950348,0.9246666431427002
947,0.21666422486305237,0.9300000071525574,0.23857180774211884,0.9246666431427002
948,0.23487050831317902,0.9240000247955322,0.23853544890880585,0.9246666431427002
949,0.22453241050243378,0.921999990940094,0.23849543929100037,0.9246666431427002
950,0.21738892793655396,0.9300000071525574,0.23842686414718628,0.9246666431427002
951,0.21516726911067963,0.9340000152587891,0.23835454881191254,0.9246666431427002
952,0.2395431250333786,0.9240000247955322,0.23829562962055206,0.9246666431427002
953,0.21587447822093964,0.9300000071525574,0.23828035593032837,0.9246666431427002
954,0.2246423065662384,0.9240000247955322,0.23823043704032898,0.9246666431427002
955,0.20453694462776184,0.9319999814033508,0.23818239569664001,0.9246666431427002
956,0.22203142940998077,0.9300000071525574,0.23811377584934235,0.9246666431427002
957,0.22030624747276306,0.9340000152587891,0.23808056116104126,0.9246666431427002
958,0.21441781520843506,0.9279999732971191,0.23806041479110718,0.9246666431427002
959,0.19803592562675476,0.9380000233650208,0.2380557656288147,0.9246666431427002
960,0.22053949534893036,0.9240000247955322,0.23806624114513397,0.9246666431427002
961,0.21422900259494781,0.9300000071525574,0.23808026313781738,0.9246666431427002
962,0.23661033809185028,0.9240000247955322,0.23804491758346558,0.9248889088630676
963,0.22456489503383636,0.9279999732971191,0.23802953958511353,0.9248889088630676
964,0.22080782055854797,0.9259999990463257,0.23794245719909668,0.9248889088630676
965,0.21248219907283783,0.9359999895095825,0.2378893792629242,0.9248889088630676
966,0.22036322951316833,0.9300000071525574,0.23782050609588623,0.9251111149787903
967,0.22381988167762756,0.9319999814033508,0.23779574036598206,0.9251111149787903
968,0.21580815315246582,0.9279999732971191,0.23773828148841858,0.9251111149787903
969,0.21987606585025787,0.9279999732971191,0.2376919537782669,0.9251111149787903
970,0.2226114720106125,0.9300000071525574,0.23768250644207,0.9251111149787903
971,0.20601245760917664,0.9279999732971191,0.2376299351453781,0.9255555272102356
972,0.22558999061584473,0.9300000071525574,0.23755359649658203,0.9255555272102356
973,0.22175243496894836,0.9319999814033508,0.23748686909675598,0.9255555272102356
974,0.2186306267976761,0.9380000233650208,0.2374727427959442,0.9255555272102356
975,0.2217482179403305,0.9240000247955322,0.23744609951972961,0.9255555272102356
976,0.2123546153306961,0.9300000071525574,0.23739905655384064,0.925777792930603
977,0.21072939038276672,0.9359999895095825,0.2373885065317154,0.925777792930603
978,0.22044645249843597,0.9319999814033508,0.23724886775016785,0.925777792930603
979,0.21268630027770996,0.9279999732971191,0.23724877834320068,0.925777792930603
980,0.2234041839838028,0.921999990940094,0.23718857765197754,0.925777792930603
981,0.21438542008399963,0.9279999732971191,0.23721759021282196,0.925777792930603
982,0.21220719814300537,0.9279999732971191,0.23720958828926086,0.925777792930603
983,0.2147594541311264,0.9319999814033508,0.23718023300170898,0.925777792930603
984,0.23244836926460266,0.9259999990463257,0.23706819117069244,0.925777792930603
985,0.2190706878900528,0.9240000247955322,0.23703965544700623,0.925777792930603
986,0.21115700900554657,0.9279999732971191,0.2369510680437088,0.925777792930603
987,0.21819235384464264,0.9259999990463257,0.23686908185482025,0.925777792930603
988,0.20213674008846283,0.9359999895095825,0.23683281242847443,0.9259999990463257
989,0.21298933029174805,0.9319999814033508,0.2368304282426834,0.9262222051620483
990,0.2173006534576416,0.9279999732971191,0.2367815226316452,0.9262222051620483
991,0.20790062844753265,0.9340000152587891,0.23673850297927856,0.9262222051620483
992,0.22136560082435608,0.9259999990463257,0.23669321835041046,0.9262222051620483
993,0.2144276201725006,0.9340000152587891,0.23673036694526672,0.9262222051620483
994,0.200492262840271,0.9319999814033508,0.2367694228887558,0.9262222051620483
995,0.209575355052948,0.9300000071525574,0.23673149943351746,0.9262222051620483
996,0.20404300093650818,0.9319999814033508,0.2367440015077591,0.9262222051620483
997,0.22391359508037567,0.9300000071525574,0.23676453530788422,0.9262222051620483
998,0.22501833736896515,0.9279999732971191,0.23671714961528778,0.9262222051620483
999,0.20854085683822632,0.9319999814033508,0.23663115501403809,0.9262222051620483
1000,0.21265122294425964,0.9300000071525574,0.2365942895412445,0.9262222051620483
1001,0.2038731575012207,0.9319999814033508,0.23655666410923004,0.9262222051620483
1002,0.2083931714296341,0.9279999732971191,0.23655951023101807,0.9262222051620483
1003,0.2211814522743225,0.9279999732971191,0.2365347445011139,0.9262222051620483
1004,0.22542044520378113,0.9319999814033508,0.23645254969596863,0.9262222051620483
1005,0.21208220720291138,0.9259999990463257,0.23646444082260132,0.9262222051620483
1006,0.2048809975385666,0.9259999990463257,0.23643971979618073,0.9262222051620483
1007,0.21631699800491333,0.9279999732971191,0.23639146983623505,0.9262222051620483
1008,0.22077840566635132,0.9259999990463257,0.23640581965446472,0.9262222051620483
1009,0.21459679305553436,0.9340000152587891,0.23640985786914825,0.9262222051620483
1010,0.22046346962451935,0.9319999814033508,0.23639802634716034,0.9262222051620483
1011,0.22793088853359222,0.9359999895095825,0.23634901642799377,0.9262222051620483
1012,0.20811901986598969,0.9300000071525574,0.23634980618953705,0.9262222051620483
1013,0.23213107883930206,0.9259999990463257,0.23630669713020325,0.9262222051620483
1014,0.21355155110359192,0.9300000071525574,0.23629502952098846,0.9262222051620483
1015,0.20375700294971466,0.9380000233650208,0.23624268174171448,0.9262222051620483
1016,0.21226973831653595,0.9399999976158142,0.23624663054943085,0.9262222051620483
1017,0.21271918714046478,0.9279999732971191,0.2362401783466339,0.9262222051620483
1018,0.2118927240371704,0.9319999814033508,0.23622837662696838,0.9262222051620483
1019,0.22389096021652222,0.9300000071525574,0.23622258007526398,0.9262222051620483
1020,0.22019429504871368,0.9279999732971191,0.2361709028482437,0.9262222051620483
1021,0.20133553445339203,0.9279999732971191,0.2361525297164917,0.9262222051620483
1022,0.2247571349143982,0.9300000071525574,0.23615139722824097,0.9262222051620483
1023,0.22862280905246735,0.9359999895095825,0.23607304692268372,0.9262222051620483
1024,0.21339549124240875,0.9259999990463257,0.23600810766220093,0.9264444708824158
1025,0.21259336173534393,0.9259999990463257,0.2359960377216339,0.9264444708824158
1026,0.20828284323215485,0.9319999814033508,0.23597951233386993,0.9264444708824158
1027,0.20719122886657715,0.9300000071525574,0.23595526814460754,0.9264444708824158
1028,0.20386438071727753,0.9319999814033508,0.2359316349029541,0.9264444708824158
1029,0.2256319522857666,0.9240000247955322,0.23585018515586853,0.9264444708824158
1030,0.22115862369537354,0.9380000233650208,0.2357906848192215,0.9264444708824158
1031,0.2149468958377838,0.9319999814033508,0.2357814460992813,0.9264444708824158
1032,0.21290844678878784,0.9380000233650208,0.23575490713119507,0.9264444708824158
1033,0.22526128590106964,0.921999990940094,0.235704243183136,0.9264444708824158
1034,0.2039238065481186,0.9340000152587891,0.23566411435604095,0.9264444708824158
1035,0.22556912899017334,0.9279999732971191,0.23562133312225342,0.9264444708824158
1036,0.21828752756118774,0.9279999732971191,0.23559516668319702,0.9264444708824158
1037,0.21089455485343933,0.9319999814033508,0.23554793000221252,0.9264444708824158
1038,0.20654797554016113,0.9319999814033508,0.2355039268732071,0.9264444708824158
1039,0.21203698217868805,0.9240000247955322,0.23547200858592987,0.9264444708824158
1040,0.21325163543224335,0.921999990940094,0.2354591190814972,0.9264444708824158
1041,0.2208913117647171,0.9300000071525574,0.23537275195121765,0.9264444708824158
1042,0.21275682747364044,0.9279999732971191,0.23541389405727386,0.9264444708824158
1043,0.21641556918621063,0.9279999732971191,0.2353588342666626,0.9264444708824158
1044,0.2193455696105957,0.9359999895095825,0.2353649139404297,0.9264444708824158
1045,0.20972725749015808,0.9300000071525574,0.23531575500965118,0.9264444708824158
1046,0.2231004387140274,0.921999990940094,0.23524770140647888,0.9266666769981384
1047,0.21361005306243896,0.9279999732971191,0.23522241413593292,0.9266666769981384
1048,0.212714284658432,0.9319999814033508,0.23521068692207336,0.9266666769981384
1049,0.20528410375118256,0.9240000247955322,0.23523329198360443,0.9266666769981384
1050,0.20081143081188202,0.9340000152587891,0.23524972796440125,0.9268888831138611
1051,0.21296383440494537,0.9300000071525574,0.2352440357208252,0.9268888831138611
1052,0.21847429871559143,0.9319999814033508,0.2352713793516159,0.9268888831138611
1053,0.21275027096271515,0.9240000247955322,0.23520128428936005,0.9268888831138611
1054,0.2142765372991562,0.9279999732971191,0.2351696789264679,0.9271110892295837
1055,0.21454760432243347,0.9279999732971191,0.23513582348823547,0.9271110892295837
1056,0.21616002917289734,0.9340000152587891,0.23512610793113708,0.9271110892295837
1057,0.20650869607925415,0.9300000071525574,0.23512516915798187,0.9271110892295837
1058,0.22028915584087372,0.9279999732971191,0.23512442409992218,0.9271110892295837
1059,0.19622181355953217,0.9319999814033508,0.23511260747909546,0.9271110892295837
1060,0.22959338128566742,0.9240000247955322,0.23513546586036682,0.9271110892295837
1061,0.21199753880500793,0.9300000071525574,0.235096275806427,0.9273333549499512
1062,0.21054697036743164,0.9300000071525574,0.2350403368473053,0.9273333549499512
1063,0.22054161131381989,0.9240000247955322,0.23498055338859558,0.9273333549499512
1064,0.19329136610031128,0.9319999814033508,0.2349771112203598,0.9273333549499512
1065,0.2110060751438141,0.9300000071525574,0.23495595157146454,0.9273333549499512
1066,0.20807522535324097,0.9319999814033508,0.23495358228683472,0.9273333549499512
1067,0.20003940165042877,0.9240000247955322,0.23494862020015717,0.9273333549499512
1068,0.21999335289001465,0.9359999895095825,0.23485444486141205,0.9273333549499512
1069,0.22838161885738373,0.9319999814033508,0.2348301112651825,0.9273333549499512
1070,0.20592540502548218,0.9259999990463257,0.23476934432983398,0.9273333549499512
1071,0.21002092957496643,0.9300000071525574,0.23472583293914795,0.9273333549499512
1072,0.22501550614833832,0.9259999990463257,0.23472273349761963,0.9273333549499512
1073,0.22917713224887848,0.9240000247955322,0.23471812903881073,0.9273333549499512
1074,0.21476802229881287,0.9259999990463257,0.23469078540802002,0.9273333549499512
1075,0.21151486039161682,0.9279999732971191,0.23468942940235138,0.9273333549499512
1076,0.21376605331897736,0.9259999990463257,0.23463253676891327,0.9273333549499512
1077,0.20793479681015015,0.9399999976158142,0.23463867604732513,0.9273333549499512
1078,0.20980505645275116,0.9279999732971191,0.23461560904979706,0.9273333549499512
1079,0.21673329174518585,0.9340000152587891,0.23458987474441528,0.9275555610656738
1080,0.20679618418216705,0.9399999976158142,0.23456597328186035,0.9275555610656738
1081,0.2188541144132614,0.9300000071525574,0.2345476895570755,0.9273333549499512
1082,0.2240278422832489,0.9359999895095825,0.23447071015834808,0.9275555610656738
1083,0.22238586843013763,0.9300000071525574,0.23445554077625275,0.9275555610656738
1084,0.21305301785469055,0.9319999814033508,0.23441530764102936,0.9275555610656738
1085,0.21104511618614197,0.9300000071525574,0.23439526557922363,0.9275555610656738
1086,0.2096334993839264,0.9340000152587891,0.2343684881925583,0.9275555610656738
1087,0.20144638419151306,0.921999990940094,0.23435361683368683,0.9275555610656738
1088,0.22651974856853485,0.9300000071525574,0.23430506885051727,0.9275555610656738
1089,0.20135916769504547,0.9380000233650208,0.23429670929908752,0.9275555610656738
1090,0.21469339728355408,0.9300000071525574,0.2342863827943802,0.9275555610656738
1091,0.214860737323761,0.9279999732971191,0.23422911763191223,0.9275555610656738
1092,0.2183552235364914,0.9319999814033508,0.23423171043395996,0.9275555610656738
1093,0.21106703579425812,0.9319999814033508,0.23420307040214539,0.9275555610656738
1094,0.21107539534568787,0.9300000071525574,0.23421289026737213,0.9275555610656738
1095,0.2123800814151764,0.9340000152587891,0.23415645956993103,0.9275555610656738
1096,0.2111794650554657,0.9279999732971191,0.23410433530807495,0.9275555610656738
1097,0.21164648234844208,0.9319999814033508,0.23410259187221527,0.9275555610656738
1098,0.22081997990608215,0.9259999990463257,0.23406974971294403,0.9275555610656738
1099,0.20261524617671967,0.9380000233650208,0.23405663669109344,0.9275555610656738
1100,0.2013733983039856,0.9359999895095825,0.23398296535015106,0.9275555610656738
1101,0.21007949113845825,0.9259999990463257,0.23392081260681152,0.9275555610656738
1102,0.2137422114610672,0.9319999814033508,0.233916774392128,0.9275555610656738
1103,0.20060226321220398,0.9300000071525574,0.2338736206293106,0.9275555610656738
1104,0.22023692727088928,0.9279999732971191,0.23381651937961578,0.9275555610656738
1105,0.212251678109169,0.9279999732971191,0.23380796611309052,0.9275555610656738
1106,0.20507556200027466,0.9340000152587891,0.23385097086429596,0.9275555610656738
1107,0.2163229137659073,0.9340000152587891,0.23386211693286896,0.9275555610656738
1108,0.21556583046913147,0.9279999732971191,0.23382611572742462,0.9275555610656738
1109,0.21891435980796814,0.9279999732971191,0.2337517887353897,0.9275555610656738
1110,0.20671942830085754,0.9319999814033508,0.23371055722236633,0.9275555610656738
1111,0.21607138216495514,0.9319999814033508,0.23363612592220306,0.9275555610656738
1112,0.21322481334209442,0.9259999990463257,0.23357169330120087,0.9275555610656738
1113,0.21012602746486664,0.9359999895095825,0.23349294066429138,0.9275555610656738
1114,0.21746118366718292,0.9319999814033508,0.23344625532627106,0.9275555610656738
1115,0.20317894220352173,0.9279999732971191,0.2334015816450119,0.9275555610656738
1116,0.21362236142158508,0.9200000166893005,0.2334187775850296,0.9275555610656738
1117,0.21438555419445038,0.9319999814033508,0.23339079320430756,0.9275555610656738
1118,0.20193134248256683,0.9300000071525574,0.23336640000343323,0.9275555610656738
1119,0.20385560393333435,0.9279999732971191,0.23336732387542725,0.9275555610656738
1120,0.20304922759532928,0.9340000152587891,0.23335666954517365,0.9275555610656738
1121,0.21711111068725586,0.9279999732971191,0.2333139032125473,0.9275555610656738
1122,0.2067834883928299,0.9319999814033508,0.23328128457069397,0.9275555610656738
1123,0.2179279923439026,0.9240000247955322,0.23332734405994415,0.9275555610656738
1124,0.20287127792835236,0.9380000233650208,0.23332850635051727,0.9275555610656738
1125,0.20799237489700317,0.9399999976158142,0.23330338299274445,0.9275555610656738
1126,0.2131379395723343,0.9380000233650208,0.23327094316482544,0.9275555610656738
1127,0.21886880695819855,0.9319999814033508,0.23322661221027374,0.9275555610656738
1128,0.19402757287025452,0.9359999895095825,0.23320947587490082,0.9275555610656738
1129,0.2033190280199051,0.9300000071525574,0.23320740461349487,0.9275555610656738
1130,0.21803832054138184,0.9259999990463257,0.23320117592811584,0.9275555610656738
1131,0.20977261662483215,0.9359999895095825,0.2331089973449707,0.9277777671813965
1132,0.20555874705314636,0.9340000152587891,0.23312415182590485,0.9275555610656738
1133,0.21286019682884216,0.9340000152587891,0.23300664126873016,0.9277777671813965
1134,0.19607453048229218,0.9319999814033508,0.2330314964056015,0.9277777671813965
1135,0.22223810851573944,0.9259999990463257,0.23297519981861115,0.9277777671813965
1136,0.21202145516872406,0.9240000247955322,0.23297029733657837,0.9277777671813965
1137,0.21066714823246002,0.9300000071525574,0.23292499780654907,0.9277777671813965
1138,0.19837205111980438,0.9319999814033508,0.23286929726600647,0.9277777671813965
1139,0.210582435131073,0.9319999814033508,0.23287180066108704,0.9277777671813965
1140,0.21073107421398163,0.9359999895095825,0.23288840055465698,0.9277777671813965
1141,0.20668645203113556,0.9279999732971191,0.23285011947155,0.9277777671813965
1142,0.2193574756383896,0.9300000071525574,0.23281645774841309,0.9277777671813965
1143,0.20191486179828644,0.9340000152587891,0.2327726185321808,0.9277777671813965
1144,0.1990361511707306,0.9340000152587891,0.23274706304073334,0.9277777671813965
1145,0.21109816431999207,0.9259999990463257,0.23270708322525024,0.9277777671813965
1146,0.20778906345367432,0.9279999732971191,0.23267675936222076,0.9277777671813965
1147,0.20810160040855408,0.9240000247955322,0.23264062404632568,0.9277777671813965
1148,0.20169149339199066,0.9300000071525574,0.2326364517211914,0.9277777671813965
1149,0.22531065344810486,0.9359999895095825,0.23266924917697906,0.9277777671813965
1150,0.19871659576892853,0.9300000071525574,0.23266810178756714,0.9277777671813965
1151,0.20744456350803375,0.9300000071525574,0.23265530169010162,0.9277777671813965
1152,0.1892962008714676,0.9340000152587891,0.23263134062290192,0.9277777671813965
1153,0.20256642997264862,0.9359999895095825,0.2326062023639679,0.9277777671813965
1154,0.21235106885433197,0.9259999990463257,0.23256705701351166,0.9277777671813965
1155,0.19186486303806305,0.9319999814033508,0.23255442082881927,0.9277777671813965
1156,0.20745162665843964,0.9300000071525574,0.23252953588962555,0.9277777671813965
1157,0.1955820471048355,0.9319999814033508,0.2324848622083664,0.9277777671813965
1158,0.2108435183763504,0.9340000152587891,0.2324468344449997,0.9277777671813965
1159,0.18957704305648804,0.9340000152587891,0.23240812122821808,0.9277777671813965
1160,0.20570732653141022,0.9259999990463257,0.23238644003868103,0.9277777671813965
1161,0.19973982870578766,0.9319999814033508,0.23231610655784607,0.9277777671813965
1162,0.19738304615020752,0.9319999814033508,0.2322309911251068,0.9277777671813965
1163,0.2147398740053177,0.9240000247955322,0.2321917563676834,0.9279999732971191
1164,0.19534602761268616,0.9359999895095825,0.23218828439712524,0.9279999732971191
1165,0.20904302597045898,0.9319999814033508,0.23217615485191345,0.9279999732971191
1166,0.20310203731060028,0.9340000152587891,0.23216557502746582,0.9279999732971191
1167,0.20706269145011902,0.9240000247955322,0.23214051127433777,0.9279999732971191
1168,0.2065405249595642,0.9319999814033508,0.23205870389938354,0.9279999732971191
1169,0.20027199387550354,0.9319999814033508,0.23202623426914215,0.9279999732971191
1170,0.22198916971683502,0.9279999732971191,0.23200273513793945,0.9279999732971191
1171,0.21763840317726135,0.9319999814033508,0.23200054466724396,0.9279999732971191
1172,0.19136114418506622,0.9300000071525574,0.23199787735939026,0.9279999732971191
1173,0.20706315338611603,0.9319999814033508,0.2319403737783432,0.9279999732971191
1174,0.200581356883049,0.9340000152587891,0.23191769421100616,0.9279999732971191
1175,0.2146361917257309,0.9259999990463257,0.2318895161151886,0.9279999732971191
1176,0.19648346304893494,0.9279999732971191,0.2318681925535202,0.9279999732971191
1177,0.2145759016275406,0.9340000152587891,0.23185281455516815,0.9279999732971191
1178,0.20706933736801147,0.9380000233650208,0.2317933738231659,0.9279999732971191
1179,0.2116982489824295,0.9300000071525574,0.23176579177379608,0.9279999732971191
1180,0.19576095044612885,0.9319999814033508,0.23178651928901672,0.9279999732971191
1181,0.2077464461326599,0.9319999814033508,0.23175571858882904,0.9279999732971191
1182,0.19453851878643036,0.9340000152587891,0.23172545433044434,0.9279999732971191
1183,0.20410074293613434,0.9319999814033508,0.2316969335079193,0.9279999732971191
1184,0.20739148557186127,0.9279999732971191,0.23164597153663635,0.9279999732971191
1185,0.21202954649925232,0.9259999990463257,0.23162052035331726,0.9279999732971191
1186,0.21586237847805023,0.9279999732971191,0.23157617449760437,0.9279999732971191
1187,0.2126319855451584,0.9279999732971191,0.23154456913471222,0.9279999732971191
1188,0.20002010464668274,0.9300000071525574,0.2315293252468109,0.9279999732971191
1189,0.20090091228485107,0.9300000071525574,0.23150569200515747,0.9279999732971191
1190,0.21135203540325165,0.9340000152587891,0.23148557543754578,0.9279999732971191
1191,0.21206404268741608,0.9340000152587891,0.2314463108778,0.9279999732971191
1192,0.20920126140117645,0.9279999732971191,0.23142805695533752,0.9279999732971191
1193,0.21559745073318481,0.9340000152587891,0.23143433034420013,0.9279999732971191
1194,0.20533506572246552,0.9279999732971191,0.23141764104366302,0.9279999732971191
1195,0.20954950153827667,0.9359999895095825,0.2314266562461853,0.9279999732971191
1196,0.2080305963754654,0.9340000152587891,0.231424018740654,0.9279999732971191
1197,0.21250005066394806,0.9300000071525574,0.23143039643764496,0.9279999732971191
1198,0.1926390677690506,0.9340000152587891,0.23146261274814606,0.9279999732971191
1199,0.20722337067127228,0.9380000233650208,0.23144283890724182,0.9279999732971191
1200,0.20732595026493073,0.9319999814033508,0.2314295470714569,0.9279999732971191
1201,0.2122633010149002,0.9259999990463257,0.23143331706523895,0.9279999732971191
1202,0.19559110701084137,0.9340000152587891,0.23146022856235504,0.9279999732971191
1203,0.20298200845718384,0.9259999990463257,0.23145613074302673,0.9279999732971191
1204,0.2017694115638733,0.9359999895095825,0.23141802847385406,0.9279999732971191
1205,0.21028685569763184,0.9319999814033508,0.23136447370052338,0.9279999732971191
1206,0.20180131494998932,0.9279999732971191,0.2313261777162552,0.9279999732971191
1207,0.21493344008922577,0.9279999732971191,0.2312949150800705,0.9279999732971191
1208,0.20211681723594666,0.9259999990463257,0.231283038854599,0.9279999732971191
1209,0.18905502557754517,0.9279999732971191,0.2312956303358078,0.9279999732971191
1210,0.19795198738574982,0.9279999732971191,0.23129335045814514,0.9279999732971191
1211,0.20349879562854767,0.9380000233650208,0.23125211894512177,0.9279999732971191
1212,0.20273178815841675,0.9319999814033508,0.2312246710062027,0.9279999732971191
1213,0.20383211970329285,0.9340000152587891,0.231181338429451,0.9279999732971191
1214,0.1951696276664734,0.9319999814033508,0.23117828369140625,0.9279999732971191
1215,0.20399251580238342,0.9300000071525574,0.23121409118175507,0.9279999732971191
1216,0.20243868231773376,0.9319999814033508,0.2311839461326599,0.9279999732971191
1217,0.2070394903421402,0.9359999895095825,0.23117345571517944,0.9279999732971191
1218,0.20909887552261353,0.9259999990463257,0.2311474084854126,0.9277777671813965
1219,0.20754890143871307,0.9380000233650208,0.23111160099506378,0.9277777671813965
1220,0.20957690477371216,0.9340000152587891,0.23109860718250275,0.9277777671813965
1221,0.20111188292503357,0.9319999814033508,0.2311101108789444,0.9277777671813965
1222,0.22057726979255676,0.9300000071525574,0.23109182715415955,0.9277777671813965
1223,0.19380874931812286,0.9319999814033508,0.23109212517738342,0.9277777671813965
1224,0.204482302069664,0.9300000071525574,0.23107874393463135,0.9277777671813965
1225,0.20730851590633392,0.9240000247955322,0.23103882372379303,0.9279999732971191
1226,0.2019566297531128,0.9279999732971191,0.23104022443294525,0.9279999732971191
1227,0.20163540542125702,0.9359999895095825,0.23102425038814545,0.9279999732971191
1228,0.19678916037082672,0.9340000152587891,0.23102734982967377,0.9279999732971191
1229,0.19537179172039032,0.9399999976158142,0.2310488522052765,0.9279999732971191
1230,0.18354609608650208,0.9340000152587891,0.2310423105955124,0.9279999732971191
1231,0.20788556337356567,0.9300000071525574,0.23095686733722687,0.9279999732971191
1232,0.20673486590385437,0.9279999732971191,0.23097088932991028,0.9279999732971191
1233,0.2146267592906952,0.9319999814033508,0.23094908893108368,0.9279999732971191
1234,0.20083726942539215,0.9340000152587891,0.2309391349554062,0.9279999732971191
1235,0.21015504002571106,0.9380000233650208,0.2309199422597885,0.9279999732971191
1236,0.20641905069351196,0.9279999732971191,0.23088474571704865,0.9279999732971191
1237,0.19307175278663635,0.9340000152587891,0.23084025084972382,0.9279999732971191
1238,0.2089339941740036,0.9340000152587891,0.2307683378458023,0.9279999732971191
1239,0.22593088448047638,0.9340000152587891,0.2307528257369995,0.9279999732971191
1240,0.20062993466854095,0.9380000233650208,0.23072105646133423,0.9279999732971191
1241,0.2080400437116623,0.9300000071525574,0.23068492114543915,0.9282222390174866
1242,0.2094094306230545,0.9319999814033508,0.23064352571964264,0.9282222390174866
1243,0.20102670788764954,0.9300000071525574,0.2306303232908249,0.9282222390174866
1244,0.20192831754684448,0.9300000071525574,0.23061572015285492,0.9282222390174866
1245,0.20235732197761536,0.9279999732971191,0.23060034215450287,0.9282222390174866
1246,0.2050461620092392,0.9300000071525574,0.23056548833847046,0.9282222390174866
1247,0.1985841691493988,0.9380000233650208,0.23058857023715973,0.9282222390174866
1248,0.21289998292922974,0.9300000071525574,0.2305869460105896,0.9282222390174866
1249,0.21071027219295502,0.9300000071525574,0.23058542609214783,0.9282222390174866
1250,0.20635579526424408,0.9300000071525574,0.23048937320709229,0.9282222390174866
1251,0.2126859724521637,0.9300000071525574,0.23049446940422058,0.9282222390174866
1252,0.20302961766719818,0.9300000071525574,0.2304871678352356,0.9282222390174866
1253,0.20490331947803497,0.9319999814033508,0.23053260147571564,0.9282222390174866
1254,0.20394808053970337,0.9319999814033508,0.2305161952972412,0.9282222390174866
1255,0.20451553165912628,0.9340000152587891,0.23045925796031952,0.9282222390174866
1256,0.199468731880188,0.9259999990463257,0.23044328391551971,0.9282222390174866
1257,0.20910024642944336,0.9240000247955322,0.2304140031337738,0.9284444451332092
1258,0.20845197141170502,0.9340000152587891,0.23038850724697113,0.9284444451332092
1259,0.20387591421604156,0.9300000071525574,0.23036423325538635,0.9284444451332092
1260,0.20523463189601898,0.9319999814033508,0.23034076392650604,0.9284444451332092
1261,0.2278483361005783,0.9300000071525574,0.2302502691745758,0.9284444451332092
1262,0.199921652674675,0.9319999814033508,0.2301805317401886,0.9284444451332092
1263,0.20724175870418549,0.9319999814033508,0.2301260381937027,0.9284444451332092
1264,0.19942425191402435,0.9259999990463257,0.23010782897472382,0.9284444451332092
1265,0.19706040620803833,0.9300000071525574,0.2301112413406372,0.9284444451332092
1266,0.20690953731536865,0.9300000071525574,0.23017369210720062,0.9284444451332092
1267,0.17757512629032135,0.9359999895095825,0.2301369160413742,0.9284444451332092
1268,0.21175774931907654,0.9340000152587891,0.23010551929473877,0.9284444451332092
1269,0.20115624368190765,0.9279999732971191,0.23007066547870636,0.9284444451332092
1270,0.21805523335933685,0.9319999814033508,0.23001760244369507,0.9284444451332092
1271,0.20029205083847046,0.9279999732971191,0.2299550473690033,0.9286666512489319
1272,0.21243466436862946,0.9319999814033508,0.22994425892829895,0.9286666512489319
1273,0.19268973171710968,0.9340000152587891,0.22992508113384247,0.9288889169692993
1274,0.1956106275320053,0.9300000071525574,0.22984160482883453,0.9288889169692993
1275,0.1925268918275833,0.9340000152587891,0.2298734337091446,0.9288889169692993
1276,0.19472427666187286,0.9300000071525574,0.22989605367183685,0.9288889169692993
1277,0.22297130525112152,0.9319999814033508,0.2298053354024887,0.9288889169692993
1278,0.1971234679222107,0.9359999895095825,0.22978664934635162,0.9288889169692993
1279,0.19337807595729828,0.9340000152587891,0.22978238761425018,0.9288889169692993
1280,0.19465795159339905,0.9319999814033508,0.2298213392496109,0.9288889169692993
1281,0.20086023211479187,0.9340000152587891,0.22975412011146545,0.9288889169692993
1282,0.19452975690364838,0.9399999976158142,0.2297225445508957,0.9288889169692993
1283,0.20237800478935242,0.9279999732971191,0.22970475256443024,0.9288889169692993
1284,0.19478367269039154,0.9340000152587891,0.2297254204750061,0.9288889169692993
1285,0.20004436373710632,0.9340000152587891,0.22975589334964752,0.9288889169692993
1286,0.1948648989200592,0.9340000152587891,0.2297268807888031,0.9288889169692993
1287,0.20552389323711395,0.9340000152587891,0.22973375022411346,0.929111123085022
1288,0.2147889882326126,0.9259999990463257,0.22976364195346832,0.929111123085022
1289,0.20099997520446777,0.9300000071525574,0.2297162562608719,0.929111123085022
1290,0.19673694670200348,0.9319999814033508,0.22972704470157623,0.929111123085022
1291,0.20221155881881714,0.9300000071525574,0.22964666783809662,0.929111123085022
1292,0.20429947972297668,0.9340000152587891,0.22965462505817413,0.929111123085022
1293,0.21376308798789978,0.9340000152587891,0.22964152693748474,0.929111123085022
1294,0.2081100046634674,0.9380000233650208,0.22965013980865479,0.929111123085022
1295,0.20311111211776733,0.9319999814033508,0.22964797914028168,0.929111123085022
1296,0.2211797535419464,0.9300000071525574,0.22963383793830872,0.929111123085022
1297,0.21496699750423431,0.9340000152587891,0.2296002060174942,0.929111123085022
1298,0.20982369780540466,0.9340000152587891,0.22957736253738403,0.929111123085022
1299,0.20686322450637817,0.9300000071525574,0.2295198291540146,0.929111123085022
1300,0.20896275341510773,0.9300000071525574,0.2294771820306778,0.929111123085022
1301,0.19773051142692566,0.9319999814033508,0.22951628267765045,0.9288889169692993
1302,0.21015192568302155,0.9359999895095825,0.22949664294719696,0.9288889169692993
1303,0.20478273928165436,0.9380000233650208,0.2294948697090149,0.9288889169692993
1304,0.1943644881248474,0.9399999976158142,0.2295123189687729,0.9288889169692993
1305,0.20651888847351074,0.9319999814033508,0.22950193285942078,0.9288889169692993
1306,0.2092152237892151,0.9300000071525574,0.22944463789463043,0.9288889169692993
1307,0.1957065910100937,0.9359999895095825,0.2294580638408661,0.929111123085022
1308,0.19126825034618378,0.9380000233650208,0.22944921255111694,0.929111123085022
1309,0.20550782978534698,0.9319999814033508,0.22945092618465424,0.929111123085022
1310,0.19197475910186768,0.9359999895095825,0.2294507920742035,0.929111123085022
1311,0.20121769607067108,0.9279999732971191,0.2294195145368576,0.929111123085022
1312,0.1912679821252823,0.9359999895095825,0.22939428687095642,0.929111123085022
1313,0.20411492884159088,0.9359999895095825,0.22935083508491516,0.929111123085022
1314,0.21318304538726807,0.9279999732971191,0.22931241989135742,0.929111123085022
1315,0.19969196617603302,0.9300000071525574,0.22923754155635834,0.929111123085022
1316,0.20860561728477478,0.9279999732971191,0.22919227182865143,0.929111123085022
1317,0.21157069504261017,0.9279999732971191,0.22921504080295563,0.929111123085022
1318,0.1996174156665802,0.9380000233650208,0.2292199730873108,0.9293333292007446
1319,0.20249487459659576,0.9279999732971191,0.22925925254821777,0.9293333292007446
1320,0.192215234041214,0.9359999895095825,0.22924378514289856,0.9295555353164673
1321,0.20574818551540375,0.9279999732971191,0.22922037541866302,0.9293333292007446
1322,0.198636993765831,0.9380000233650208,0.22923241555690765,0.9293333292007446
1323,0.19111762940883636,0.9359999895095825,0.22920583188533783,0.9293333292007446
1324,0.20056331157684326,0.9359999895095825,0.22909608483314514,0.9295555353164673
1325,0.20680050551891327,0.9300000071525574,0.2290562093257904,0.9295555353164673
1326,0.18875768780708313,0.9319999814033508,0.22905761003494263,0.9295555353164673
1327,0.20227128267288208,0.9359999895095825,0.2290240079164505,0.9295555353164673
1328,0.20840111374855042,0.9259999990463257,0.22901204228401184,0.9295555353164673
1329,0.1991598904132843,0.9340000152587891,0.22899408638477325,0.9295555353164673
1330,0.2072708010673523,0.9319999814033508,0.22900745272636414,0.9295555353164673
1331,0.1961033046245575,0.9340000152587891,0.22895276546478271,0.9295555353164673
1332,0.20364829897880554,0.9300000071525574,0.22890058159828186,0.9295555353164673
1333,0.19113098084926605,0.9319999814033508,0.228889599442482,0.9295555353164673
1334,0.19420026242733002,0.9359999895095825,0.22882011532783508,0.9295555353164673
1335,0.19283732771873474,0.9340000152587891,0.22877904772758484,0.9295555353164673
1336,0.18677373230457306,0.9380000233650208,0.22877202928066254,0.9295555353164673
1337,0.20450936257839203,0.9340000152587891,0.22876915335655212,0.9295555353164673
1338,0.2062399536371231,0.9340000152587891,0.22871069610118866,0.9295555353164673
1339,0.19608019292354584,0.9399999976158142,0.22867684066295624,0.9295555353164673
1340,0.19249117374420166,0.9319999814033508,0.22872412204742432,0.9295555353164673
1341,0.2089187502861023,0.9300000071525574,0.22870226204395294,0.9295555353164673
1342,0.20752422511577606,0.9259999990463257,0.22869059443473816,0.9295555353164673
1343,0.19215525686740875,0.9340000152587891,0.22864577174186707,0.9295555353164673
1344,0.20148593187332153,0.9300000071525574,0.22863365709781647,0.9295555353164673
1345,0.20268292725086212,0.9300000071525574,0.22858382761478424,0.9295555353164673
1346,0.18671438097953796,0.9359999895095825,0.22862853109836578,0.9295555353164673
1347,0.18566299974918365,0.9340000152587891,0.22858165204524994,0.9295555353164673
1348,0.1946515142917633,0.9340000152587891,0.22850024700164795,0.9295555353164673
1349,0.19267290830612183,0.9359999895095825,0.2285441905260086,0.9295555353164673
1350,0.18086838722229004,0.9380000233650208,0.22850088775157928,0.9295555353164673
1351,0.1966579258441925,0.9300000071525574,0.22845813632011414,0.9295555353164673
1352,0.19483861327171326,0.9319999814033508,0.22845458984375,0.9295555353164673
1353,0.19154565036296844,0.9359999895095825,0.2285107970237732,0.9295555353164673
1354,0.18957765400409698,0.9380000233650208,0.2284853458404541,0.9295555353164673
1355,0.189508855342865,0.9319999814033508,0.2285120189189911,0.9295555353164673
1356,0.19748617708683014,0.9340000152587891,0.22851017117500305,0.9295555353164673
1357,0.19980475306510925,0.9340000152587891,0.22852875292301178,0.9295555353164673
1358,0.18520908057689667,0.9300000071525574,0.22852067649364471,0.9295555353164673
1359,0.1904953122138977,0.9380000233650208,0.22850745916366577,0.9295555353164673
1360,0.19498342275619507,0.9279999732971191,0.22845901548862457,0.9295555353164673
1361,0.2167966067790985,0.9340000152587891,0.2284315526485443,0.9297778010368347
1362,0.1870150864124298,0.9340000152587891,0.2284170240163803,0.9297778010368347
1363,0.20684103667736053,0.9319999814033508,0.22843366861343384,0.9297778010368347
1364,0.20561304688453674,0.9319999814033508,0.22842198610305786,0.9297778010368347
1365,0.1860678791999817,0.9340000152587891,0.22838231921195984,0.9297778010368347
1366,0.20422351360321045,0.9319999814033508,0.22831645607948303,0.9297778010368347
1367,0.20588326454162598,0.9259999990463257,0.2283172756433487,0.9297778010368347
1368,0.20360314846038818,0.9279999732971191,0.2283075898885727,0.9297778010368347
1369,0.20166954398155212,0.9279999732971191,0.22821980714797974,0.9297778010368347
1370,0.19608791172504425,0.9300000071525574,0.22819742560386658,0.9297778010368347
1371,0.19871555268764496,0.9319999814033508,0.2281755954027176,0.9297778010368347
1372,0.19464519619941711,0.9319999814033508,0.22819381952285767,0.9297778010368347
1373,0.20325736701488495,0.9359999895095825,0.22813449800014496,0.9300000071525574
1374,0.1888972669839859,0.9380000233650208,0.22811754047870636,0.9297778010368347
1375,0.19501888751983643,0.9399999976158142,0.22808648645877838,0.9297778010368347
1376,0.18691524863243103,0.9340000152587891,0.22808659076690674,0.9295555353164673
1377,0.20411674678325653,0.9279999732971191,0.22803035378456116,0.9297778010368347
1378,0.1959758996963501,0.9380000233650208,0.22800734639167786,0.9300000071525574
1379,0.1980409324169159,0.9279999732971191,0.22796104848384857,0.9300000071525574
1380,0.20485985279083252,0.9380000233650208,0.227922260761261,0.9300000071525574
1381,0.1987941712141037,0.9300000071525574,0.22788146138191223,0.9300000071525574
1382,0.20370998978614807,0.9380000233650208,0.2279147207736969,0.9300000071525574
1383,0.1972857117652893,0.9340000152587891,0.22787776589393616,0.9300000071525574
1384,0.19261929392814636,0.9359999895095825,0.22778631746768951,0.9300000071525574
1385,0.19596634805202484,0.9319999814033508,0.22776786983013153,0.9300000071525574
1386,0.20850984752178192,0.9279999732971191,0.22776177525520325,0.9300000071525574
1387,0.18374761939048767,0.9459999799728394,0.22776223719120026,0.9300000071525574
1388,0.18913541734218597,0.9359999895095825,0.22775189578533173,0.9300000071525574
1389,0.1988760530948639,0.9340000152587891,0.2277832329273224,0.9300000071525574
1390,0.19192001223564148,0.9319999814033508,0.2277299016714096,0.9300000071525574
1391,0.19317175447940826,0.9300000071525574,0.22771872580051422,0.9300000071525574
1392,0.19151458144187927,0.9380000233650208,0.22770805656909943,0.9300000071525574
1393,0.18391099572181702,0.9340000152587891,0.22772705554962158,0.9300000071525574
1394,0.20863613486289978,0.9259999990463257,0.22771665453910828,0.9300000071525574
1395,0.20409473776817322,0.9300000071525574,0.22772300243377686,0.9300000071525574
1396,0.198870450258255,0.9340000152587891,0.22768549621105194,0.9300000071525574
1397,0.19416110217571259,0.9340000152587891,0.22768811881542206,0.9300000071525574
1398,0.20875948667526245,0.9340000152587891,0.2276928722858429,0.9300000071525574
1399,0.1894349604845047,0.9319999814033508,0.22769218683242798,0.9300000071525574
1400,0.1952429860830307,0.9359999895095825,0.22766979038715363,0.9300000071525574
1401,0.2079569399356842,0.9340000152587891,0.2276250571012497,0.9300000071525574
1402,0.19390277564525604,0.9380000233650208,0.22760893404483795,0.9300000071525574
1403,0.1965499073266983,0.9340000152587891,0.22756743431091309,0.9300000071525574
1404,0.1912691593170166,0.9340000152587891,0.22754564881324768,0.9300000071525574
1405,0.19981522858142853,0.9340000152587891,0.227488175034523,0.9300000071525574
1406,0.2134278267621994,0.9300000071525574,0.22754095494747162,0.9300000071525574
1407,0.21062643826007843,0.9279999732971191,0.22750121355056763,0.9300000071525574
1408,0.20909617841243744,0.9300000071525574,0.22747088968753815,0.9300000071525574
1409,0.19832351803779602,0.9340000152587891,0.22745846211910248,0.9300000071525574
1410,0.20011986792087555,0.9319999814033508,0.22739501297473907,0.9300000071525574
1411,0.1965118795633316,0.9359999895095825,0.22737979888916016,0.9300000071525574
1412,0.2038910984992981,0.9279999732971191,0.2273641675710678,0.9300000071525574
1413,0.1899888813495636,0.9359999895095825,0.22736582159996033,0.9300000071525574
1414,0.20750725269317627,0.9340000152587891,0.22735907137393951,0.9300000071525574
1415,0.18033018708229065,0.9359999895095825,0.22737348079681396,0.9300000071525574
1416,0.2088918834924698,0.9240000247955322,0.22734485566616058,0.9300000071525574
1417,0.19056454300880432,0.9300000071525574,0.2273559421300888,0.9300000071525574
1418,0.20360144972801208,0.9359999895095825,0.22736304998397827,0.9300000071525574
1419,0.1900785118341446,0.9259999990463257,0.2273571789264679,0.9300000071525574
1420,0.21345408260822296,0.9359999895095825,0.22738534212112427,0.9300000071525574
1421,0.1969638615846634,0.9359999895095825,0.22740595042705536,0.9300000071525574
1422,0.20288540422916412,0.9319999814033508,0.22738602757453918,0.9300000071525574
1423,0.19691957533359528,0.9340000152587891,0.22735872864723206,0.9300000071525574
1424,0.1921420395374298,0.9340000152587891,0.22736521065235138,0.9300000071525574
1425,0.20198851823806763,0.9340000152587891,0.22735711932182312,0.9300000071525574
1426,0.195680171251297,0.9300000071525574,0.2274104207754135,0.9300000071525574
1427,0.19703611731529236,0.9359999895095825,0.22737930715084076,0.9300000071525574
1428,0.20448751747608185,0.9340000152587891,0.2273661196231842,0.9300000071525574
1429,0.20079348981380463,0.9259999990463257,0.22732724249362946,0.9300000071525574
1430,0.20082899928092957,0.9359999895095825,0.22732695937156677,0.9300000071525574
1431,0.2007370889186859,0.9359999895095825,0.2273409217596054,0.9300000071525574
1432,0.18547281622886658,0.9319999814033508,0.22731895744800568,0.9300000071525574
1433,0.1910465657711029,0.9359999895095825,0.227294921875,0.9300000071525574
1434,0.19182445108890533,0.9300000071525574,0.22726275026798248,0.9300000071525574
1435,0.18824361264705658,0.9399999976158142,0.22724822163581848,0.9300000071525574
1436,0.18832926452159882,0.9399999976158142,0.2272229641675949,0.93022221326828
1437,0.1921304315328598,0.9359999895095825,0.22722391784191132,0.93022221326828
1438,0.18720708787441254,0.9419999718666077,0.2272714078426361,0.93022221326828
1439,0.19811832904815674,0.9340000152587891,0.22723525762557983,0.93022221326828
1440,0.19448573887348175,0.9319999814033508,0.2271757423877716,0.93022221326828
1441,0.18640634417533875,0.9359999895095825,0.22718453407287598,0.93022221326828
1442,0.18846918642520905,0.9340000152587891,0.2271764576435089,0.93022221326828
1443,0.20803257822990417,0.9319999814033508,0.22717919945716858,0.93022221326828
1444,0.21175040304660797,0.9359999895095825,0.2271539717912674,0.93022221326828
1445,0.19065696001052856,0.9399999976158142,0.2271217256784439,0.93022221326828
1446,0.18852581083774567,0.9359999895095825,0.22710244357585907,0.9300000071525574
1447,0.2000150829553604,0.9240000247955322,0.2271406054496765,0.9300000071525574
1448,0.1837611347436905,0.9319999814033508,0.2270835041999817,0.9300000071525574
1449,0.1891404688358307,0.9359999895095825,0.22709298133850098,0.9300000071525574
1450,0.19457998871803284,0.9359999895095825,0.2270924299955368,0.9300000071525574
1451,0.19124558568000793,0.9319999814033508,0.2270677536725998,0.9300000071525574
1452,0.19733388721942902,0.9359999895095825,0.22704657912254333,0.9300000071525574
1453,0.19525562226772308,0.9279999732971191,0.22702492773532867,0.9300000071525574
1454,0.19101324677467346,0.9319999814033508,0.22699666023254395,0.9300000071525574
1455,0.20755651593208313,0.9319999814033508,0.2269863486289978,0.9300000071525574
1456,0.1867915391921997,0.9340000152587891,0.22692161798477173,0.9300000071525574
1457,0.1933436244726181,0.9300000071525574,0.22695238888263702,0.9300000071525574
1458,0.1887138932943344,0.9399999976158142,0.22687946259975433,0.9300000071525574
1459,0.1881949007511139,0.9419999718666077,0.22684641182422638,0.9300000071525574
1460,0.2002861499786377,0.9399999976158142,0.22680124640464783,0.9300000071525574
1461,0.2032112330198288,0.9359999895095825,0.22680485248565674,0.9300000071525574
1462,0.19779790937900543,0.9240000247955322,0.22678518295288086,0.9300000071525574
1463,0.19420461356639862,0.9279999732971191,0.2267901599407196,0.9300000071525574
1464,0.1868116408586502,0.9340000152587891,0.22678354382514954,0.9300000071525574
1465,0.19272227585315704,0.9340000152587891,0.2268044501543045,0.9300000071525574
1466,0.19222567975521088,0.9359999895095825,0.22679463028907776,0.9300000071525574
1467,0.20742544531822205,0.9279999732971191,0.22677457332611084,0.9300000071525574
1468,0.19005203247070312,0.9359999895095825,0.22676509618759155,0.9300000071525574
1469,0.19370730221271515,0.9380000233650208,0.22673629224300385,0.9300000071525574
1470,0.1725761443376541,0.9459999799728394,0.22674700617790222,0.9300000071525574
1471,0.1851496696472168,0.9319999814033508,0.22670020163059235,0.9300000071525574
1472,0.19018910825252533,0.9319999814033508,0.22673606872558594,0.9300000071525574
1473,0.19306181371212006,0.9319999814033508,0.2267163246870041,0.9300000071525574
1474,0.19336779415607452,0.9340000152587891,0.2266721874475479,0.9300000071525574
1475,0.18269936740398407,0.9340000152587891,0.22667592763900757,0.9300000071525574
1476,0.19340036809444427,0.9300000071525574,0.22664117813110352,0.9300000071525574
1477,0.2013038992881775,0.9259999990463257,0.2266722321510315,0.9300000071525574
1478,0.1974603235721588,0.9319999814033508,0.22666896879673004,0.9300000071525574
1479,0.1998666226863861,0.9340000152587891,0.22665385901927948,0.9300000071525574
1480,0.19264495372772217,0.9319999814033508,0.22659216821193695,0.9300000071525574
1481,0.1766769289970398,0.9359999895095825,0.22659975290298462,0.9300000071525574
1482,0.19758619368076324,0.9380000233650208,0.2265879511833191,0.9300000071525574
1483,0.19556616246700287,0.9340000152587891,0.2265697568655014,0.9300000071525574
