,loss,recall,val_loss,val_recall
0,0.5621244311332703,0.8119999766349792,1.4131683111190796,0.0
1,0.3570842146873474,0.906000018119812,1.6409250497817993,0.0
2,0.3130691945552826,0.9259999990463257,1.7569520473480225,0.0
3,0.27960899472236633,0.9179999828338623,2.166541576385498,0.0
4,0.2577895522117615,0.9319999814033508,1.9303309917449951,0.01711111143231392
5,0.25997596979141235,0.9259999990463257,2.0689611434936523,0.018666666001081467
6,0.248401939868927,0.9279999732971191,1.7025805711746216,0.01644444465637207
7,0.2178909331560135,0.9279999732971191,2.1865286827087402,0.017777778208255768
8,0.28550928831100464,0.9079999923706055,0.424498587846756,0.8495555520057678
9,0.23514464497566223,0.9279999732971191,0.9165518879890442,0.3951111137866974
10,0.2208484560251236,0.9300000071525574,0.8099105954170227,0.5360000133514404
11,0.2254907339811325,0.9259999990463257,0.38711291551589966,0.8931111097335815
12,0.2070966213941574,0.9340000152587891,0.5104155540466309,0.8108888864517212
13,0.1792139708995819,0.9459999799728394,0.40682899951934814,0.855555534362793
14,0.1869966983795166,0.9419999718666077,0.3260836601257324,0.9111111164093018
15,0.1843728870153427,0.9459999799728394,0.24553382396697998,0.9293333292007446
16,0.16874971985816956,0.9480000138282776,0.24402976036071777,0.9300000071525574
17,0.17196910083293915,0.9480000138282776,0.23963278532028198,0.9313333630561829
18,0.16599880158901215,0.9480000138282776,0.24536773562431335,0.9324444532394409
19,0.173111692070961,0.949999988079071,0.23468980193138123,0.929111123085022
20,0.17120036482810974,0.9480000138282776,0.35461997985839844,0.9068889021873474
21,0.22283469140529633,0.921999990940094,0.35034695267677307,0.9006666541099548
22,0.20174024999141693,0.9279999732971191,0.30699852108955383,0.918666660785675
23,0.1759643256664276,0.949999988079071,0.22340741753578186,0.9362221956253052
24,0.15969128906726837,0.9520000219345093,0.22622273862361908,0.9346666932106018
25,0.16503912210464478,0.9480000138282776,0.23003128170967102,0.9355555772781372
26,0.16678138077259064,0.9440000057220459,0.300813227891922,0.906000018119812
27,0.1371884047985077,0.9580000042915344,0.3026563823223114,0.9182222485542297
28,0.1374364048242569,0.9599999785423279,0.3178212344646454,0.9231111407279968
29,0.1776277869939804,0.9459999799728394,0.3291293978691101,0.9317777752876282
30,0.1369510442018509,0.9620000123977661,0.28674203157424927,0.9271110892295837
31,0.13415637612342834,0.9580000042915344,0.26671651005744934,0.9275555610656738
32,0.13034401834011078,0.9559999704360962,0.28300002217292786,0.9286666512489319
33,0.13507819175720215,0.9580000042915344,0.27776268124580383,0.9348888993263245
34,0.11695600301027298,0.9620000123977661,0.2384781837463379,0.9337777495384216
35,0.11956575512886047,0.9599999785423279,0.30193954706192017,0.9084444642066956
36,0.12379150092601776,0.9620000123977661,0.2398749738931656,0.9313333630561829
37,0.1219734326004982,0.9580000042915344,0.2328832745552063,0.9346666932106018
38,0.1236213967204094,0.9620000123977661,0.25427573919296265,0.9268888831138611
39,0.11891023814678192,0.9599999785423279,0.2757500410079956,0.9286666512489319
40,0.12047304958105087,0.9620000123977661,0.24856242537498474,0.940666675567627
41,0.14356380701065063,0.9480000138282776,0.2467818409204483,0.9359999895095825
42,0.14479920268058777,0.9580000042915344,0.37897661328315735,0.8946666717529297
43,0.10708890855312347,0.9639999866485596,0.24513199925422668,0.9311110973358154
44,0.10413859784603119,0.9700000286102295,0.2650383412837982,0.9264444708824158
45,0.1421186327934265,0.9539999961853027,0.25703129172325134,0.9377777576446533
46,0.13104292750358582,0.9599999785423279,0.29414594173431396,0.9304444193840027
47,0.16427288949489594,0.9459999799728394,0.42517030239105225,0.9048888683319092
48,0.13440962135791779,0.9520000219345093,0.6088255643844604,0.7940000295639038
49,0.1360621452331543,0.9599999785423279,0.25753313302993774,0.9388889074325562
50,0.1303483545780182,0.949999988079071,0.5390921235084534,0.8291110992431641
51,0.10940062999725342,0.9620000123977661,0.25115132331848145,0.9380000233650208
52,0.10339999943971634,0.9700000286102295,0.23246967792510986,0.9415555596351624
53,0.10618094354867935,0.9620000123977661,0.382694810628891,0.8846666812896729
54,0.098458431661129,0.9620000123977661,0.225936621427536,0.9402222037315369
55,0.09086178988218307,0.9700000286102295,0.23713910579681396,0.9426666498184204
56,0.09275517612695694,0.9660000205039978,0.24820257723331451,0.9402222037315369
57,0.09201419353485107,0.9679999947547913,0.23187394440174103,0.9382222294807434
58,0.08427747339010239,0.972000002861023,0.24727870523929596,0.9399999976158142
59,0.0916251689195633,0.9679999947547913,0.2583402395248413,0.9348888993263245
60,0.092991404235363,0.972000002861023,0.23511908948421478,0.9359999895095825
61,0.09746495634317398,0.9679999947547913,0.2610001266002655,0.9362221956253052
62,0.09260238707065582,0.9700000286102295,0.2975279688835144,0.9328888654708862
63,0.08747898787260056,0.9700000286102295,0.28798291087150574,0.9317777752876282
64,0.10397697985172272,0.9660000205039978,0.2782880961894989,0.9371111392974854
65,0.11880414932966232,0.9539999961853027,0.44431981444358826,0.8773333430290222
66,0.11249101161956787,0.9620000123977661,0.29381081461906433,0.9342222213745117
67,0.10593635588884354,0.9679999947547913,0.2902035713195801,0.9355555772781372
68,0.10223424434661865,0.9679999947547913,0.2816851735115051,0.9228888750076294
69,0.09415191411972046,0.9679999947547913,0.3274112939834595,0.9277777671813965
70,0.08269645273685455,0.972000002861023,0.3405235707759857,0.9066666960716248
71,0.0867285206913948,0.9739999771118164,0.275896281003952,0.9306666851043701
72,0.08164266496896744,0.972000002861023,0.24786925315856934,0.940666675567627
73,0.08116795867681503,0.9760000109672546,0.2639555335044861,0.9306666851043701
74,0.10131551325321198,0.9620000123977661,0.34380635619163513,0.9355555772781372
75,0.10247483104467392,0.9639999866485596,0.2532232701778412,0.940666675567627
76,0.07421067357063293,0.9760000109672546,0.3077548146247864,0.9324444532394409
77,0.0789041519165039,0.9739999771118164,0.2782793939113617,0.937333345413208
78,0.0728665441274643,0.9760000109672546,0.24300149083137512,0.940666675567627
79,0.14207878708839417,0.9520000219345093,0.2992812991142273,0.9357777833938599
80,0.09895599633455276,0.9700000286102295,0.2673824727535248,0.9364444613456726
81,0.10057631880044937,0.9660000205039978,0.27997875213623047,0.9364444613456726
82,0.11369556933641434,0.9580000042915344,0.27316027879714966,0.93022221326828
83,0.13511916995048523,0.9639999866485596,0.2788289785385132,0.9386666417121887
84,0.10183470696210861,0.9639999866485596,0.42755264043807983,0.86644446849823
85,0.09472423791885376,0.9679999947547913,0.24311311542987823,0.9380000233650208
86,0.07532796263694763,0.9760000109672546,0.407111793756485,0.8697777986526489
87,0.07635701447725296,0.9779999852180481,0.27752307057380676,0.9415555596351624
88,0.07973601669073105,0.9760000109672546,0.25197771191596985,0.9364444613456726
89,0.07496514171361923,0.9779999852180481,0.250780314207077,0.9419999718666077
90,0.06923812627792358,0.9800000190734863,0.24593739211559296,0.9404444694519043
91,0.0664815679192543,0.9819999933242798,0.27398979663848877,0.9364444613456726
92,0.07972095906734467,0.9739999771118164,0.2580674886703491,0.9351111054420471
93,0.10656805336475372,0.9639999866485596,0.2942928969860077,0.9359999895095825
94,0.10126625001430511,0.9700000286102295,0.2683865427970886,0.9355555772781372
95,0.09018506109714508,0.9760000109672546,0.3227510452270508,0.9293333292007446
96,0.07983753085136414,0.972000002861023,0.25563180446624756,0.9397777915000916
97,0.08861859887838364,0.972000002861023,0.30292049050331116,0.9399999976158142
98,0.08473613113164902,0.972000002861023,0.3666822910308838,0.9168888926506042
99,0.07161437720060349,0.9800000190734863,0.28247588872909546,0.9246666431427002
100,0.08235611766576767,0.972000002861023,0.26299431920051575,0.9371111392974854
101,0.06305692344903946,0.9800000190734863,0.27127936482429504,0.9380000233650208
102,0.06112820655107498,0.984000027179718,0.28525039553642273,0.9233333468437195
103,0.0716092586517334,0.9779999852180481,0.2661557197570801,0.9371111392974854
104,0.05910797044634819,0.9860000014305115,0.28873538970947266,0.9348888993263245
105,0.06432413309812546,0.984000027179718,0.3291659653186798,0.9444444179534912
106,0.07238604128360748,0.9800000190734863,0.2885412871837616,0.9353333115577698
107,0.06118405610322952,0.9819999933242798,0.3104674816131592,0.9171110987663269
108,0.05961476266384125,0.9860000014305115,0.2786068916320801,0.9393333196640015
109,0.06374798715114594,0.9779999852180481,0.3532276451587677,0.9268888831138611
110,0.05748078599572182,0.9800000190734863,0.31008559465408325,0.9397777915000916
111,0.1024610623717308,0.9660000205039978,0.3755629360675812,0.9333333373069763
112,0.07538705319166183,0.9779999852180481,0.314225435256958,0.9426666498184204
113,0.06726130843162537,0.9800000190734863,0.3001173436641693,0.9351111054420471
114,0.060128942131996155,0.984000027179718,0.29332470893859863,0.9382222294807434
115,0.058851562440395355,0.9779999852180481,0.2838933765888214,0.9413333535194397
116,0.06101938709616661,0.9819999933242798,0.3003110885620117,0.9351111054420471
117,0.061127882450819016,0.9860000014305115,0.3355354368686676,0.937333345413208
118,0.05178884044289589,0.984000027179718,0.29585957527160645,0.9404444694519043
119,0.05675758421421051,0.9819999933242798,0.3079255223274231,0.9371111392974854
120,0.0488598570227623,0.9879999756813049,0.27773216366767883,0.9428889155387878
121,0.06574645638465881,0.9760000109672546,0.3514849543571472,0.9377777576446533
122,0.10806407779455185,0.9660000205039978,0.6000232696533203,0.8866666555404663
123,0.09439685195684433,0.9760000109672546,0.6183407306671143,0.7488889098167419
124,0.06363257765769958,0.9819999933242798,0.41517090797424316,0.8795555830001831
125,0.06583556532859802,0.9819999933242798,0.29810768365859985,0.9408888816833496
126,0.0704420655965805,0.9779999852180481,0.3120346665382385,0.9375555515289307
127,0.05836000293493271,0.9819999933242798,0.2852281630039215,0.9362221956253052
128,0.06023848429322243,0.9800000190734863,0.2964625954627991,0.9359999895095825
129,0.05566903203725815,0.9860000014305115,0.3019755184650421,0.9362221956253052
130,0.05091123655438423,0.9900000095367432,0.301134318113327,0.9355555772781372
131,0.0581224262714386,0.9800000190734863,0.3274058699607849,0.9359999895095825
132,0.04927913844585419,0.9860000014305115,0.2758301794528961,0.937333345413208
133,0.060894109308719635,0.9819999933242798,0.31837010383605957,0.9397777915000916
134,0.05259846895933151,0.9860000014305115,0.44115889072418213,0.8491111397743225
135,0.04634584113955498,0.9860000014305115,0.3303147852420807,0.9388889074325562
136,0.04945529252290726,0.984000027179718,0.28477364778518677,0.9384444355964661
137,0.041503842920064926,0.9879999756813049,0.32831066846847534,0.913777768611908
138,0.04637407138943672,0.9879999756813049,0.31123870611190796,0.9413333535194397
139,0.06060883402824402,0.9760000109672546,0.3655170798301697,0.902222216129303
140,0.05559955909848213,0.9819999933242798,0.3817223608493805,0.875333309173584
141,0.04621017724275589,0.9879999756813049,0.3264141380786896,0.9380000233650208
142,0.042884040623903275,0.9860000014305115,0.31433728337287903,0.9393333196640015
143,0.039933815598487854,0.9860000014305115,0.3811332583427429,0.9344444274902344
144,0.04263372719287872,0.9879999756813049,0.2938014268875122,0.9391111135482788
145,0.04164241626858711,0.9860000014305115,0.35284438729286194,0.9368888735771179
146,0.03679840639233589,0.9940000176429749,0.3091731071472168,0.9300000071525574
147,0.038434211164712906,0.9900000095367432,0.3951638638973236,0.9388889074325562
148,0.043648894876241684,0.9879999756813049,0.43096575140953064,0.9408888816833496
149,0.06829395890235901,0.9800000190734863,0.6161084175109863,0.8213333487510681
150,0.06055242940783501,0.9760000109672546,0.3198623061180115,0.9384444355964661
151,0.042185716331005096,0.9800000190734863,0.3493659496307373,0.9337777495384216
152,0.047207385301589966,0.9879999756813049,0.28084874153137207,0.9364444613456726
153,0.04361815005540848,0.9860000014305115,0.3095906376838684,0.9357777833938599
154,0.03674640879034996,0.9919999837875366,0.2832624912261963,0.9355555772781372
155,0.031040044501423836,0.9919999837875366,0.3507804572582245,0.9415555596351624
156,0.047286633402109146,0.9800000190734863,0.31569045782089233,0.9293333292007446
157,0.054266251623630524,0.9860000014305115,0.36633768677711487,0.9442222118377686
158,0.058114632964134216,0.9800000190734863,0.48124077916145325,0.8402222394943237
159,0.03624080494046211,0.9900000095367432,0.39792248606681824,0.9442222118377686
160,0.03953216224908829,0.9879999756813049,0.427109956741333,0.8455555438995361
161,0.0352901965379715,0.9900000095367432,0.39901745319366455,0.9404444694519043
162,0.035746555775403976,0.9919999837875366,0.36051544547080994,0.937333345413208
163,0.03930063173174858,0.9879999756813049,0.36461490392684937,0.9384444355964661
164,0.05163350701332092,0.9860000014305115,0.38568946719169617,0.8973333239555359
165,0.034665290266275406,0.9900000095367432,0.32764896750450134,0.9386666417121887
166,0.038745928555727005,0.9900000095367432,0.6899113655090332,0.9348888993263245
167,0.07995368540287018,0.9819999933242798,0.31733402609825134,0.937333345413208
168,0.07263757288455963,0.9760000109672546,0.5606908798217773,0.8986666798591614
169,0.14644375443458557,0.9480000138282776,0.5720282793045044,0.9242222309112549
170,0.0868413895368576,0.9739999771118164,0.46163347363471985,0.9351111054420471
171,0.06111587584018707,0.9800000190734863,0.3480123281478882,0.9308888912200928
172,0.05405712500214577,0.9860000014305115,0.3594541549682617,0.9362221956253052
173,0.04350769519805908,0.9819999933242798,0.29808929562568665,0.9324444532394409
174,0.06198501214385033,0.9819999933242798,0.5307934880256653,0.828000009059906
175,0.05367892235517502,0.984000027179718,0.3129027485847473,0.929111123085022
176,0.07191020995378494,0.9800000190734863,0.49573129415512085,0.8662222027778625
177,0.03886881843209267,0.9900000095367432,0.31586313247680664,0.9395555257797241
178,0.04553496092557907,0.9779999852180481,0.3113518953323364,0.9419999718666077
179,0.042702168226242065,0.9879999756813049,0.35136452317237854,0.9233333468437195
180,0.10123368352651596,0.9620000123977661,0.353593111038208,0.9428889155387878
181,0.11048942059278488,0.9639999866485596,0.918873131275177,0.7195555567741394
182,0.06274241954088211,0.9760000109672546,0.33868280053138733,0.9333333373069763
183,0.04677445814013481,0.9860000014305115,0.3055182993412018,0.9362221956253052
184,0.05466413497924805,0.9819999933242798,0.3247867226600647,0.9288889169692993
185,0.04317975416779518,0.9879999756813049,0.34475699067115784,0.9404444694519043
186,0.02915453538298607,0.9919999837875366,0.3182744085788727,0.9375555515289307
187,0.032134562730789185,0.9919999837875366,0.33156970143318176,0.9395555257797241
188,0.02898094244301319,0.9919999837875366,0.3307720124721527,0.9275555610656738
189,0.057974543422460556,0.9800000190734863,0.728628933429718,0.765999972820282
190,0.04587502032518387,0.984000027179718,0.3394264876842499,0.9288889169692993
191,0.02966909110546112,0.9940000176429749,0.3224528133869171,0.9411110877990723
192,0.027906818315386772,0.9940000176429749,0.32889631390571594,0.9419999718666077
193,0.02429502084851265,0.9959999918937683,0.47498181462287903,0.9368888735771179
194,0.03530798852443695,0.9900000095367432,0.3800273835659027,0.9053333401679993
195,0.03406745567917824,0.9900000095367432,0.3517766296863556,0.941777765750885
196,0.020092250779271126,0.9959999918937683,0.3212513327598572,0.9402222037315369
197,0.026098551228642464,0.9919999837875366,0.39808568358421326,0.9264444708824158
198,0.050119683146476746,0.9819999933242798,0.34782686829566956,0.9164444208145142
199,0.027225835248827934,0.9940000176429749,0.3458939790725708,0.9364444613456726
200,0.02441130392253399,0.9900000095367432,0.31010979413986206,0.925777792930603
201,0.024425001814961433,0.9959999918937683,0.3106287717819214,0.9268888831138611
202,0.017435530200600624,0.9980000257492065,0.36689990758895874,0.9391111135482788
203,0.020081276074051857,0.9959999918937683,0.39800509810447693,0.933555543422699
204,0.01789574697613716,0.9959999918937683,0.32119637727737427,0.9279999732971191
205,0.021633043885231018,0.9919999837875366,0.35062092542648315,0.9411110877990723
206,0.02033914253115654,0.9959999918937683,0.36234745383262634,0.9388889074325562
207,0.016914794221520424,0.9940000176429749,0.3913041651248932,0.9408888816833496
208,0.020274609327316284,0.9940000176429749,0.3599373996257782,0.9355555772781372
209,0.08371848613023758,0.972000002861023,1.0348888635635376,0.9319999814033508
210,0.07336698472499847,0.9779999852180481,1.1351845264434814,0.8064444661140442
211,0.08128321915864944,0.9660000205039978,0.8431536555290222,0.7208889126777649
212,0.04975459724664688,0.984000027179718,0.4931744933128357,0.9399999976158142
213,0.056161146610975266,0.9900000095367432,0.40793049335479736,0.9424444437026978
214,0.03365052863955498,0.9919999837875366,0.4061257541179657,0.8911111354827881
215,0.043273549526929855,0.9779999852180481,0.3617229759693146,0.9117777943611145
216,0.0587330162525177,0.9819999933242798,0.44272854924201965,0.9315555691719055
217,0.04723067954182625,0.9879999756813049,0.6387689709663391,0.7962222099304199
218,0.029932202771306038,0.9959999918937683,0.37022316455841064,0.940666675567627
219,0.02532542683184147,0.9919999837875366,0.36939045786857605,0.9139999747276306
220,0.027502041310071945,0.9919999837875366,0.343833327293396,0.9408888816833496
221,0.05854695290327072,0.9679999947547913,0.3594489097595215,0.9171110987663269
222,0.07061368972063065,0.9800000190734863,4.165498733520508,0.6028888821601868
223,0.059254240244627,0.984000027179718,0.517900824546814,0.8786666393280029
224,0.05101821571588516,0.9860000014305115,0.3561314642429352,0.9108889102935791
225,0.05536992847919464,0.9800000190734863,0.359641969203949,0.9402222037315369
226,0.03731710836291313,0.9900000095367432,0.32747507095336914,0.9415555596351624
227,0.02493176981806755,0.9919999837875366,0.3182361125946045,0.9404444694519043
228,0.025443987920880318,0.9940000176429749,0.31045228242874146,0.9428889155387878
229,0.019707145169377327,0.9959999918937683,0.3133019208908081,0.9391111135482788
230,0.026186997070908546,0.9959999918937683,0.3497745096683502,0.9435555338859558
231,0.015516169369220734,1.0,0.3641275465488434,0.9419999718666077
232,0.02932492271065712,0.9900000095367432,0.3413917124271393,0.937333345413208
233,0.016506986692547798,0.9959999918937683,0.42524147033691406,0.9395555257797241
234,0.024405481293797493,0.9940000176429749,0.38724011182785034,0.9404444694519043
235,0.020287957042455673,0.9959999918937683,0.3316694498062134,0.937333345413208
236,0.019025472924113274,0.9959999918937683,0.3550146818161011,0.9415555596351624
237,0.014917589724063873,0.9959999918937683,0.34904423356056213,0.9397777915000916
238,0.01602654717862606,0.9980000257492065,0.5222013592720032,0.9368888735771179
239,0.015963712707161903,0.9959999918937683,0.32876667380332947,0.9408888816833496
240,0.031178763136267662,0.9900000095367432,0.36697569489479065,0.9453333616256714
241,0.026393355801701546,0.9900000095367432,0.37803196907043457,0.9408888816833496
242,0.06533828377723694,0.9819999933242798,0.9395416378974915,0.9293333292007446
243,0.08952025324106216,0.972000002861023,0.41849470138549805,0.910444438457489
244,0.039387047290802,0.9860000014305115,0.42844659090042114,0.9073333144187927
245,0.0339062437415123,0.9879999756813049,0.3458980917930603,0.929111123085022
246,0.019029907882213593,0.9959999918937683,0.47880691289901733,0.8539999723434448
247,0.012554598972201347,1.0,0.5603790283203125,0.8111110925674438
248,0.01624208129942417,0.9959999918937683,0.3840787708759308,0.9088888764381409
249,0.03393208235502243,0.9919999837875366,0.4511317312717438,0.8795555830001831
250,0.019333524629473686,0.9959999918937683,0.4091125726699829,0.9433333277702332
251,0.015225932002067566,0.9980000257492065,0.3581503629684448,0.9315555691719055
252,0.014883589930832386,0.9959999918937683,0.3677506744861603,0.9273333549499512
253,0.022166024893522263,0.9900000095367432,0.3750639259815216,0.933555543422699
254,0.014853264205157757,0.9940000176429749,0.38103070855140686,0.9397777915000916
255,0.012328254990279675,1.0,0.4166937470436096,0.9437777996063232
256,0.012397789396345615,0.9959999918937683,0.47842517495155334,0.941777765750885
257,0.018262622877955437,0.9940000176429749,0.3750540018081665,0.9311110973358154
258,0.047599487006664276,0.984000027179718,0.782871663570404,0.9344444274902344
259,0.0780317634344101,0.972000002861023,1.0800485610961914,0.9246666431427002
260,0.048739124089479446,0.9819999933242798,0.43998295068740845,0.9426666498184204
261,0.045773304998874664,0.9900000095367432,0.3748086392879486,0.9380000233650208
262,0.02154393494129181,0.9919999837875366,0.43531978130340576,0.8891111016273499
263,0.023145446553826332,0.9940000176429749,0.38124871253967285,0.909333348274231
264,0.016210030764341354,0.9959999918937683,0.3777700662612915,0.941777765750885
265,0.012820466421544552,0.9959999918937683,0.3453684151172638,0.9248889088630676
266,0.012221332639455795,0.9959999918937683,0.34546831250190735,0.9415555596351624
267,0.0094153992831707,0.9980000257492065,0.3637561500072479,0.9382222294807434
268,0.006454993039369583,1.0,0.3820638060569763,0.9353333115577698
269,0.007859772071242332,0.9980000257492065,0.3828895092010498,0.9397777915000916
270,0.008802231401205063,1.0,0.366707980632782,0.9386666417121887
271,0.008786738850176334,0.9959999918937683,0.39168861508369446,0.9308888912200928
272,0.011259889230132103,1.0,0.34990134835243225,0.9404444694519043
273,0.020067960023880005,0.9959999918937683,0.41702085733413696,0.9426666498184204
274,0.03176973760128021,0.9879999756813049,0.5076582431793213,0.9348888993263245
275,0.04147794470191002,0.9879999756813049,0.41261547803878784,0.9204444289207458
276,0.01611274480819702,0.9980000257492065,0.41096916794776917,0.9062222242355347
277,0.008722267113626003,0.9980000257492065,0.38037946820259094,0.9208889007568359
278,0.01464229915291071,0.9980000257492065,0.3575155436992645,0.9326666593551636
279,0.02526065707206726,0.9879999756813049,0.5716369152069092,0.940666675567627
280,0.02597353793680668,0.9900000095367432,0.6061885356903076,0.8182222247123718
281,0.012833519838750362,0.9980000257492065,0.34096428751945496,0.9404444694519043
282,0.01276601292192936,0.9959999918937683,0.3546895682811737,0.9397777915000916
283,0.005421357695013285,1.0,0.35203495621681213,0.9324444532394409
284,0.00901438482105732,1.0,0.36391425132751465,0.9397777915000916
285,0.00855890940874815,1.0,0.3915712237358093,0.9355555772781372
286,0.005226944573223591,1.0,0.44827964901924133,0.9404444694519043
287,0.0027271751314401627,1.0,0.4079377353191376,0.9393333196640015
288,0.00408957852050662,1.0,0.3953017592430115,0.933555543422699
289,0.0032944476697593927,1.0,0.41575363278388977,0.9326666593551636
290,0.005611516535282135,0.9980000257492065,0.41282713413238525,0.9382222294807434
291,0.0032275128178298473,1.0,0.4406910538673401,0.9397777915000916
292,0.0036311245057731867,1.0,0.39922863245010376,0.9355555772781372
293,0.0043516624718904495,1.0,0.436160147190094,0.9415555596351624
294,0.0040896269492805,1.0,0.4198981523513794,0.9399999976158142
295,0.0022585114929825068,1.0,0.4221631586551666,0.937333345413208
296,0.0026354738511145115,1.0,0.44032636284828186,0.9399999976158142
297,0.003758717328310013,1.0,0.48101794719696045,0.9395555257797241
298,0.01121986098587513,0.9940000176429749,0.5198229551315308,0.9053333401679993
299,0.02139269933104515,0.9940000176429749,0.4811807870864868,0.941777765750885
300,0.04082699120044708,0.9879999756813049,0.8045017123222351,0.9364444613456726
301,0.047438181936740875,0.9800000190734863,0.4514444172382355,0.9282222390174866
302,0.11502673476934433,0.972000002861023,0.8155986070632935,0.8991110920906067
303,0.09445857256650925,0.972000002861023,0.48586446046829224,0.9271110892295837
304,0.09774649143218994,0.9700000286102295,0.5793443322181702,0.9115555286407471
305,0.051295965909957886,0.9879999756813049,0.5360662341117859,0.8537777662277222
306,0.03264888748526573,0.9940000176429749,0.49846360087394714,0.836222231388092
307,0.02116650529205799,0.9959999918937683,0.49042224884033203,0.8355555534362793
308,0.014709689654409885,0.9980000257492065,0.3636080324649811,0.9084444642066956
309,0.013147755526006222,0.9980000257492065,0.6422788500785828,0.7791110873222351
310,0.019047599285840988,0.9980000257492065,0.35533684492111206,0.9300000071525574
311,0.015009739436209202,0.9959999918937683,0.3309478461742401,0.9319999814033508
312,0.01704791560769081,0.9980000257492065,0.37281274795532227,0.9295555353164673
313,0.011110925115644932,1.0,0.3923225700855255,0.9100000262260437
314,0.012081010267138481,0.9959999918937683,0.3806620240211487,0.9164444208145142
315,0.01042916625738144,0.9980000257492065,0.3840906322002411,0.9393333196640015
316,0.007842227816581726,0.9980000257492065,0.3825450837612152,0.9319999814033508
317,0.010440911166369915,0.9980000257492065,0.3808964788913727,0.9177777767181396
318,0.029756013303995132,0.9940000176429749,0.5092580318450928,0.9393333196640015
319,0.028707578778266907,0.9900000095367432,0.40658143162727356,0.9411110877990723
320,0.018293241038918495,0.9959999918937683,0.5292336344718933,0.8513333201408386
321,0.011147339828312397,0.9980000257492065,0.378715842962265,0.9364444613456726
322,0.008152125403285027,0.9980000257492065,0.3960997462272644,0.9366666674613953
323,0.006370604038238525,0.9980000257492065,0.4323969781398773,0.9415555596351624
324,0.006231804843991995,0.9980000257492065,0.38851600885391235,0.9337777495384216
325,0.003685723291710019,1.0,0.4104223847389221,0.9395555257797241
326,0.0029179996345192194,1.0,0.4039311110973358,0.9322222471237183
327,0.0035995356738567352,1.0,0.4035972058773041,0.9300000071525574
328,0.007133698556572199,1.0,0.4086575508117676,0.9340000152587891
329,0.015931759029626846,0.9919999837875366,0.46355941891670227,0.8931111097335815
330,0.02588835544884205,0.9940000176429749,0.47755882143974304,0.945111095905304
331,0.02074481174349785,0.9919999837875366,0.5053914785385132,0.8875555396080017
332,0.01446219626814127,0.9980000257492065,0.3540234863758087,0.9402222037315369
333,0.01879461109638214,0.9959999918937683,0.4690593481063843,0.9424444437026978
334,0.007962770760059357,0.9980000257492065,0.40338584780693054,0.941777765750885
335,0.004683025646954775,1.0,0.37332022190093994,0.9337777495384216
336,0.0067342654801905155,0.9959999918937683,0.4179445207118988,0.9404444694519043
337,0.07056593894958496,0.972000002861023,1.0132263898849487,0.9171110987663269
338,0.05026942491531372,0.9800000190734863,0.5619484782218933,0.8893333077430725
339,0.02636341005563736,0.9919999837875366,0.4252675175666809,0.937333345413208
340,0.012612414546310902,0.9980000257492065,0.3845352530479431,0.9351111054420471
341,0.0182833019644022,0.9940000176429749,0.40257811546325684,0.9088888764381409
342,0.014392194338142872,0.9940000176429749,0.4003157913684845,0.9146666526794434
343,0.010516082867980003,0.9980000257492065,0.3912113308906555,0.9380000233650208
344,0.00837069470435381,0.9980000257492065,0.42215898633003235,0.9037777781486511
345,0.005122974049299955,1.0,0.4047921895980835,0.9097777605056763
346,0.004529934376478195,1.0,0.387052446603775,0.925777792930603
347,0.008567002601921558,1.0,0.4026210904121399,0.9371111392974854
348,0.005327347666025162,1.0,0.3971741497516632,0.9319999814033508
349,0.00448571378365159,1.0,0.4029938876628876,0.9391111135482788
350,0.004737613257020712,0.9980000257492065,0.4175909757614136,0.9413333535194397
351,0.007733857724815607,0.9980000257492065,0.41319555044174194,0.9322222471237183
352,0.008507066406309605,0.9980000257492065,0.3980183005332947,0.9204444289207458
353,0.03399595990777016,0.9860000014305115,1.0812585353851318,0.8993333578109741
354,0.01659657061100006,0.9959999918937683,0.5717615485191345,0.9362221956253052
355,0.007819055579602718,1.0,0.4837252199649811,0.9399999976158142
356,0.006698545068502426,1.0,0.43859681487083435,0.9391111135482788
357,0.007935999892652035,0.9980000257492065,0.4142887592315674,0.9366666674613953
358,0.004511075094342232,1.0,0.42245692014694214,0.9319999814033508
359,0.0024105997290462255,1.0,0.42842185497283936,0.9340000152587891
360,0.003751074895262718,1.0,0.42904362082481384,0.9315555691719055
361,0.0033376000355929136,1.0,0.43450823426246643,0.9375555515289307
362,0.0016731682699173689,1.0,0.44588103890419006,0.9359999895095825
363,0.0023800809867680073,1.0,0.44540512561798096,0.9375555515289307
364,0.0021520487498492002,1.0,0.4461557865142822,0.9364444613456726
365,0.002119433833286166,1.0,0.4466088116168976,0.937333345413208
366,0.0021005142480134964,1.0,0.44956329464912415,0.9366666674613953
367,0.0019215692300349474,1.0,0.46433475613594055,0.9397777915000916
368,0.0017429208382964134,1.0,0.46860021352767944,0.9399999976158142
369,0.0017194084357470274,1.0,0.4570465087890625,0.9368888735771179
370,0.0023108553141355515,1.0,0.4532787799835205,0.9364444613456726
371,0.0016878362512215972,1.0,0.45895665884017944,0.9386666417121887
372,0.0017125443555414677,1.0,0.4576582610607147,0.9375555515289307
373,0.0013136276975274086,1.0,0.46881812810897827,0.9395555257797241
374,0.0015809352044016123,1.0,0.46487146615982056,0.9380000233650208
375,0.0019047241657972336,1.0,0.45897606015205383,0.9377777576446533
376,0.0014723960775882006,1.0,0.44634121656417847,0.9391111135482788
377,0.0014647041680291295,1.0,0.4537273347377777,0.9397777915000916
378,0.0015663134399801493,1.0,0.45836713910102844,0.9391111135482788
379,0.0024562450125813484,1.0,0.45376133918762207,0.9346666932106018
380,0.0011113163782283664,1.0,0.46422579884529114,0.9386666417121887
381,0.0010778038995340466,1.0,0.46225038170814514,0.9380000233650208
382,0.0011499819811433554,1.0,0.47628840804100037,0.940666675567627
383,0.0016247619641944766,1.0,0.4651895761489868,0.9366666674613953
384,0.00470117898657918,1.0,0.5901936888694763,0.9413333535194397
385,0.003726878436282277,1.0,0.48635247349739075,0.9384444355964661
386,0.0016194790368899703,1.0,0.47609642148017883,0.9397777915000916
387,0.0013679544208571315,1.0,0.4812069237232208,0.9395555257797241
388,0.001406403142027557,1.0,0.45833587646484375,0.9382222294807434
389,0.001190515118651092,1.0,0.4681065082550049,0.9399999976158142
390,0.0009282550890929997,1.0,0.4591309726238251,0.9375555515289307
391,0.0008252033148892224,1.0,0.4782693684101105,0.9395555257797241
392,0.0011021419195458293,1.0,0.4714926779270172,0.9395555257797241
393,0.0009819712722674012,1.0,0.4676671624183655,0.9386666417121887
394,0.0016465606167912483,1.0,0.4542006254196167,0.9328888654708862
395,0.0013376917922869325,1.0,0.48490506410598755,0.9408888816833496
396,0.001549463253468275,1.0,0.46815016865730286,0.9348888993263245
397,0.0012239745119586587,1.0,0.47644320130348206,0.9393333196640015
398,0.002095170086249709,1.0,0.4564511775970459,0.9353333115577698
399,0.022260496392846107,0.9940000176429749,1.0788824558258057,0.9088888764381409
400,0.018932707607746124,0.9940000176429749,0.48876866698265076,0.9319999814033508
401,0.005265670828521252,0.9980000257492065,0.44595128297805786,0.9246666431427002
402,0.00231613009236753,1.0,0.44363725185394287,0.9311110973358154
403,0.003562489990144968,1.0,0.4263564348220825,0.9337777495384216
404,0.0014563772128894925,1.0,0.4354415237903595,0.9377777576446533
405,0.0009947154903784394,1.0,0.4453105330467224,0.9377777576446533
406,0.0014919982058927417,1.0,0.4487135410308838,0.9364444613456726
407,0.0009677382768131793,1.0,0.4560062289237976,0.9384444355964661
408,0.0009130859398283064,1.0,0.4720820188522339,0.9404444694519043
409,0.0008334444719366729,1.0,0.46491575241088867,0.9388889074325562
410,0.00110154808498919,1.0,0.4700031578540802,0.9399999976158142
411,0.0020010245498269796,1.0,0.48617279529571533,0.9424444437026978
412,0.002352076582610607,1.0,0.4672293961048126,0.9393333196640015
413,0.0012897233245894313,1.0,0.46824583411216736,0.9371111392974854
414,0.0009730909368954599,1.0,0.4719337522983551,0.9377777576446533
415,0.0006828478653915226,1.0,0.479289710521698,0.9384444355964661
416,0.0011707100784406066,1.0,0.47466617822647095,0.937333345413208
417,0.0008121366845443845,1.0,0.4801335036754608,0.9386666417121887
418,0.0031223795376718044,1.0,0.503010094165802,0.9431111216545105
419,0.001056252745911479,1.0,0.4863126575946808,0.9413333535194397
420,0.000855787075124681,1.0,0.5246562361717224,0.9428889155387878
421,0.0008914867066778243,1.0,0.49862560629844666,0.940666675567627
422,0.0006834832602180541,1.0,0.501471996307373,0.9411110877990723
423,0.004542274866253138,0.9980000257492065,0.4862058460712433,0.9211111068725586
424,0.0855233445763588,0.9760000109672546,0.7735042572021484,0.8662222027778625
425,0.04010798782110214,0.9919999837875366,0.5533194541931152,0.9428889155387878
426,0.07112596929073334,0.9800000190734863,0.6688631772994995,0.9326666593551636
427,0.043154358863830566,0.9919999837875366,0.4125608205795288,0.9248889088630676
428,0.01360573060810566,0.9940000176429749,0.4489844739437103,0.9086666703224182
429,0.00559584517031908,1.0,0.3978007435798645,0.9348888993263245
430,0.005595081951469183,0.9980000257492065,0.4137263596057892,0.9377777576446533
431,0.0033664254005998373,1.0,0.4189295470714569,0.9368888735771179
432,0.0031338445842266083,1.0,0.44043752551078796,0.9415555596351624
433,0.0032211714424192905,1.0,0.4500899314880371,0.9411110877990723
434,0.0028445434290915728,1.0,0.44767042994499207,0.9413333535194397
435,0.004521175753325224,0.9980000257492065,0.48052436113357544,0.9402222037315369
436,0.0036662674974650145,1.0,0.45850715041160583,0.9353333115577698
437,0.001710863085463643,1.0,0.45776399970054626,0.9397777915000916
438,0.0024154004640877247,1.0,0.44713953137397766,0.933555543422699
439,0.0019413863774389029,1.0,0.46284395456314087,0.9397777915000916
440,0.0016411631368100643,1.0,0.465700626373291,0.9402222037315369
441,0.001380090368911624,1.0,0.4669405519962311,0.9393333196640015
442,0.002377669792622328,1.0,0.4581852853298187,0.9340000152587891
443,0.0014231700915843248,1.0,0.47530901432037354,0.9391111135482788
444,0.0012852567015215755,1.0,0.48011377453804016,0.940666675567627
445,0.001844584010541439,1.0,0.46200981736183167,0.9393333196640015
446,0.001957606989890337,1.0,0.471472829580307,0.9395555257797241
447,0.009717464447021484,0.9959999918937683,0.508640468120575,0.9237777590751648
448,0.0024728449061512947,1.0,0.48245149850845337,0.9248889088630676
449,0.002475902670994401,1.0,0.44679397344589233,0.9351111054420471
450,0.0014248584629967809,1.0,0.46228688955307007,0.9368888735771179
451,0.0009388496400788426,1.0,0.48436349630355835,0.9399999976158142
452,0.0019073971780017018,1.0,0.4782806634902954,0.9359999895095825
453,0.0012737869983538985,1.0,0.49524223804473877,0.9408888816833496
454,0.0009732616017572582,1.0,0.4860103726387024,0.9402222037315369
455,0.0014005632838234305,1.0,0.5040382742881775,0.9388889074325562
456,0.0012860711431130767,1.0,0.5271396636962891,0.9415555596351624
457,0.0023813277948647738,1.0,0.492941677570343,0.9315555691719055
458,0.002149366308003664,1.0,0.511978268623352,0.940666675567627
459,0.0008982262224890292,1.0,0.4993526041507721,0.9404444694519043
460,0.0008351118303835392,1.0,0.4980803430080414,0.9391111135482788
461,0.0007825750508345664,1.0,0.4967702329158783,0.9384444355964661
462,0.0006952810217626393,1.0,0.496109277009964,0.9384444355964661
463,0.0007967963465489447,1.0,0.49477723240852356,0.9395555257797241
464,0.0012420896673575044,1.0,0.5302525162696838,0.9408888816833496
465,0.0008514176588505507,1.0,0.4946293532848358,0.9346666932106018
466,0.0008969723712652922,1.0,0.5015725493431091,0.9371111392974854
467,0.0008737231255508959,1.0,0.4994480311870575,0.9382222294807434
468,0.001068771118298173,1.0,0.4971579313278198,0.9364444613456726
469,0.0012536837020888925,1.0,0.4914676249027252,0.9311110973358154
470,0.000969596381764859,1.0,0.4986156225204468,0.9368888735771179
471,0.0010602384572848678,1.0,0.511017918586731,0.9388889074325562
472,0.0008460393291898072,1.0,0.5212573409080505,0.9375555515289307
473,0.0006909379153512418,1.0,0.5144808292388916,0.9386666417121887
474,0.0005316365277394652,1.0,0.5183143615722656,0.9399999976158142
475,0.000577991537284106,1.0,0.5168293118476868,0.9402222037315369
476,0.0007321609300561249,1.0,0.5125818252563477,0.9393333196640015
477,0.0007034489535726607,1.0,0.50398850440979,0.9364444613456726
478,0.0006839260458946228,1.0,0.5061514377593994,0.9386666417121887
479,0.0007308555650524795,1.0,0.5114607810974121,0.9397777915000916
480,0.000471905164886266,1.0,0.5320836901664734,0.9402222037315369
481,0.0014814548194408417,1.0,0.5037161707878113,0.9391111135482788
482,0.004357613157480955,1.0,0.49690473079681396,0.9433333277702332
483,0.004677910357713699,0.9980000257492065,0.49734944105148315,0.9155555367469788
484,0.002599446102976799,1.0,0.4658491611480713,0.9362221956253052
485,0.0005813167081214488,1.0,0.4753570854663849,0.9371111392974854
486,0.0009957029251381755,1.0,0.48444727063179016,0.9382222294807434
487,0.0009500518790446222,1.0,0.49494433403015137,0.9362221956253052
488,0.0007110422011464834,1.0,0.5107342004776001,0.9399999976158142
489,0.0010077866027131677,1.0,0.4937712550163269,0.9382222294807434
490,0.0004663752333726734,1.0,0.49462494254112244,0.9382222294807434
491,0.0005226056673564017,1.0,0.5090845227241516,0.9395555257797241
492,0.0005519643309526145,1.0,0.5007315278053284,0.9391111135482788
493,0.0006020545843057334,1.0,0.5067939162254333,0.9393333196640015
494,0.0004784217453561723,1.0,0.5102028250694275,0.9395555257797241
495,0.0005409981240518391,1.0,0.5139321088790894,0.9395555257797241
496,0.0006322304834611714,1.0,0.515005886554718,0.9388889074325562
497,0.0003899089351762086,1.0,0.5124033689498901,0.9391111135482788
498,0.0004125000268686563,1.0,0.5129737257957458,0.9391111135482788
499,0.0005231687100604177,1.0,0.5075439810752869,0.9375555515289307
500,0.0004228662874083966,1.0,0.5157387256622314,0.9395555257797241
501,0.0006202827207744122,1.0,0.5047653317451477,0.9368888735771179
502,0.0005262140184640884,1.0,0.5119837522506714,0.9375555515289307
503,0.0011860561789944768,1.0,0.5354812145233154,0.9399999976158142
504,0.0005565979517996311,1.0,0.5304838418960571,0.9399999976158142
505,0.000761614297516644,1.0,0.5307656526565552,0.9371111392974854
506,0.0010571287712082267,1.0,0.5770595073699951,0.9266666769981384
507,0.001528340857475996,1.0,0.5180376172065735,0.9342222213745117
508,0.0005304946098476648,1.0,0.513824462890625,0.9386666417121887
509,0.00034916846198029816,1.0,0.5097442865371704,0.9393333196640015
510,0.0006773758796043694,1.0,0.5049610733985901,0.9393333196640015
511,0.0003451082156971097,1.0,0.5059453248977661,0.9393333196640015
512,0.0008007729193195701,1.0,0.5175405144691467,0.9388889074325562
513,0.00046761639532633126,1.0,0.5291686058044434,0.9404444694519043
514,0.0004826662188861519,1.0,0.5270467400550842,0.9408888816833496
515,0.0004608304880093783,1.0,0.5171000361442566,0.9404444694519043
516,0.0006472739623859525,1.0,0.5234066247940063,0.941777765750885
517,0.0003675451152957976,1.0,0.5251450538635254,0.9413333535194397
518,0.00035362064954824746,1.0,0.5213002562522888,0.9413333535194397
519,0.0003563872305676341,1.0,0.5167861580848694,0.9402222037315369
520,0.000568599090911448,1.0,0.515110433101654,0.9402222037315369
521,0.0003144438669551164,1.0,0.5172463059425354,0.9408888816833496
522,0.0004284596361685544,1.0,0.5138068199157715,0.9402222037315369
523,0.0003753786440938711,1.0,0.5196573138237,0.9408888816833496
524,0.00045819973456673324,1.0,0.5234079360961914,0.9422222375869751
525,0.0005718817701563239,1.0,0.5091308355331421,0.9380000233650208
526,0.0002903144632000476,1.0,0.518240213394165,0.9411110877990723
527,0.0054970188066363335,0.9980000257492065,0.5173794627189636,0.9311110973358154
528,0.0060759191401302814,1.0,0.8593912124633789,0.851111114025116
529,0.0041959937661886215,1.0,0.5875500440597534,0.8775555491447449
530,0.0018527328502386808,1.0,0.47367122769355774,0.9200000166893005
531,0.0011144435266032815,1.0,0.46756720542907715,0.9306666851043701
532,0.0011698359157890081,1.0,0.46508631110191345,0.9315555691719055
533,0.0009207231341861188,1.0,0.4661113917827606,0.9328888654708862
534,0.0011739982292056084,1.0,0.464260458946228,0.9366666674613953
535,0.0011225371854379773,1.0,0.4638727307319641,0.9346666932106018
536,0.002347793197259307,1.0,0.45064425468444824,0.93022221326828
537,0.0029109183233231306,1.0,0.4857466220855713,0.9395555257797241
538,0.010452035814523697,0.9959999918937683,0.460546612739563,0.9399999976158142
539,0.0025900998152792454,1.0,0.5277676582336426,0.9413333535194397
540,0.0011093384819105268,1.0,0.48069536685943604,0.9413333535194397
541,0.00164466118440032,1.0,0.48107096552848816,0.941777765750885
542,0.002339985454455018,1.0,0.49779850244522095,0.9408888816833496
543,0.001047764322720468,1.0,0.484269380569458,0.9422222375869751
544,0.0011779236374422908,1.0,0.4766266942024231,0.9402222037315369
545,0.00094945466844365,1.0,0.490113228559494,0.9395555257797241
546,0.0010431647533550858,1.0,0.48265179991722107,0.9395555257797241
547,0.0008240321185439825,1.0,0.4696747064590454,0.9382222294807434
548,0.000502928567584604,1.0,0.48022428154945374,0.9391111135482788
549,0.0008889457676559687,1.0,0.4904787242412567,0.940666675567627
550,0.0008634899859316647,1.0,0.49257341027259827,0.9388889074325562
551,0.0013823520857840776,1.0,0.49319806694984436,0.9386666417121887
552,0.0006778680835850537,1.0,0.5010491013526917,0.9393333196640015
553,0.0005571587826125324,1.0,0.504200279712677,0.9393333196640015
554,0.0006932559190317988,1.0,0.5007942914962769,0.9391111135482788
555,0.0007539455546066165,1.0,0.49645599722862244,0.9375555515289307
556,0.0004082433879375458,1.0,0.5011967420578003,0.9382222294807434
557,0.0004688003973569721,1.0,0.5029734969139099,0.9382222294807434
558,0.0007066354737617075,1.0,0.510408878326416,0.9382222294807434
559,0.0005341129144653678,1.0,0.5110810995101929,0.9384444355964661
560,0.0005196732236072421,1.0,0.5122848153114319,0.9393333196640015
561,0.0005211356328800321,1.0,0.5122981667518616,0.9399999976158142
562,0.00042355069308541715,1.0,0.503341794013977,0.9386666417121887
563,0.0003724572598002851,1.0,0.5062428712844849,0.9391111135482788
564,0.0006185710662975907,1.0,0.5072671175003052,0.9395555257797241
565,0.00040435916162095964,1.0,0.5064417123794556,0.9393333196640015
566,0.00037181429797783494,1.0,0.5051148533821106,0.9395555257797241
567,0.00030774972401559353,1.0,0.5037258267402649,0.9393333196640015
568,0.0005576952244155109,1.0,0.515788733959198,0.9397777915000916
569,0.00041965302079916,1.0,0.5133192539215088,0.9397777915000916
570,0.00034206733107566833,1.0,0.5103948712348938,0.9391111135482788
571,0.0006467955536209047,1.0,0.5102173686027527,0.9391111135482788
572,0.00034067005617544055,1.0,0.5099903345108032,0.9384444355964661
573,0.00046540345647372305,1.0,0.5124529004096985,0.9388889074325562
574,0.00031415765988640487,1.0,0.5111188888549805,0.9391111135482788
575,0.00028986597317270935,1.0,0.5094483494758606,0.9386666417121887
576,0.0003962468763347715,1.0,0.5100218057632446,0.9395555257797241
577,0.001090432284399867,1.0,0.5125848054885864,0.9391111135482788
578,0.0005344070959836245,1.0,0.5175427794456482,0.9404444694519043
579,0.0016801418969407678,1.0,0.5149281620979309,0.9402222037315369
580,0.001559712691232562,1.0,0.5697488188743591,0.9375555515289307
581,0.0015666342806071043,1.0,0.5296353697776794,0.9388889074325562
582,0.0006159066688269377,1.0,0.5108532905578613,0.9377777576446533
583,0.0008863920229487121,1.0,0.49684813618659973,0.9348888993263245
584,0.000971698435023427,1.0,0.49929946660995483,0.9353333115577698
585,0.0008885277784429491,1.0,0.5024163722991943,0.9362221956253052
586,0.0005376507760956883,1.0,0.5027318000793457,0.9322222471237183
587,0.00044729659566655755,1.0,0.5038455128669739,0.9362221956253052
588,0.00042631279211491346,1.0,0.5027917623519897,0.9364444613456726
589,0.0005901382537558675,1.0,0.5035877227783203,0.937333345413208
590,0.00030766220879741013,1.0,0.5046513080596924,0.9382222294807434
591,0.0003592815774027258,1.0,0.507757842540741,0.9393333196640015
592,0.000464053126052022,1.0,0.5017279982566833,0.9393333196640015
593,0.00041167205199599266,1.0,0.5047979354858398,0.9395555257797241
594,0.00066761439666152,1.0,0.5140032768249512,0.9395555257797241
595,0.0005506257875822484,1.0,0.5126602649688721,0.9397777915000916
596,0.00050529366126284,1.0,0.5122106075286865,0.9393333196640015
597,0.0003292553883511573,1.0,0.5186507701873779,0.9402222037315369
598,0.0004915460594929755,1.0,0.5088487863540649,0.9388889074325562
599,0.00034836173290386796,1.0,0.5083054304122925,0.9402222037315369
600,0.0003193063021171838,1.0,0.5108391046524048,0.9402222037315369
601,0.0005272958660498261,1.0,0.5099555253982544,0.9380000233650208
602,0.0003172603028360754,1.0,0.5113105177879333,0.9380000233650208
603,0.00038528433651663363,1.0,0.5184574127197266,0.9404444694519043
604,0.00034528214018791914,1.0,0.5110201835632324,0.9399999976158142
605,0.0004471383581403643,1.0,0.5120975375175476,0.9393333196640015
606,0.00029670161893591285,1.0,0.5125967264175415,0.9393333196640015
607,0.0002446600410621613,1.0,0.5111643075942993,0.9404444694519043
608,0.0004477298352867365,1.0,0.505737841129303,0.9382222294807434
609,0.00028976521571166813,1.0,0.5089412927627563,0.9386666417121887
610,0.0002920716651715338,1.0,0.5187423229217529,0.940666675567627
611,0.000510593643411994,1.0,0.5104172229766846,0.9382222294807434
612,0.0003443661844357848,1.0,0.5188060998916626,0.9399999976158142
613,0.00026567207532934844,1.0,0.530571460723877,0.9411110877990723
614,0.0003014124231413007,1.0,0.5298058390617371,0.940666675567627
615,0.0002989118220284581,1.0,0.521335780620575,0.9404444694519043
616,0.0003741335531231016,1.0,0.5198947191238403,0.940666675567627
617,0.00030218344181776047,1.0,0.512061357498169,0.9393333196640015
618,0.00019582000095397234,1.0,0.5174950957298279,0.9399999976158142
619,0.00039717621984891593,1.0,0.5179727077484131,0.9402222037315369
620,0.00021428758918773383,1.0,0.5095919966697693,0.9402222037315369
621,0.0004827323427889496,1.0,0.5072664618492126,0.9386666417121887
622,0.000396185350837186,1.0,0.49914443492889404,0.9355555772781372
623,0.00031087559182196856,1.0,0.5079464912414551,0.937333345413208
624,0.0002836023340933025,1.0,0.5127160549163818,0.9371111392974854
625,0.0002627285139169544,1.0,0.5201452374458313,0.9404444694519043
626,0.00037650196463800967,1.0,0.5112191438674927,0.9382222294807434
627,0.000362020538887009,1.0,0.5122901201248169,0.9375555515289307
628,0.00026015067123807967,1.0,0.5200666189193726,0.9399999976158142
629,0.0002808687277138233,1.0,0.5321078300476074,0.9402222037315369
630,0.00021765331621281803,1.0,0.5337140560150146,0.9404444694519043
631,0.00025544670643284917,1.0,0.532865047454834,0.9402222037315369
632,0.00028760533314198256,1.0,0.5495928525924683,0.9404444694519043
633,0.00021474705135915428,1.0,0.5437271595001221,0.9408888816833496
634,0.0001835578732425347,1.0,0.5342687368392944,0.9404444694519043
635,0.0003059326554648578,1.0,0.525047779083252,0.9397777915000916
636,0.00026905364939011633,1.0,0.5242788195610046,0.9402222037315369
637,0.00046380708226934075,1.0,0.5197229981422424,0.9388889074325562
638,0.0005207337089814246,1.0,0.5276175141334534,0.9395555257797241
639,0.0002161826123483479,1.0,0.5370615124702454,0.940666675567627
640,0.00020945974392816424,1.0,0.5335873961448669,0.9399999976158142
641,0.0002265176153741777,1.0,0.5322999358177185,0.940666675567627
642,0.00021134561393409967,1.0,0.5339571833610535,0.9404444694519043
643,0.00026623878511600196,1.0,0.5301979184150696,0.9404444694519043
644,0.00031323384610004723,1.0,0.5207022428512573,0.9375555515289307
645,0.00017047808796633035,1.0,0.5265832543373108,0.9397777915000916
646,0.0002692545240279287,1.0,0.5297044515609741,0.9404444694519043
647,0.00018825243751052767,1.0,0.5353565216064453,0.940666675567627
648,0.0005636211135424674,1.0,0.5319033265113831,0.9404444694519043
649,0.0005720212939195335,1.0,0.5440768599510193,0.9402222037315369
650,0.0007731617079116404,1.0,0.5880197286605835,0.9395555257797241
651,0.000677109113894403,1.0,0.5365660190582275,0.9384444355964661
652,0.000449046230642125,1.0,0.514981210231781,0.9359999895095825
653,0.00029047991847619414,1.0,0.5136517286300659,0.9384444355964661
654,0.0002986533800140023,1.0,0.5094917416572571,0.9353333115577698
655,0.00023327386588789523,1.0,0.5133904218673706,0.9355555772781372
656,0.0002042333799181506,1.0,0.5228381752967834,0.9382222294807434
657,0.0003946266369894147,1.0,0.5096429586410522,0.9344444274902344
658,0.00020726384536828846,1.0,0.5119552612304688,0.9348888993263245
659,0.00022027449449524283,1.0,0.5189264416694641,0.9375555515289307
660,0.00036162693868391216,1.0,0.526651918888092,0.9395555257797241
661,0.00019870152755174786,1.0,0.5341216921806335,0.9393333196640015
662,0.0002618956204969436,1.0,0.5296319723129272,0.9391111135482788
663,0.0004351042443886399,1.0,0.537067711353302,0.9399999976158142
664,0.0002058237005257979,1.0,0.5250874757766724,0.9395555257797241
665,0.00018498786084819585,1.0,0.5280329585075378,0.9395555257797241
666,0.0002954355732072145,1.0,0.5410107970237732,0.9399999976158142
667,0.0002523854491300881,1.0,0.5353716611862183,0.9393333196640015
668,0.00020955900254193693,1.0,0.5357729196548462,0.9391111135482788
669,0.0002306028618477285,1.0,0.5273325443267822,0.9375555515289307
670,0.00018302691751159728,1.0,0.5359723567962646,0.9393333196640015
671,0.00023092571063898504,1.0,0.544929563999176,0.9397777915000916
672,0.00013079399650450796,1.0,0.5458740592002869,0.9397777915000916
673,0.000421666307374835,1.0,0.5485637187957764,0.9386666417121887
674,0.00025554222520440817,1.0,0.5500203967094421,0.9395555257797241
675,0.00014632006059400737,1.0,0.5466082096099854,0.9395555257797241
676,0.0003560089971870184,1.0,0.5191500782966614,0.9326666593551636
677,0.00020236869750078768,1.0,0.5342118144035339,0.9377777576446533
678,0.00024825934087857604,1.0,0.5378838777542114,0.9393333196640015
679,0.00018884729070123285,1.0,0.5458182692527771,0.9397777915000916
680,0.00014058066881261766,1.0,0.5506781339645386,0.9399999976158142
681,0.00013608134759124368,1.0,0.5476241111755371,0.9402222037315369
682,0.000219582550926134,1.0,0.5403463244438171,0.9393333196640015
683,0.0002225840144092217,1.0,0.5212486386299133,0.9348888993263245
684,0.00017301642219536006,1.0,0.5423387289047241,0.9397777915000916
685,0.00012261452502571046,1.0,0.552155077457428,0.9402222037315369
686,0.00012425969180185348,1.0,0.5495584607124329,0.9397777915000916
687,0.00014396526967175305,1.0,0.55185467004776,0.9397777915000916
688,0.00014447126886807382,1.0,0.5496866106987,0.9395555257797241
689,0.00018958303553517908,1.0,0.5486887693405151,0.9397777915000916
690,0.000147591475979425,1.0,0.534632682800293,0.9362221956253052
691,0.00018288890714757144,1.0,0.5442944765090942,0.9393333196640015
692,0.00011746724339900538,1.0,0.5555258393287659,0.9404444694519043
693,0.0003035074914805591,1.0,0.5466750860214233,0.9388889074325562
694,0.00018022891890723258,1.0,0.5627612471580505,0.9404444694519043
695,0.00030134248663671315,1.0,0.5709251761436462,0.9408888816833496
696,0.00027372088516131043,1.0,0.5669964551925659,0.9415555596351624
697,0.00015515439736191183,1.0,0.5515304207801819,0.940666675567627
698,0.00024878449039533734,1.0,0.5718428492546082,0.9408888816833496
699,0.00015842239372432232,1.0,0.5649538636207581,0.9408888816833496
700,0.00015120054013095796,1.0,0.5711066126823425,0.940666675567627
701,0.00014861521776765585,1.0,0.5652320981025696,0.9411110877990723
702,0.00023753134883008897,1.0,0.5635049343109131,0.9411110877990723
703,0.00011316924064885825,1.0,0.5595446228981018,0.940666675567627
704,0.0001379983441438526,1.0,0.5560474991798401,0.940666675567627
705,0.0001084928007912822,1.0,0.5508424043655396,0.9399999976158142
706,0.0002364785032114014,1.0,0.5195893049240112,0.9340000152587891
707,0.00020496125216595829,1.0,0.5307638049125671,0.9377777576446533
708,0.00014101782289799303,1.0,0.5594190359115601,0.9408888816833496
709,0.00018289056606590748,1.0,0.6221292614936829,0.9419999718666077
710,0.0001270530337933451,1.0,0.5673632025718689,0.9411110877990723
711,0.0007975948392413557,1.0,0.5324044227600098,0.9375555515289307
712,0.0023593823425471783,1.0,0.48249685764312744,0.9315555691719055
713,0.001021670293994248,1.0,0.5431370735168457,0.9315555691719055
714,0.00029017101041972637,1.0,0.5415367484092712,0.9311110973358154
715,0.0005916708614677191,1.0,0.5446313619613647,0.9353333115577698
716,0.0007460089400410652,1.0,0.5556840300559998,0.9366666674613953
717,0.0003551830304786563,1.0,0.5363746285438538,0.9375555515289307
718,0.00032659241696819663,1.0,0.5475119948387146,0.9393333196640015
719,0.00023727171355858445,1.0,0.5508833527565002,0.9399999976158142
720,0.00027661302010528743,1.0,0.5557649731636047,0.9399999976158142
721,0.00017089172615669668,1.0,0.5575456023216248,0.9399999976158142
722,0.00018377639935351908,1.0,0.5604144334793091,0.9397777915000916
723,0.0003530271933414042,1.0,0.5419560074806213,0.9395555257797241
724,0.00019238451204728335,1.0,0.5501899719238281,0.9402222037315369
725,0.0009583142818883061,1.0,0.5461519956588745,0.9386666417121887
726,0.0014650332741439342,1.0,0.5057300329208374,0.9384444355964661
727,0.0008303410722874105,1.0,0.5139157772064209,0.9404444694519043
728,0.00022606841230299324,1.0,0.5254838466644287,0.941777765750885
729,0.0002311904972884804,1.0,0.5331698656082153,0.9415555596351624
730,0.00029453058959916234,1.0,0.5384277701377869,0.940666675567627
731,0.000301636551739648,1.0,0.5461705923080444,0.940666675567627
732,0.00017702367040328681,1.0,0.5482364892959595,0.940666675567627
733,0.00027252748259343207,1.0,0.5524712204933167,0.940666675567627
734,0.0002186363999499008,1.0,0.5514063835144043,0.940666675567627
735,0.0001829175598686561,1.0,0.5479205250740051,0.9404444694519043
736,0.00016043195500969887,1.0,0.5512550473213196,0.9404444694519043
737,0.0004841867776121944,1.0,0.5498323440551758,0.9399999976158142
738,0.0004395933647174388,1.0,0.5644926428794861,0.9408888816833496
739,0.0004242018039803952,1.0,0.5840696692466736,0.9399999976158142
740,0.00019757314294110984,1.0,0.5707058310508728,0.9408888816833496
741,0.00018353137420490384,1.0,0.5679674744606018,0.9404444694519043
742,0.00015715169138275087,1.0,0.5551041960716248,0.9399999976158142
743,0.0001485238317400217,1.0,0.5560201406478882,0.9402222037315369
744,0.00012721895473077893,1.0,0.5536417961120605,0.9397777915000916
745,0.00014250371896196157,1.0,0.5524954199790955,0.9397777915000916
746,0.00025023584021255374,1.0,0.553466260433197,0.9399999976158142
747,0.0002179002622142434,1.0,0.5592005848884583,0.9404444694519043
748,0.0002156589034711942,1.0,0.563818633556366,0.9404444694519043
749,0.00023587899340782315,1.0,0.5636489391326904,0.9404444694519043
750,0.000167165941093117,1.0,0.5617708563804626,0.9402222037315369
751,0.0002104048035107553,1.0,0.5562319159507751,0.9391111135482788
752,0.0002811369195114821,1.0,0.5621787309646606,0.9397777915000916
753,0.00020556092204060405,1.0,0.5715564489364624,0.9404444694519043
754,0.0018664875533431768,0.9980000257492065,0.5635058879852295,0.940666675567627
755,0.0010885716183111072,1.0,0.5888900756835938,0.9422222375869751
756,0.0010662744753062725,1.0,0.5543226599693298,0.9395555257797241
757,0.0005615488043986261,1.0,0.541800320148468,0.9413333535194397
758,0.0005333300214260817,1.0,0.5362634062767029,0.940666675567627
759,0.0002673078270163387,1.0,0.5462386012077332,0.941777765750885
760,0.0004609153256751597,1.0,0.5463988780975342,0.9408888816833496
761,0.00022003678895998746,1.0,0.544725775718689,0.9402222037315369
762,0.0003870499785989523,1.0,0.545876145362854,0.9402222037315369
763,0.00024616156588308513,1.0,0.5430059432983398,0.9391111135482788
764,0.0002768727717921138,1.0,0.5400266051292419,0.9391111135482788
765,0.0002394146576989442,1.0,0.5251163840293884,0.9384444355964661
766,0.00028114233282394707,1.0,0.5318346619606018,0.9388889074325562
767,0.00020055794448126107,1.0,0.5401037931442261,0.9397777915000916
768,0.00022585445549339056,1.0,0.5440165400505066,0.9402222037315369
769,0.0001702683512121439,1.0,0.5449027419090271,0.9404444694519043
770,0.00020971629419364035,1.0,0.5434582829475403,0.9399999976158142
771,0.00020036638306919485,1.0,0.5437210202217102,0.9397777915000916
772,0.0003863596066366881,1.0,0.5600297451019287,0.9422222375869751
773,0.0003195512108504772,1.0,0.553529679775238,0.9402222037315369
774,0.00024392922932747751,1.0,0.5510669946670532,0.9399999976158142
775,0.0001941179798450321,1.0,0.5506413578987122,0.9399999976158142
776,0.00010474285954842344,1.0,0.5499614477157593,0.9399999976158142
777,0.000148452672874555,1.0,0.5522100925445557,0.9402222037315369
778,0.00012163189967395738,1.0,0.548831582069397,0.9399999976158142
779,0.00013963771925773472,1.0,0.5504335165023804,0.9399999976158142
780,0.00015061955491546541,1.0,0.5496814250946045,0.9399999976158142
781,0.00016536496696062386,1.0,0.5493523478507996,0.9399999976158142
782,0.0005283392383717,1.0,0.530171811580658,0.937333345413208
783,0.0006251634331420064,1.0,0.5232860445976257,0.9182222485542297
784,0.00039597623981535435,1.0,0.5192413926124573,0.9375555515289307
785,0.00023380220227409154,1.0,0.5437464714050293,0.9397777915000916
786,0.0003006989718414843,1.0,0.5530238151550293,0.940666675567627
787,0.00018261975492350757,1.0,0.5561457872390747,0.9404444694519043
788,0.00016727030742913485,1.0,0.5534706115722656,0.9404444694519043
789,0.0001967677235370502,1.0,0.5553622245788574,0.9402222037315369
790,0.0001648363977437839,1.0,0.5539946556091309,0.9404444694519043
791,0.0001399316097376868,1.0,0.5510499477386475,0.940666675567627
792,0.00014729220129083842,1.0,0.5515555143356323,0.940666675567627
793,0.0001746355410432443,1.0,0.5473240613937378,0.9404444694519043
794,0.00017593454685993493,1.0,0.5485640168190002,0.9404444694519043
795,0.0002905480214394629,1.0,0.5540589094161987,0.940666675567627
796,0.00012098719889763743,1.0,0.5567682981491089,0.9408888816833496
797,0.00016259982658084482,1.0,0.551626980304718,0.940666675567627
798,0.00011533278302522376,1.0,0.5514398217201233,0.940666675567627
799,0.0002972878864966333,1.0,0.5448869466781616,0.9395555257797241
800,0.0001783617917681113,1.0,0.5453333854675293,0.9402222037315369
801,0.00013161460810806602,1.0,0.5487534403800964,0.9399999976158142
802,9.882673475658521e-05,1.0,0.5514790415763855,0.9402222037315369
803,0.000385936233215034,1.0,0.5408154129981995,0.9388889074325562
804,0.00015943180187605321,1.0,0.5412243604660034,0.9393333196640015
805,0.0001471720024710521,1.0,0.5481264591217041,0.940666675567627
806,0.00012028930359520018,1.0,0.5616177320480347,0.9415555596351624
807,0.00013193892664276063,1.0,0.5540798902511597,0.9408888816833496
808,0.0001321706804446876,1.0,0.5498811602592468,0.9411110877990723
809,0.0001240318379132077,1.0,0.5534483790397644,0.9413333535194397
810,0.0012840005801990628,1.0,0.5451513528823853,0.9397777915000916
811,0.005871123634278774,1.0,0.5327074527740479,0.941777765750885
812,0.00040876807179301977,1.0,0.5949780941009521,0.9424444437026978
813,0.00026521540712565184,1.0,0.5682262778282166,0.941777765750885
814,0.0005035665235482156,1.0,0.5471481680870056,0.9395555257797241
815,0.00028565950924530625,1.0,0.5312848091125488,0.9393333196640015
816,0.0003105588839389384,1.0,0.5439240336418152,0.940666675567627
817,0.0005407086573541164,1.0,0.5229114890098572,0.9388889074325562
818,0.00018531490059103817,1.0,0.5166374444961548,0.9368888735771179
819,0.00023936301295179874,1.0,0.5275804996490479,0.9386666417121887
820,0.00016986932314466685,1.0,0.5325691103935242,0.9393333196640015
821,0.00030795231577940285,1.0,0.5305122137069702,0.9382222294807434
822,0.0002465500438120216,1.0,0.5326636433601379,0.9384444355964661
823,0.00019769927894230932,1.0,0.5379822850227356,0.9402222037315369
824,0.00036387055297382176,1.0,0.5504432916641235,0.9404444694519043
825,0.00036767966230399907,1.0,0.6047868728637695,0.940666675567627
826,0.00029910629382357,1.0,0.5727522969245911,0.9402222037315369
827,0.00021557888248935342,1.0,0.5516958832740784,0.9384444355964661
828,0.0001913358282763511,1.0,0.5415670275688171,0.9375555515289307
829,0.00019436777802184224,1.0,0.5303397178649902,0.9351111054420471
830,0.0001493485178798437,1.0,0.5343660712242126,0.9359999895095825
831,0.00017176709661725909,1.0,0.5367255806922913,0.9368888735771179
832,0.00018086304771713912,1.0,0.541679322719574,0.9380000233650208
833,0.0001363595511065796,1.0,0.5427015423774719,0.9380000233650208
834,0.0005438716616481543,1.0,0.5489222407341003,0.9380000233650208
835,0.0006577409221790731,1.0,0.5586384534835815,0.9313333630561829
836,0.00018742642714641988,1.0,0.5461363792419434,0.9326666593551636
837,0.00027778279036283493,1.0,0.5465711355209351,0.9333333373069763
838,0.00027649596449919045,1.0,0.544731616973877,0.9340000152587891
839,0.00016565632540732622,1.0,0.5437487363815308,0.9346666932106018
840,0.000158317168825306,1.0,0.546116828918457,0.9353333115577698
841,0.00017989049956668168,1.0,0.549727737903595,0.9368888735771179
842,0.00023768578830640763,1.0,0.5463955402374268,0.9357777833938599
843,0.00014106316666584462,1.0,0.5510496497154236,0.9371111392974854
844,0.0001399505272274837,1.0,0.5522502660751343,0.937333345413208
845,0.003903487930074334,0.9980000257492065,0.5303013920783997,0.9340000152587891
846,0.0047559975646436214,0.9980000257492065,0.603465735912323,0.9386666417121887
847,0.0028248997405171394,0.9980000257492065,0.6284194588661194,0.9422222375869751
848,0.004951643757522106,0.9980000257492065,0.5829464793205261,0.9413333535194397
849,0.008948271162807941,0.9959999918937683,0.5323379635810852,0.9319999814033508
850,0.0014381244545802474,1.0,0.5127429366111755,0.9255555272102356
851,0.0007586262072436512,1.0,0.5094169974327087,0.9306666851043701
852,0.001134061487391591,1.0,0.5133237242698669,0.9331111311912537
853,0.0009412801591679454,1.0,0.5706394910812378,0.9393333196640015
854,0.0009325040737167001,1.0,0.5443179607391357,0.9380000233650208
855,0.000575074867811054,1.0,0.540827751159668,0.9382222294807434
856,0.0003179749473929405,1.0,0.5397401452064514,0.9384444355964661
857,0.0002194155822508037,1.0,0.5374905467033386,0.9384444355964661
858,0.0003596436872612685,1.0,0.5357555747032166,0.9386666417121887
859,0.00025804532924667,1.0,0.5360206961631775,0.9384444355964661
860,0.00048510931083001196,1.0,0.5356653928756714,0.9382222294807434
861,0.0002558516280259937,1.0,0.5375139117240906,0.9382222294807434
862,0.00029106150032021105,1.0,0.5382320880889893,0.9382222294807434
863,0.0006981926271691918,1.0,0.5325137376785278,0.9375555515289307
864,0.0002438360679661855,1.0,0.533254086971283,0.9375555515289307
865,0.00021201839263085276,1.0,0.5336804986000061,0.9377777576446533
866,0.00022848954540677369,1.0,0.5345637202262878,0.9384444355964661
867,0.0005358964554034173,1.0,0.5449267029762268,0.9393333196640015
868,0.0002961729187518358,1.0,0.5433453321456909,0.9391111135482788
869,0.00027967701316811144,1.0,0.5443956255912781,0.9391111135482788
870,0.00046601498615927994,1.0,0.5399968028068542,0.9388889074325562
871,0.0002495985827408731,1.0,0.535240650177002,0.9382222294807434
872,0.0015527184586971998,1.0,0.53792804479599,0.9388889074325562
873,0.0004558742220979184,1.0,0.5601713061332703,0.9404444694519043
874,0.000294121156912297,1.0,0.544179379940033,0.9393333196640015
875,0.0002024413988692686,1.0,0.5444365739822388,0.9393333196640015
876,0.00020386147662065923,1.0,0.5440279245376587,0.9393333196640015
877,0.00024023925652727485,1.0,0.5438975691795349,0.9393333196640015
878,0.00027501696604304016,1.0,0.5435746908187866,0.9388889074325562
879,0.00022134461323730648,1.0,0.5460056662559509,0.9391111135482788
880,0.00025325146270915866,1.0,0.5458592176437378,0.9382222294807434
881,0.00025394215481355786,1.0,0.5463634133338928,0.9384444355964661
882,0.0002551003417465836,1.0,0.5455875396728516,0.9384444355964661
883,0.00024299016513396055,1.0,0.5401806831359863,0.9382222294807434
884,0.00023312875418923795,1.0,0.5420329570770264,0.9384444355964661
885,0.00016800954472273588,1.0,0.5454238653182983,0.9386666417121887
886,0.0001708417694317177,1.0,0.5479121804237366,0.9393333196640015
887,0.000547147705219686,1.0,0.5460638403892517,0.9393333196640015
888,0.0001337724388577044,1.0,0.5459280610084534,0.9395555257797241
889,0.000330085342284292,1.0,0.5444697737693787,0.9388889074325562
890,0.00019455439178273082,1.0,0.5436733961105347,0.9393333196640015
891,0.00023977059754543006,1.0,0.5440197587013245,0.9393333196640015
892,0.00023504509590566158,1.0,0.5449953079223633,0.9397777915000916
893,0.00013551001029554754,1.0,0.5477063655853271,0.9393333196640015
894,0.0001739215076668188,1.0,0.5469523072242737,0.9393333196640015
895,0.0001215885640704073,1.0,0.546397864818573,0.9395555257797241
896,0.007637144532054663,0.9980000257492065,0.5263121128082275,0.933555543422699
897,0.012093006633222103,0.9959999918937683,0.6123509407043457,0.8844444155693054
898,0.0007488171104341745,1.0,0.4962007403373718,0.925777792930603
899,0.0016432119300588965,1.0,0.49753981828689575,0.9308888912200928
900,0.0006906783091835678,1.0,0.5066134929656982,0.9286666512489319
901,0.0006814912776462734,1.0,0.5057305693626404,0.9328888654708862
902,0.0008661036263220012,1.0,0.5139678716659546,0.9362221956253052
903,0.0008781965007074177,1.0,0.5177784562110901,0.9366666674613953
904,0.0006164723890833557,1.0,0.5213062763214111,0.9375555515289307
905,0.000667610380332917,1.0,0.5271958112716675,0.9386666417121887
906,0.00025920127518475056,1.0,0.5282974243164062,0.9388889074325562
907,0.0005343995871953666,1.0,0.5280017852783203,0.9391111135482788
908,0.00032901379745453596,1.0,0.5305806398391724,0.9393333196640015
909,0.00043545206426642835,1.0,0.5324603319168091,0.9393333196640015
910,0.0003419604036025703,1.0,0.5348129868507385,0.9395555257797241
911,0.00044152469490654767,1.0,0.5322890877723694,0.9393333196640015
912,0.00025301839923486114,1.0,0.5190471410751343,0.9377777576446533
913,0.0002678876044228673,1.0,0.5226433277130127,0.9386666417121887
914,0.0002954986412078142,1.0,0.5285401940345764,0.9393333196640015
915,0.00017267742077820003,1.0,0.5383752584457397,0.9397777915000916
916,0.00031006013159640133,1.0,0.5392599105834961,0.9397777915000916
917,0.0003434708632994443,1.0,0.5385490655899048,0.9395555257797241
918,0.000283157016383484,1.0,0.5385897755622864,0.9391111135482788
919,0.00018712395103648305,1.0,0.5385408997535706,0.9393333196640015
920,0.0002167078637285158,1.0,0.538121223449707,0.9393333196640015
921,0.00021095958072692156,1.0,0.5390059351921082,0.9395555257797241
922,0.00026517073274590075,1.0,0.5408864617347717,0.9399999976158142
923,0.00021511683007702231,1.0,0.5390843152999878,0.9399999976158142
924,0.000152182110468857,1.0,0.5394351482391357,0.9399999976158142
925,0.0002681354235392064,1.0,0.5391685366630554,0.9397777915000916
926,0.0001797314762370661,1.0,0.5382729172706604,0.9395555257797241
927,0.00021992747497279197,1.0,0.5396127104759216,0.9395555257797241
928,0.0002208350197179243,1.0,0.5412235260009766,0.9393333196640015
929,0.00019551928562577814,1.0,0.5413804054260254,0.9393333196640015
930,0.0003335835936013609,1.0,0.5428426861763,0.9395555257797241
931,0.00020000286167487502,1.0,0.5418486595153809,0.9395555257797241
932,0.0003136157465633005,1.0,0.5435053110122681,0.9399999976158142
933,0.00024044055317062885,1.0,0.5454627275466919,0.9399999976158142
934,0.00017229293007403612,1.0,0.547478199005127,0.9399999976158142
935,0.00022100890055298805,1.0,0.5471353530883789,0.9399999976158142
936,0.00012708753638435155,1.0,0.5449105501174927,0.9402222037315369
937,0.0002931961207650602,1.0,0.5499404072761536,0.9402222037315369
938,0.00016944117669481784,1.0,0.5455622673034668,0.9404444694519043
939,0.0002772461448330432,1.0,0.5460038781166077,0.9404444694519043
940,0.00027148163644596934,1.0,0.5458195805549622,0.9402222037315369
941,0.001683450536802411,1.0,0.5583931803703308,0.9419999718666077
942,0.0008673996780999005,1.0,0.7916819453239441,0.9313333630561829
943,0.0007225788431242108,1.0,0.6505174040794373,0.9413333535194397
944,0.0007394669228233397,1.0,0.5858027935028076,0.9422222375869751
945,0.00038577671512030065,1.0,0.5569908022880554,0.9413333535194397
946,0.0002865293063223362,1.0,0.5406785011291504,0.9419999718666077
947,0.00014203539467416704,1.0,0.5375666618347168,0.9419999718666077
948,0.00023263247567228973,1.0,0.5332626700401306,0.9415555596351624
949,0.00022148249263409525,1.0,0.5330169796943665,0.9411110877990723
950,0.00021051696967333555,1.0,0.5329389572143555,0.9402222037315369
951,0.00020863249665126204,1.0,0.5351760983467102,0.9402222037315369
952,0.000275962520390749,1.0,0.5372143387794495,0.9402222037315369
953,0.00018771870236378163,1.0,0.5346086621284485,0.9402222037315369
954,0.00015601642371620983,1.0,0.5351963043212891,0.9404444694519043
955,0.00014154924429021776,1.0,0.5396220088005066,0.9408888816833496
956,0.00013797178689856082,1.0,0.5407878160476685,0.9408888816833496
957,0.00015990360407158732,1.0,0.5422290563583374,0.9408888816833496
958,0.0001334239641437307,1.0,0.5379067063331604,0.9393333196640015
959,0.00014230413944460452,1.0,0.5400121212005615,0.9397777915000916
960,0.00017100133118219674,1.0,0.5411441326141357,0.9399999976158142
961,0.00012300080561544746,1.0,0.5433732867240906,0.9404444694519043
962,0.002008563606068492,0.9980000257492065,0.5242717266082764,0.9362221956253052
963,0.00896437093615532,0.9940000176429749,0.588836669921875,0.8899999856948853
964,0.0016727142501622438,1.0,0.6315336227416992,0.940666675567627
965,0.0007619039388373494,1.0,0.600997805595398,0.9402222037315369
966,0.0003824102459475398,1.0,0.5761860609054565,0.940666675567627
967,0.0004988411092199385,1.0,0.5623703598976135,0.9402222037315369
968,0.0002973392547573894,1.0,0.5528291463851929,0.9397777915000916
969,0.0003182124637532979,1.0,0.5465191006660461,0.9399999976158142
970,0.00025452961563132703,1.0,0.5446025729179382,0.9399999976158142
971,0.00045291101559996605,1.0,0.5431798100471497,0.9399999976158142
972,0.0003007032792083919,1.0,0.5393544435501099,0.9404444694519043
973,0.00021285885304678231,1.0,0.5408607125282288,0.940666675567627
974,0.00035646450123749673,1.0,0.5398252606391907,0.9404444694519043
975,0.00020192506781313568,1.0,0.5397903919219971,0.9404444694519043
976,0.0002974396920762956,1.0,0.5390939712524414,0.9402222037315369
977,0.0002538558328524232,1.0,0.5381995439529419,0.9402222037315369
978,0.0001835071452660486,1.0,0.5408473014831543,0.9408888816833496
979,0.00024286484404001385,1.0,0.542836606502533,0.940666675567627
980,0.00013564812252297997,1.0,0.542483389377594,0.940666675567627
981,0.0004222036513965577,1.0,0.5406923890113831,0.9402222037315369
982,0.0002496386005077511,1.0,0.5223106741905212,0.9331111311912537
983,0.00026848289417102933,1.0,0.5265092253684998,0.9348888993263245
984,0.000681708799675107,1.0,0.5290722846984863,0.9371111392974854
985,0.00021689374989364296,1.0,0.5211436152458191,0.9368888735771179
986,0.00023410606081597507,1.0,0.5292831659317017,0.9388889074325562
987,0.00023060855164658278,1.0,0.5350338816642761,0.9397777915000916
988,0.0002262128982692957,1.0,0.541344165802002,0.9402222037315369
989,0.00022267787426244467,1.0,0.5430804491043091,0.9402222037315369
990,0.0002536370593588799,1.0,0.5460218787193298,0.9402222037315369
991,0.00020409695571288466,1.0,0.5487900376319885,0.9404444694519043
992,0.00019056355813518167,1.0,0.5499262809753418,0.940666675567627
993,0.0002243859926238656,1.0,0.5523185133934021,0.940666675567627
994,0.0001552724716020748,1.0,0.5520774722099304,0.9404444694519043
995,0.0002030200557783246,1.0,0.5542524456977844,0.940666675567627
996,0.0002042459964286536,1.0,0.5555448532104492,0.9408888816833496
997,0.00015044547035358846,1.0,0.5545799136161804,0.9408888816833496
998,0.0001441727945348248,1.0,0.555149495601654,0.9411110877990723
999,0.00018787030421663076,1.0,0.5486671924591064,0.9404444694519043
1000,0.0001743539032759145,1.0,0.5531861782073975,0.940666675567627
1001,0.00010559163638390601,1.0,0.5542454123497009,0.9408888816833496
1002,0.0002750390849541873,1.0,0.5507652759552002,0.9393333196640015
1003,0.00012115942081436515,1.0,0.5525949597358704,0.9399999976158142
1004,0.00014731021656189114,1.0,0.5532013773918152,0.9402222037315369
1005,0.00016031283303163946,1.0,0.5549879670143127,0.940666675567627
1006,0.000116505500045605,1.0,0.5570260286331177,0.9411110877990723
1007,0.000148574763443321,1.0,0.558022677898407,0.9413333535194397
1008,9.054832480615005e-05,1.0,0.5589555501937866,0.9413333535194397
1009,9.864851017482579e-05,1.0,0.5586659908294678,0.9413333535194397
1010,0.0003147740790154785,1.0,0.5580297708511353,0.9408888816833496
1011,0.00011509914475027472,1.0,0.557706892490387,0.940666675567627
1012,0.00020009008585475385,1.0,0.5551570653915405,0.9404444694519043
1013,0.00012095402780687436,1.0,0.5572616457939148,0.9411110877990723
1014,0.00011108464241260663,1.0,0.5576565265655518,0.9408888816833496
1015,0.00011490874749142677,1.0,0.5597696304321289,0.9411110877990723
1016,0.00017474869673606008,1.0,0.559420645236969,0.9413333535194397
1017,0.000123903839266859,1.0,0.5590688586235046,0.9408888816833496
1018,0.0001270656503038481,1.0,0.5613914132118225,0.9415555596351624
1019,0.00011656225251499563,1.0,0.5613207221031189,0.9415555596351624
1020,0.000145117926876992,1.0,0.5628947019577026,0.941777765750885
1021,0.00011350803106324747,1.0,0.5721330642700195,0.941777765750885
1022,0.0003022841701749712,1.0,0.5731748342514038,0.9419999718666077
1023,0.00010885227675316855,1.0,0.5678694844245911,0.9419999718666077
1024,7.645761797903106e-05,1.0,0.5671999454498291,0.9419999718666077
1025,0.00010473686415934935,1.0,0.5643559694290161,0.9415555596351624
1026,0.00013493454025592655,1.0,0.5648136734962463,0.9413333535194397
1027,9.944856719812378e-05,1.0,0.565052330493927,0.9411110877990723
1028,0.00014725072833243757,1.0,0.5640450119972229,0.9411110877990723
1029,0.0002570205833762884,1.0,0.5626126527786255,0.9413333535194397
1030,0.00010159750672755763,1.0,0.5577842593193054,0.9415555596351624
1031,0.00017622721497900784,1.0,0.5565428137779236,0.9415555596351624
1032,0.00015880339196883142,1.0,0.5544890761375427,0.9411110877990723
1033,0.00011265719513176009,1.0,0.5585893988609314,0.9413333535194397
1034,0.00023928435984998941,1.0,0.5584422945976257,0.9411110877990723
1035,0.00013292423682287335,1.0,0.5586981177330017,0.940666675567627
1036,0.0001362113980576396,1.0,0.5623418092727661,0.9411110877990723
1037,0.0001043501470121555,1.0,0.5631632804870605,0.9411110877990723
1038,9.791825141292065e-05,1.0,0.5646219253540039,0.9413333535194397
1039,7.953401654958725e-05,1.0,0.5644778609275818,0.9415555596351624
1040,0.00012279074871912599,1.0,0.5653913617134094,0.9415555596351624
1041,0.00011232234828639776,1.0,0.5643454790115356,0.9415555596351624
1042,7.817719597369432e-05,1.0,0.5661130547523499,0.9415555596351624
1043,0.00010186744475504383,1.0,0.5698220729827881,0.9415555596351624
1044,9.709296864457428e-05,1.0,0.568851113319397,0.9413333535194397
1045,0.00017910354654304683,1.0,0.5646602511405945,0.9411110877990723
1046,0.00014173639647196978,1.0,0.5522406697273254,0.9386666417121887
1047,0.00011808500858023763,1.0,0.5553168058395386,0.9395555257797241
1048,0.00014586167526431382,1.0,0.5610073208808899,0.9402222037315369
1049,0.00015750134480185807,1.0,0.5668987035751343,0.9411110877990723
1050,0.00010717529221437871,1.0,0.5678399205207825,0.9413333535194397
1051,9.883922029985115e-05,1.0,0.5695685744285583,0.9413333535194397
1052,0.0001195006916532293,1.0,0.572264552116394,0.9413333535194397
1053,8.884654380381107e-05,1.0,0.5739434361457825,0.9413333535194397
1054,0.0003899850125890225,1.0,0.5594292879104614,0.9399999976158142
1055,0.00020704376220237464,1.0,0.5282428860664368,0.9222221970558167
1056,0.00035201205173507333,1.0,0.5189920663833618,0.9326666593551636
1057,0.00019737635739147663,1.0,0.5288686156272888,0.9375555515289307
1058,0.00028968759579584,1.0,0.5329881906509399,0.9388889074325562
1059,0.00014904521231073886,1.0,0.5429922342300415,0.9402222037315369
1060,0.00011614109098445624,1.0,0.5480288863182068,0.9404444694519043
1061,0.0001392921549268067,1.0,0.5566571950912476,0.941777765750885
1062,0.00014680132153443992,1.0,0.5672582983970642,0.941777765750885
1063,8.794310997473076e-05,1.0,0.5718722343444824,0.9419999718666077
1064,9.907838102662936e-05,1.0,0.5718290209770203,0.9415555596351624
1065,0.00013350934023037553,1.0,0.5753672122955322,0.941777765750885
1066,0.00013828846567776054,1.0,0.5741435289382935,0.9415555596351624
1067,0.00011143455776618794,1.0,0.5740247368812561,0.9415555596351624
1068,0.00013770467194262892,1.0,0.5763281583786011,0.941777765750885
1069,9.94843285297975e-05,1.0,0.5759061574935913,0.941777765750885
1070,7.308179920073599e-05,1.0,0.5757662653923035,0.941777765750885
1071,0.00017216845299117267,1.0,0.5713793635368347,0.941777765750885
1072,8.037265070015565e-05,1.0,0.5692539215087891,0.941777765750885
1073,0.00012387386232148856,1.0,0.5674263834953308,0.9413333535194397
1074,9.408426558366045e-05,1.0,0.541802704334259,0.9399999976158142
1075,9.613774454919621e-05,1.0,0.5497815608978271,0.941777765750885
1076,7.92653881944716e-05,1.0,0.5568932294845581,0.9419999718666077
1077,9.608256368665025e-05,1.0,0.5593826770782471,0.941777765750885
1078,0.00012051878729835153,1.0,0.5647037029266357,0.9415555596351624
1079,7.366220961557701e-05,1.0,0.5786802172660828,0.9411110877990723
1080,9.426480391994119e-05,1.0,0.5777086019515991,0.9411110877990723
1081,7.373174594249576e-05,1.0,0.5765936374664307,0.9411110877990723
1082,9.196699102176353e-05,1.0,0.5747870206832886,0.9413333535194397
1083,9.793235949473456e-05,1.0,0.5843679904937744,0.941777765750885
1084,8.160434663295746e-05,1.0,0.579164445400238,0.9413333535194397
1085,9.097713336814195e-05,1.0,0.5804042816162109,0.9415555596351624
1086,0.00010856351582333446,1.0,0.5796533226966858,0.9415555596351624
1087,0.00013508848496712744,1.0,0.5716896653175354,0.9411110877990723
1088,0.00011873386392835528,1.0,0.570491373538971,0.9393333196640015
1089,9.151018457487226e-05,1.0,0.5673505663871765,0.940666675567627
1090,0.00011063292913604528,1.0,0.5734947919845581,0.9404444694519043
1091,9.812616917770356e-05,1.0,0.5720396041870117,0.940666675567627
1092,5.594267349806614e-05,1.0,0.5731450319290161,0.9408888816833496
1093,0.00019742398581001908,1.0,0.5655049085617065,0.9413333535194397
1094,0.00010287181794410571,1.0,0.5484905242919922,0.9402222037315369
1095,8.176838309736922e-05,1.0,0.5591214895248413,0.9413333535194397
1096,0.00011789792188210413,1.0,0.5656887292861938,0.941777765750885
1097,0.001315508154220879,1.0,0.5642131567001343,0.9411110877990723
1098,0.003040673676878214,1.0,0.5317578315734863,0.9353333115577698
1099,0.0007102609961293638,1.0,0.5622496604919434,0.9433333277702332
1100,0.0002695538569241762,1.0,0.5680591464042664,0.9426666498184204
1101,0.00017991871573030949,1.0,0.5626232624053955,0.9424444437026978
1102,0.00043817184632644057,1.0,0.5672206878662109,0.9419999718666077
1103,0.00018024352903012186,1.0,0.5530003905296326,0.9419999718666077
1104,0.0004646837478503585,1.0,0.5542914271354675,0.9413333535194397
1105,0.00020710224634967744,1.0,0.5557178258895874,0.9404444694519043
1106,0.00021558449952863157,1.0,0.5611066818237305,0.9404444694519043
1107,0.00016838462033774704,1.0,0.5646873712539673,0.940666675567627
1108,0.00020093863713555038,1.0,0.5700281262397766,0.940666675567627
1109,0.00022807517962064594,1.0,0.5779391527175903,0.9422222375869751
1110,0.00012577968300320208,1.0,0.5746116042137146,0.941777765750885
1111,0.010090898722410202,0.9959999918937683,0.5552233457565308,0.9408888816833496
1112,0.0010311875957995653,1.0,0.4953728914260864,0.9240000247955322
1113,0.003920596558600664,0.9980000257492065,0.48117795586586,0.9282222390174866
1114,0.012888765893876553,0.9959999918937683,0.8428125381469727,0.8051111102104187
1115,0.00726225646212697,0.9980000257492065,0.5550997257232666,0.9399999976158142
1116,0.0010497391922399402,1.0,0.5662261843681335,0.9411110877990723
1117,0.0007489604176953435,1.0,0.5671647191047668,0.9411110877990723
1118,0.0017787839751690626,1.0,0.5747658610343933,0.9424444437026978
1119,0.0003361896378919482,1.0,0.5662088394165039,0.941777765750885
1120,0.0006260419613681734,1.0,0.5608370900154114,0.9413333535194397
1121,0.000592991360463202,1.0,0.5550718903541565,0.9408888816833496
1122,0.0005324888625182211,1.0,0.5571379065513611,0.9411110877990723
1123,0.00025119466590695083,1.0,0.5548512935638428,0.9411110877990723
1124,0.0003682261740323156,1.0,0.5549477934837341,0.9408888816833496
1125,0.00036794101470150054,1.0,0.5583781599998474,0.9408888816833496
1126,0.0011608853237703443,1.0,0.5569018721580505,0.9402222037315369
1127,0.0008931382326409221,1.0,0.5603392720222473,0.9408888816833496
1128,0.00021819626272190362,1.0,0.5585558414459229,0.9408888816833496
1129,0.0003492566174827516,1.0,0.5567032694816589,0.940666675567627
1130,0.00017844451940618455,1.0,0.5576465725898743,0.940666675567627
1131,0.00018734204059001058,1.0,0.5575319528579712,0.940666675567627
1132,0.00018656387692317367,1.0,0.5572748184204102,0.940666675567627
1133,0.00022547997650690377,1.0,0.5572716593742371,0.940666675567627
1134,0.00048408348811790347,1.0,0.5581994652748108,0.9402222037315369
1135,0.0003146328963339329,1.0,0.5687574148178101,0.9388889074325562
1136,0.00040813948726281524,1.0,0.5700398683547974,0.9399999976158142
1137,0.00038770612445659935,1.0,0.5619106292724609,0.9399999976158142
1138,0.00024930646759457886,1.0,0.5578792691230774,0.9395555257797241
1139,0.0002558971755206585,1.0,0.5570509433746338,0.9397777915000916
1140,0.000210976431844756,1.0,0.5566723346710205,0.9395555257797241
1141,0.0005620017764158547,1.0,0.562483012676239,0.9397777915000916
1142,0.00017685018246993423,1.0,0.5942355394363403,0.9404444694519043
1143,0.00017125946760643274,1.0,0.5872471928596497,0.9404444694519043
1144,0.00018787075532600284,1.0,0.5819573998451233,0.940666675567627
1145,0.0002625537454150617,1.0,0.5776044130325317,0.9404444694519043
1146,0.0001642927818465978,1.0,0.5737470388412476,0.9399999976158142
1147,0.000154584864503704,1.0,0.5707088112831116,0.9397777915000916
1148,0.0009881678270176053,1.0,0.5840098261833191,0.940666675567627
1149,0.0007292669033631682,1.0,0.6816122531890869,0.9415555596351624
1150,0.0003264756524004042,1.0,0.640076220035553,0.9411110877990723
1151,0.000991367269307375,1.0,0.5787597298622131,0.9391111135482788
1152,0.00033491995418444276,1.0,0.5691232085227966,0.9384444355964661
1153,0.00024526024935767055,1.0,0.5584713816642761,0.9386666417121887
1154,0.00027702690567821264,1.0,0.5595376491546631,0.9386666417121887
1155,0.00021523606847040355,1.0,0.559627890586853,0.9386666417121887
1156,0.00014912273036316037,1.0,0.5622085928916931,0.9388889074325562
1157,0.0004637735546566546,1.0,0.5567773580551147,0.9391111135482788
1158,0.00017676391871646047,1.0,0.5603914856910706,0.9391111135482788
1159,0.00014122728316579014,1.0,0.5601369738578796,0.9391111135482788
1160,0.0002003754925681278,1.0,0.5641241669654846,0.9393333196640015
1161,0.00037736265221610665,1.0,0.5689624547958374,0.9395555257797241
1162,0.00020403301459737122,1.0,0.5712746381759644,0.9402222037315369
1163,0.00018836250819731504,1.0,0.5695461630821228,0.9402222037315369
1164,0.0001253902883036062,1.0,0.568224310874939,0.9402222037315369
1165,0.00017156598914880306,1.0,0.5682559609413147,0.9404444694519043
1166,0.00012614308798220009,1.0,0.5681023597717285,0.9402222037315369
1167,0.00019166123820468783,1.0,0.5708069801330566,0.9404444694519043
1168,0.00016322813462466002,1.0,0.5713217854499817,0.940666675567627
1169,0.00011129894119221717,1.0,0.5705689787864685,0.9408888816833496
1170,0.00013319950085133314,1.0,0.5693536996841431,0.9408888816833496
1171,0.00014641783491242677,1.0,0.5712497234344482,0.9408888816833496
1172,0.00010052049037767574,1.0,0.5697213411331177,0.9411110877990723
1173,0.00041217522812075913,1.0,0.5785490870475769,0.9408888816833496
1174,0.00042541566654108465,1.0,0.6380862593650818,0.940666675567627
1175,0.00023203175805974752,1.0,0.6121679544448853,0.940666675567627
1176,0.0002477516536600888,1.0,0.5927166938781738,0.9388889074325562
1177,0.00022703362628817558,1.0,0.5789651870727539,0.9393333196640015
1178,0.0003825825115200132,1.0,0.5731397867202759,0.9397777915000916
1179,0.00016839079034980386,1.0,0.5694654583930969,0.9395555257797241
1180,0.00023179262643679976,1.0,0.5664962530136108,0.9391111135482788
1181,0.00010913560254266486,1.0,0.5636915564537048,0.9391111135482788
1182,0.0001371706457575783,1.0,0.5618241429328918,0.9391111135482788
1183,0.00017791528080124408,1.0,0.5602906942367554,0.9395555257797241
1184,0.00014326401287689805,1.0,0.559264600276947,0.9393333196640015
1185,0.0001281756703974679,1.0,0.5589475631713867,0.9393333196640015
1186,8.797379268798977e-05,1.0,0.5578464865684509,0.9393333196640015
1187,0.0001801512116799131,1.0,0.5553030967712402,0.9391111135482788
1188,0.0010915392776951194,1.0,0.5423020124435425,0.9375555515289307
1189,0.00027202756609767675,1.0,0.48589572310447693,0.9317777752876282
1190,0.000324897060636431,1.0,0.49122950434684753,0.9348888993263245
1191,0.0003240613150410354,1.0,0.5028656721115112,0.9382222294807434
1192,0.0003322295960970223,1.0,0.5166040658950806,0.9384444355964661
1193,0.00038436203612945974,1.0,0.5293588042259216,0.9399999976158142
1194,0.0003520412719808519,1.0,0.5331209897994995,0.9408888816833496
1195,0.0002431364409858361,1.0,0.5387040376663208,0.9411110877990723
1196,0.00027993565890938044,1.0,0.5445152521133423,0.9411110877990723
1197,0.00019978074124082923,1.0,0.5628905296325684,0.941777765750885
1198,0.00013347071944735944,1.0,0.5616711974143982,0.941777765750885
1199,0.00012276261986698955,1.0,0.5622032880783081,0.9415555596351624
